date,FCT_Demark_Atr_Dfive
2019-04-30,
2019-05-06,
2019-05-07,
2019-05-08,
2019-05-09,
2019-05-10,
2019-05-13,
2019-05-14,
2019-05-15,
2019-05-16,0.8502202643171806
2019-05-17,1.0
2019-05-20,0.8195121951219512
2019-05-21,0.5678391959798995
2019-05-22,0.3533834586466165
2019-05-23,0.12195121951219512
2019-05-24,0.40331491712707185
2019-05-27,0.6120218579234973
2019-05-28,0.872093023255814
2019-05-29,0.6559633027522935
2019-05-30,0.7782426778242678
2019-05-31,0.5381165919282511
2019-06-03,0.4975609756097561
2019-06-04,0.32160804020100503
2019-06-05,0.40764331210191085
2019-06-06,0.225
2019-06-10,0.44155844155844154
2019-06-11,0.09923664122137404
2019-06-12,0.11926605504587157
2019-06-13,0.43333333333333335
2019-06-14,0.41379310344827586
2019-06-17,0.4097222222222222
2019-06-18,0.9065420560747663
2019-06-19,1.0
2019-06-20,0.4752475247524752
2019-06-21,0.34558823529411764
2019-06-24,0.2751677852348993
2019-06-25,0.0196078431372549
2019-06-26,0.0
2019-06-27,0.17647058823529413
2019-06-28,0.3448275862068966
2019-07-01,0.39215686274509803
2019-07-02,0.7101449275362319
2019-07-03,0.9295774647887324
2019-07-04,0.49411764705882355
2019-07-05,0.2826086956521739
2019-07-08,0.3645833333333333
2019-07-09,0.3146067415730337
2019-07-10,0.24691358024691357
2019-07-11,0.5740740740740741
2019-07-12,1.0
2019-07-15,0.7931034482758621
2019-07-16,0.6
2019-07-17,0.5
2019-07-18,0.13043478260869565
2019-07-19,0.06896551724137931
2019-07-22,0.07692307692307693
2019-07-23,0.08
2019-07-24,0.0
2019-07-25,0.0
2019-07-26,0.225
2019-07-29,0.16981132075471697
2019-07-30,0.1956521739130435
2019-07-31,0.14754098360655737
2019-08-01,0.38461538461538464
2019-08-02,0.23880597014925373
2019-08-05,0.5394736842105263
2019-08-06,0.7602739726027398
2019-08-07,0.930379746835443
2019-08-08,0.935672514619883
2019-08-09,1.0
2019-08-12,1.0
2019-08-13,0.6058823529411764
2019-08-14,0.41358024691358025
2019-08-15,0.2261904761904762
2019-08-16,0.06547619047619048
2019-08-19,0.0
2019-08-20,0.07246376811594203
2019-08-21,0.18699186991869918
2019-08-22,0.25274725274725274
2019-08-23,0.3194444444444444
2019-08-26,0.8382352941176471
2019-08-27,0.7230769230769231
2019-08-28,0.5074626865671642
2019-08-29,0.6
2019-08-30,0.725
2019-09-02,0.3333333333333333
2019-09-03,0.6985294117647058
2019-09-04,0.821917808219178
2019-09-05,0.8579234972677595
2019-09-06,0.8823529411764706
2019-09-09,1.0
2019-09-10,0.6197183098591549
2019-09-11,0.6415929203539823
2019-09-12,0.42920353982300885
2019-09-16,0.22772277227722773
2019-09-17,0.18719211822660098
2019-09-18,0.36363636363636365
2019-09-19,0.07751937984496124
2019-09-20,0.11363636363636363
2019-09-23,0.2916666666666667
2019-09-24,0.3333333333333333
2019-09-25,0.1896551724137931
2019-09-26,0.2972972972972973
2019-09-27,0.525
2019-09-30,0.19230769230769232
2019-10-08,0.5670103092783505
2019-10-09,0.55
2019-10-10,0.5288461538461539
2019-10-11,0.45
2019-10-14,0.5113636363636364
2019-10-15,0.0
2019-10-16,0.0136986301369863
2019-10-17,0.6275862068965518
2019-10-18,0.7125748502994012
2019-10-21,0.76875
2019-10-22,0.8723404255319149
2019-10-23,0.9192825112107623
2019-10-24,0.5373831775700935
2019-10-25,0.40654205607476634
2019-10-28,0.44541484716157204
2019-10-29,0.5260869565217391
2019-10-30,0.16379310344827586
2019-10-31,0.25
2019-11-01,0.328125
2019-11-04,0.362962962962963
2019-11-05,0.2833333333333333
2019-11-06,0.9824561403508771
2019-11-07,1.0
2019-11-08,1.0
2019-11-11,0.41754941049458527
2019-11-12,0.3254008802726105
2019-11-13,0.15139919102819077
2019-11-14,0.2554102923601431
2019-11-15,0.18667961562052696
2019-11-18,0.3919805093750281
2019-11-19,0.8480766404713732
2019-11-20,0.8459682855014358
2019-11-21,0.5633802816901404
2019-11-22,0.6417910447761193
2019-11-25,0.6417910447761261
2019-11-26,0.05555555555556004
2019-11-27,0.0400000000000022
2019-11-28,0.04761904761905046
2019-11-29,0.2682926829268324
2019-12-02,0.3048780487804842
2019-12-03,0.5322004450864691
2019-12-04,0.47257709442006984
2019-12-05,0.5572874080130651
2019-12-06,0.12132393843869292
2019-12-09,0.504548115929899
2019-12-10,0.7159910139895826
2019-12-11,0.8246730334964261
2019-12-12,0.823752628672814
2019-12-13,0.45772758429349886
2019-12-16,0.13513513513513545
2019-12-17,0.0
2019-12-18,0.0
2019-12-19,0.0
2019-12-20,0.0
2019-12-23,0.0
2019-12-24,0.44444444444445785
2019-12-25,0.34782608695653117
2019-12-26,0.46153846153845723
2019-12-27,0.6842105263157637
2019-12-30,0.8484848484848415
2019-12-31,0.8148148148148079
2020-01-02,0.7586206896551811
2020-01-03,0.7407407407407622
2020-01-06,0.8478260869565367
2020-01-07,0.9000000000000078
2020-01-08,0.9156626506024156
2020-01-09,1.0
2020-01-10,1.0
2020-01-13,1.0
2020-01-14,0.6639999999999965
2020-01-15,0.561983471074377
2020-01-16,0.5508474576271196
2020-01-17,0.10084033613446175
2020-01-20,0.04237288135593611
2020-01-21,0.05154639175258196
2020-01-22,0.19801980198020422
2020-01-23,0.14285714285714587
2020-02-03,0.7000000000000017
2020-02-04,0.7986577181208065
2020-02-05,0.9333333333333362
2020-02-06,0.7602739726027398
2020-02-07,0.7816901408450696
2020-02-10,0.3065693430656924
2020-02-11,0.04430379746835336
2020-02-12,0.0
2020-02-13,0.0
2020-02-14,0.05263157894736217
2020-02-17,0.16216216216214532
2020-02-18,0.5454545454545364
2020-02-19,0.39999999999999025
2020-02-20,0.7058823529411853
2020-02-21,0.547169811320764
2020-02-24,0.48000000000001664
2020-02-25,0.6901408450704318
2020-02-26,0.8405797101449302
2020-02-27,0.8135593220339005
2020-02-28,0.9722222222222257
2020-03-02,1.0
2020-03-03,0.8900000000000006
2020-03-04,0.8602150537634417
2020-03-05,0.5689655172413819
2020-03-06,0.41509433962264
2020-03-09,0.0
2020-03-10,0.0
2020-03-11,0.1827956989247315
2020-03-12,0.5063291139240472
2020-03-13,0.6249999999999993
2020-03-16,0.49450549450549924
2020-03-17,0.6179775280898957
2020-03-18,0.4130434782608805
2020-03-19,0.3647058823529462
2020-03-20,0.5781250000000049
2020-03-23,0.7872340425531915
2020-03-24,0.8540145985401452
2020-03-25,0.9999999999999957
2020-03-26,0.9999999999999957
2020-03-27,0.8039215686274445
2020-03-30,0.8360655737704893
2020-03-31,0.531914893617019
2020-04-01,0.30666666666666553
2020-04-02,0.16483516483516245
2020-04-03,0.2179487179487164
2020-04-07,0.026191356215190906
2020-04-08,0.24088227270321408
2020-04-09,0.2177917837065761
2020-04-10,0.47752569180846266
2020-04-13,0.398699283066136
2020-04-14,0.46642003553435724
2020-04-15,0.238052299368802
2020-04-16,0.3562083061072482
2020-04-17,0.014425086103781225
2020-04-20,0.016393442622945717
2020-04-21,0.09090909090909709
2020-04-22,0.29787234042553723
2020-04-23,0.21666666666667403
2020-04-24,0.7200000000000032
2020-04-27,0.8715596330275215
2020-04-28,0.8584905660377391
2020-04-29,0.8484848484848523
2020-04-30,0.9883720930232638
2020-05-06,0.6027397260273997
2020-05-07,0.03333333333333958
2020-05-08,0.12244897959183358
2020-05-11,0.08130081300812689
2020-05-12,0.08870967741934947
2020-05-13,0.1134020618556643
2020-05-14,0.36363636363636914
2020-05-15,0.1372549019608028
2020-05-18,0.4333333333333586
2020-05-19,0.37931034482761244
2020-05-20,0.24444444444446053
2020-05-21,0.1904761904761874
2020-05-22,0.6470588235294145
2020-05-25,0.509433962264152
2020-05-26,0.5283018867924422
2020-05-27,0.6999999999999758
2020-05-28,0.7499999999999826
2020-05-29,0.40740740740738884
2020-06-01,0.7575757575757556
2020-06-02,0.7894736842105357
2020-06-03,0.83333333333338
2020-06-04,0.6060606060606427
2020-06-05,0.4081632653061367
2020-06-08,0.13043478260871114
2020-06-09,0.06976744186045379
2020-06-10,0.38709677419353045
2020-06-11,0.49999999999999095
2020-06-12,0.6888888888888796
2020-06-15,0.8378378378378417
2020-06-16,0.8421052631579005
2020-06-17,0.3235294117647198
2020-06-18,0.1025641025641028
2020-06-19,0.13513513513514738
2020-06-22,0.5245901639344313
2020-06-23,0.4307692307692317
2020-06-24,0.7959183673469338
2020-06-29,0.9148936170212697
2020-06-30,0.9230769230769161
2020-07-01,0.6969696969696831
2020-07-02,0.7843137254901889
2020-07-03,0.31249999999999944
2020-07-06,0.21359223300970834
2020-07-07,0.10891089108911357
2020-07-08,0.18072289156627888
2020-07-09,0.043010752688179804
2020-07-10,0.36619718309859417
2020-07-13,0.491525423728816
2020-07-14,0.6111111111111134
2020-07-15,0.6612903225806426
2020-07-16,1.0
2020-07-17,1.0
2020-07-20,1.0
2020-07-21,0.9904761904761933
2020-07-22,0.9906542056074794
2020-07-23,0.9922480620155061
2020-07-24,0.6605504587155947
2020-07-27,0.4651162790697638
2020-07-28,0.5108695652173844
2020-07-29,0.37078651685392783
2020-07-30,0.0921052631578886
2020-07-31,0.09589041095889855
2020-08-03,0.10144927536231195
2020-08-04,0.0
2020-08-05,0.13235294117647603
2020-08-06,0.5818181818181871
2020-08-07,0.8555555555555561
2020-08-10,0.9455782312925199
2020-08-11,1.0
2020-08-12,0.9999999999999979
2020-08-13,0.6506024096385536
2020-08-14,0.6588235294117656
2020-08-17,0.27502519900935335
2020-08-18,0.09230396088451014
2020-08-19,0.07890062149847739
2020-08-20,0.1866122660144878
2020-08-21,0.08600356125968808
2020-08-24,0.2811742023757698
2020-08-25,0.43681969278901667
2020-08-26,0.6801670241409203
2020-08-27,0.38217138006867646
2020-08-28,0.4342105263157922
2020-08-31,0.18461538461538576
2020-09-01,0.11666666666665644
2020-09-02,0.036363636363624705
2020-09-03,0.6973684210526271
2020-09-04,0.8734177215189812
2020-09-07,1.0
2020-09-08,0.9746835443038007
2020-09-09,0.9855072463768134
2020-09-10,0.679999999999999
2020-09-11,0.5564516129032255
2020-09-14,0.47580645161290125
2020-09-15,0.5263157894736818
2020-09-16,0.08270676691729395
2020-09-17,0.20754716981131985
2020-09-18,0.2580645161290329
2020-09-21,0.2580645161290329
2020-09-22,0.1529411764705877
2020-09-23,0.6285714285714291
2020-09-24,0.6666666666666737
2020-09-25,0.6904761904761957
2020-09-28,0.9210526315789513
2020-09-29,0.9999999999999881
2020-09-30,0.999999999999984
2020-10-09,0.9999999999999756
2020-10-12,0.9999999999999655
2020-10-13,0.9999999999999539
2020-10-14,1.0
2020-10-15,1.0
2020-10-16,0.6891891891891889
2020-10-19,0.5862068965517232
2020-10-20,0.5106382978723389
2020-10-21,0.08823529411764987
2020-10-22,0.0
2020-10-23,0.0
2020-10-26,0.2561983471074394
2020-10-27,0.27433628318584186
2020-10-28,0.6601941747572824
2020-10-29,0.786516853932585
2020-10-30,0.979797979797978
2020-11-02,0.6874999999999989
2020-11-03,0.7083333333333328
2020-11-04,0.32978723404254706
2020-11-05,0.3699999999999974
2020-11-06,0.10204081632653068
2020-11-09,0.31818181818181684
2020-11-10,0.34065934065934433
2020-11-11,0.5344827586206996
2020-11-12,0.37096774193548937
2020-11-13,0.6410256410256423
2020-11-16,0.2500000000000077
2020-11-17,0.4324324324324311
2020-11-18,0.43243243243243135
2020-11-19,0.7692307692307765
2020-11-20,0.8421052631579016
2020-11-23,0.8000000000000025
2020-11-24,0.7446808510638334
2020-11-25,0.7446808510638271
2020-11-26,0.4285714285714309
2020-11-27,0.021739130434784606
2020-11-30,0.5454545454545441
2020-12-01,0.5624999999999956
2020-12-02,0.6413043478260846
2020-12-03,0.8111111111111068
2020-12-04,0.9012345679012348
2020-12-07,0.38095238095237605
2020-12-08,0.2545454545454531
2020-12-09,0.16326530612244786
2020-12-10,0.4496644295302052
2020-12-11,0.6851063829787262
2020-12-14,0.862385321100919
2020-12-15,1.0
2020-12-16,0.9293996151901647
2020-12-17,0.6561488406937855
2020-12-18,0.18826345519477244
2020-12-21,0.055148851739041896
2020-12-22,0.05616147781934725
2020-12-23,0.19271337194293395
2020-12-24,0.2423400794847908
2020-12-25,0.5814895826776623
2020-12-28,0.8104581388703751
2020-12-29,0.8000000000000065
2020-12-30,0.48529411764706537
2020-12-31,0.5689655172413753
2021-01-04,0.6363636363636319
2021-01-05,0.19230769230768657
2021-01-06,0.0989010989010975
2021-01-07,0.21518987341772253
2021-01-08,0.4579439252336433
2021-01-11,0.5166666666666658
2021-01-12,0.7654320987654373
2021-01-13,1.0
2021-01-14,0.9193548387096827
2021-01-15,0.39682539682541873
2021-01-18,0.04838709677421671
2021-01-19,0.09230769230767817
2021-01-20,0.043478260869547126
2021-01-21,0.03749999999998389
2021-01-22,0.16981132075469002
2021-01-25,0.2499999999999633
2021-01-26,0.13953488372092604
2021-01-27,0.24999999999999217
2021-01-28,0.46153846153846995
2021-01-29,0.20689655172414345
2021-02-01,0.4242424242424403
2021-02-02,0.6086956521739123
2021-02-03,0.4000000000000231
2021-02-04,0.4230769230769344
2021-02-05,0.8125000000000199
2021-02-08,0.473684210526322
2021-02-09,0.6666666666666713
2021-02-10,0.777777777777772
2021-02-18,0.791044776119396
2021-02-19,0.6229508196721271
2021-02-22,0.8888888888888944
2021-02-23,0.7936507936507885
2021-02-24,0.7192982456140269
2021-02-25,0.6071428571428582
2021-02-26,0.9071428571428543
2021-03-01,0.781512605042014
2021-03-02,0.8428571428571453
2021-03-03,0.8724832214765146
2021-03-04,0.9115646258503406
2021-03-05,0.27516778523490243
2021-03-08,0.2715231788079517
2021-03-09,0.11347517730496412
2021-03-10,0.0287769784172625
2021-03-11,0.17177914110429926
2021-03-12,0.4057971014492893
2021-03-15,0.5272727272727303
2021-03-16,0.8166666666666773
2021-03-17,0.9863013698630142
2021-03-18,0.6470588235294041
2021-03-19,0.7653061224489761
2021-03-22,0.805084745762711
2021-03-23,0.5281690140845048
2021-03-24,0.4094488188976394
2021-03-25,0.5438596491228089
2021-03-26,0.344444444444447
2021-03-29,0.10526315789473775
2021-03-30,0.1886792452830219
2021-03-31,0.38596491228070057
2021-04-01,0.16901408450703845
2021-04-02,0.14814814814814373
2021-04-06,0.4819277108433691
2021-04-07,0.5227846457070853
2021-04-08,0.29520452567449884
2021-04-09,0.4898535740360323
2021-04-12,0.5623269130661133
2021-04-13,0.279268678503835
2021-04-14,0.2117373687344244
2021-04-15,0.42813770798488054
2021-04-16,0.11960273723733375
2021-04-19,0.21249741361472912
2021-04-20,0.29545454545454064
2021-04-21,0.618181818181816
2021-04-22,0.499999999999992
2021-04-23,0.6585365853658464
2021-04-26,0.6315789473684198
2021-04-27,0.9069767441860419
2021-04-28,0.7916666666666567
2021-04-29,0.8846153846153783
2021-04-30,0.9263157894736802
2021-05-06,0.9278350515463877
2021-05-07,0.455696202531647
2021-05-10,0.46153846153846473
2021-05-11,0.6470588235294155
2021-05-12,0.6470588235294148
2021-05-13,0.6347826086956547
2021-05-14,0.8390804597701136
2021-05-17,0.919191919191919
2021-05-18,0.44705882352941145
2021-05-19,0.26027397260273977
2021-05-20,0.4705882352941192
2021-05-21,0.6034482758620692
2021-05-24,0.6805555555555554
2021-05-25,0.9406779661016952
2021-05-26,1.0
2021-05-27,0.8852459016393446
2021-05-28,0.8190476190476211
2021-05-31,0.33333333333333454
2021-06-01,0.20300751879699247
2021-06-02,0.027522935779816116
2021-06-03,0.02380952380952341
2021-06-04,0.02479338842975161
2021-06-07,0.31325301204819084
2021-06-08,0.49180327868852247
2021-06-09,0.22689075630252073
2021-06-10,0.46017699115044314
2021-06-11,0.36619718309859234
2021-06-15,0.2056737588652491
2021-06-16,0.23287671232876944
2021-06-17,0.4069767441860503
2021-06-18,0.11764705882353321
2021-06-21,0.6198347107438027
2021-06-22,0.7714285714285715
2021-06-23,0.6315789473684197
2021-06-24,0.6499999999999985
2021-06-25,0.7222222222222192
2021-06-28,0.1494252873563198
2021-06-29,0.09756097560975587
2021-06-30,0.22222222222222382
2021-07-01,0.1343283582089588
2021-07-02,0.192982456140363
2021-07-05,0.3928571428571651
2021-07-06,0.25641025641027126
2021-07-07,0.17142857142857926
2021-07-08,0.30769230769230627
2021-07-09,0.3720930232558002
2021-07-12,0.4848484848484679
2021-07-13,0.7916666666666589
2021-07-14,0.9090909090909074
2021-07-15,0.9122807017543848
2021-07-16,0.9324324324324318
2021-07-19,1.0
2021-07-20,1.0
2021-07-21,0.8626373626373623
2021-07-22,0.8768472906403938
2021-07-23,0.8288770053475932
2021-07-26,0.8201954106415046
2021-07-27,0.30959982021309534
2021-07-28,0.36020860271283717
2021-07-29,0.153689437226975
2021-07-30,0.17924302281126445
2021-08-02,0.30227458865435947
2021-08-03,0.6771672653140531
2021-08-04,0.6978012084350387
2021-08-05,0.6035252119589498
2021-08-06,0.42168674698795494
2021-08-09,0.0
2021-08-10,0.0
2021-08-11,0.027027027027026942
2021-08-12,0.2934782608695647
2021-08-13,0.6095238095238092
2021-08-16,0.711111111111112
2021-08-17,0.6530612244897932
2021-08-18,0.6019417475728119
2021-08-19,0.5638297872340395
2021-08-20,0.2711864406779644
2021-08-23,0.7701149425287309
2021-08-24,0.7204301075268852
2021-08-25,0.926070038910508
2021-08-26,0.7500000000000017
2021-08-27,0.8048780487804889
2021-08-30,0.7048710601719198
2021-08-31,0.754285714285713
2021-09-01,0.2680115273775203
2021-09-02,0.33666666666666495
2021-09-03,0.0962962962962952
2021-09-06,0.33644859813084077
2021-09-07,0.32594936708860794
2021-09-08,0.7631578947368436
2021-09-09,0.7593582887700546
2021-09-10,0.9102564102564095
2021-09-13,0.5172413793103435
2021-09-14,0.3012820512820491
2021-09-15,0.032679738562089146
2021-09-16,0.0
2021-09-17,0.0
2021-09-22,0.0
2021-09-23,0.11486486486486575
2021-09-24,0.14406779661017166
2021-09-27,0.7035398230088523
2021-09-28,0.8125000000000023
2021-09-29,0.9715189873417734
2021-09-30,0.973684210526317
2021-10-08,1.0
2021-10-11,1.0
2021-10-12,0.99147727272727
2021-10-13,0.9921671018276738
2021-10-14,0.9918918918918893
2021-10-15,0.41104294478527614
2021-10-18,0.5471698113207518
2021-10-19,0.6642984014209584
2021-10-20,0.6054279749478059
2021-10-21,0.621999999999999
2021-10-22,1.0
2021-10-25,0.7035294117647055
2021-10-26,0.5304054054054049
2021-10-27,0.39825581395349074
2021-10-28,0.5529157667386626
2021-10-29,0.40094339622641506
2021-11-01,0.5230769230769248
2021-11-02,0.44041450777202235
2021-11-03,0.3890160183066369
2021-11-04,0.0
2021-11-05,0.0
2021-11-08,0.10251450676982607
2021-11-09,0.09653916211293263
2021-11-10,0.21129707112970658
2021-11-11,0.44871794871794635
2021-11-12,0.49528301886792103
2021-11-15,0.2071713147410324
2021-11-16,0.3354838709677362
2021-11-17,0.03669724770641646
2021-11-18,0.24279365471267897
2021-11-19,0.18232313088083713
2021-11-22,0.276523450772718
2021-11-23,0.5624425455039651
2021-11-24,0.46258785165316096
2021-11-25,0.2926121074830098
2021-11-26,0.5907388578639965
2021-11-29,0.5899461180504509
2021-11-30,0.3299567788244959
2021-12-01,0.3470031545741283
2021-12-02,0.3283582089552205
2021-12-03,0.0
2021-12-06,0.1132075471698132
2021-12-07,0.18340611353712047
2021-12-08,0.21782178217821857
2021-12-09,0.6511627906976805
2021-12-10,1.0
2021-12-13,1.0
2021-12-14,1.0
2021-12-15,0.9659442724458235
2021-12-16,0.6550522648083615
2021-12-17,0.16546762589927774
2021-12-20,0.15017064846416495
2021-12-21,0.17549668874172317
2021-12-22,0.28528528528528657
2021-12-23,0.3345070422535228
2021-12-24,0.6956521739130446
2021-12-27,0.6881720430107539
2021-12-28,0.29411764705882465
2021-12-29,0.1363636363636364
2021-12-30,0.24444444444444602
2021-12-31,0.08661417322834793
2022-01-04,0.5458422174840085
2022-01-05,0.7955056179775284
2022-01-06,0.8530805687203794
2022-01-07,0.8581235697940505
2022-01-10,1.0
2022-01-11,0.42708333333333215
2022-01-12,0.16058394160583775
2022-01-13,0.14598540145985317
2022-01-14,0.15012106537530256
2022-01-17,0.1203007518797004
2022-01-18,0.2376237623762397
2022-01-19,0.6979166666666704
2022-01-20,0.8034188034188042
2022-01-21,0.38732394366197426
2022-01-24,0.3829787234042548
2022-01-25,0.5187969924812018
2022-01-26,0.42735042735042383
2022-01-27,0.17293233082706283
2022-01-28,0.4945054945054871
2022-02-07,0.3699999999999953
2022-02-08,0.6648936170212743
2022-02-09,0.7029702970297023
2022-02-10,0.8606060606060625
2022-02-11,0.8693181818181833
2022-02-14,0.9053254437869838
2022-02-15,0.3676470588235304
2022-02-16,0.5057471264367807
2022-02-17,0.6521739130434773
2022-02-18,0.4006849315068491
2022-02-21,0.3926174496644302
2022-02-22,0.4854771784232385
2022-02-23,0.2421875000000016
2022-02-24,0.0
2022-02-25,0.3918918918918933
2022-02-28,0.4663677130044834
2022-03-01,0.4297520661157001
2022-03-02,0.6599999999999966
2022-03-03,0.808383233532931
2022-03-04,0.3076923076923027
2022-03-07,0.4285714285714257
2022-03-08,0.7164179104477605
2022-03-09,0.7285714285714285
2022-03-10,0.7524429967426707
2022-03-11,1.0
2022-03-14,0.8595041322314075
2022-03-15,0.41810344827586476
2022-03-16,0.2794117647058835
2022-03-17,0.14136125654450488
2022-03-18,0.0
2022-03-21,0.1140939597315416
2022-03-22,0.40384615384614775
2022-03-23,0.19811320754716794
2022-03-24,0.2608695652173894
2022-03-25,0.25531914893616736
2022-03-28,0.05982905982905966
2022-03-29,0.021276595744680583
2022-03-30,0.2941176470588191
2022-03-31,0.2125984251968478
2022-04-01,0.20300751879699047
2022-04-06,0.29787234042552935
2022-04-07,0.7285714285714303
2022-04-08,0.6578947368421104
2022-04-11,0.9044824483792359
2022-04-12,0.993440033843336
2022-04-13,0.9936544311222077
2022-04-14,0.5882524060765115
2022-04-15,0.5529442579917211
2022-04-18,0.6327474013752141
2022-04-19,0.38867683537249986
2022-04-20,0.3582480153572358
2022-04-21,0.7236738522538029
2022-04-22,0.7756097560975617
2022-04-25,0.519337016574587
2022-04-26,0.6938775510204085
2022-04-27,0.7853403141361264
2022-04-28,0.45578231292516935
2022-04-29,0.40287769784172417
2022-05-05,0.603773584905655
2022-05-06,0.4628099173553686
2022-05-09,0.06956521739130218
2022-05-10,0.08695652173912807
2022-05-11,0.129032258064518
2022-05-12,0.02453987730061584
2022-05-13,0.027972027972030637
2022-05-16,0.03883495145631425
2022-05-17,0.3360000000000038
2022-05-18,0.25850340136054567
2022-05-19,0.5866666666666656
2022-05-20,0.621621621621621
2022-05-23,0.7291666666666662
2022-05-24,0.3516483516483493
2022-05-25,0.44444444444443926
2022-05-26,0.3880597014925338
2022-05-27,0.5287356321839042
2022-05-30,0.20754716981131888
2022-05-31,0.19999999999999818
2022-06-01,0.39097744360902126
2022-06-02,0.3611111111111097
2022-06-06,0.18867924528301863
2022-06-07,0.3333333333333322
2022-06-08,0.43877551020408223
2022-06-09,0.13829787234042473
2022-06-10,0.19767441860465182
2022-06-13,0.594936708860762
2022-06-14,0.5789473684210569
2022-06-15,0.7678571428571447
2022-06-16,1.0
2022-06-17,1.0
2022-06-20,1.0
2022-06-21,0.8768472906403945
2022-06-22,0.7906976744186046
2022-06-23,0.5033112582781458
2022-06-24,0.6093749999999993
2022-06-27,0.34351145038167774
2022-06-28,0.6187499999999979
2022-06-29,0.599999999999998
2022-06-30,0.6428571428571411
2022-07-01,0.6308724832214755
2022-07-04,0.6025641025641024
2022-07-05,0.5571428571428577
2022-07-06,0.7309941520467848
2022-07-07,0.8928571428571437
2022-07-08,0.625
2022-07-11,0.6077348066298343
2022-07-12,0.28685258964143434
2022-07-13,0.1091703056768556
2022-07-14,0.0
2022-07-15,0.2227722772277233
2022-07-18,0.23195876288659814
2022-07-19,0.5729166666666689
2022-07-20,0.5236600090714313
2022-07-21,0.5013176315572778
2022-07-22,0.07237309444763453
2022-07-25,0.355347618602041
2022-07-26,0.3198593200468914
2022-07-27,0.4835425465771911
2022-07-28,0.5079590809441391
2022-07-29,0.7440039966640765
2022-08-01,0.20748219001914173
2022-08-02,0.274647887323944
2022-08-03,0.09316770186335353
2022-08-04,0.12048192771084448
2022-08-05,0.1379310344827594
2022-08-08,0.3246753246753276
2022-08-09,0.13636363636363738
2022-08-10,0.2400000000000015
2022-08-11,0.06024096385542464
2022-08-12,0.25806451612903275
2022-08-15,0.17272727272727062
2022-08-16,0.2134831460674148
2022-08-17,0.22352941176470445
2022-08-18,0.5873015873015828
2022-08-19,0.617647058823529
2022-08-22,0.927272727272731
2022-08-23,0.6891891891891866
2022-08-24,0.7105263157894721
2022-08-25,0.6507936507936501
2022-08-26,0.24637681159420113
2022-08-29,0.11111111111111042
2022-08-30,0.4166666666666684
2022-08-31,0.38571428571428606
2022-09-01,0.46250000000000085
2022-09-02,0.7547169811320779
2022-09-05,0.6349206349206314
2022-09-06,0.42857142857142055
2022-09-07,0.5818181818181782
2022-09-08,0.21518987341772222
2022-09-09,0.14000000000000332
2022-09-13,0.3600000000000041
2022-09-14,0.42727272727273247
2022-09-15,0.31730769230769407
2022-09-16,0.8552036199095021
2022-09-19,0.9617224880382756
2022-09-20,0.8994974874371852
2022-09-21,0.8038277511961706
2022-09-22,0.8235294117647066
2022-09-23,0.06091370558375725
2022-09-26,0.14351851851851696
2022-09-27,0.14553990610328463
2022-09-28,0.18274111675126853
2022-09-29,0.1698113207547162
2022-09-30,0.5217391304347808
2022-10-10,0.2826086956521839
2022-10-11,0.31707317073171987
2022-10-12,0.1860465116279158
2022-10-13,0.6909090909090974
2022-10-14,0.8358208955223914
2022-10-17,0.5161290322580632
2022-10-18,0.5494505494505476
2022-10-19,0.7043478260869549
2022-10-20,0.6851851851851848
2022-10-21,0.6880733944954138
2022-10-24,1.0
2022-10-25,1.0
2022-10-26,0.7142857142857123
2022-10-27,0.4329896907216455
2022-10-28,0.2804878048780407
2022-10-31,0.33707865168539203
2022-11-01,0.3444444444444464
2022-11-02,0.5479452054794542
2022-11-03,0.919999999999996
2022-11-04,1.0
2022-11-07,0.6874999999999969
2022-11-08,0.5
2022-11-09,0.6142857142857152
2022-11-10,0.4683544303797503
2022-11-11,0.27472527472527614
2022-11-14,0.4888888888888927
2022-11-15,0.44897959183673447
2022-11-16,0.1727272727272729
2022-11-17,0.3090909090909081
2022-11-18,0.3434343434343425
2022-11-21,0.15463917525773152
2022-11-22,0.15463917525773213
2022-11-23,0.47058823529412086
2022-11-24,0.304878048780491
2022-11-25,0.34246575342465996
2022-11-28,0.367647058823529
2022-11-29,0.5999999999999989
2022-11-30,0.22666666666666702
2022-12-01,0.3611111111111106
2022-12-02,0.34666666666666746
2022-12-05,0.4218750000000025
2022-12-06,0.22916666666666974
2022-12-07,0.5000000000000094
2022-12-08,0.3888888888888927
2022-12-09,0.5384615384615409
2022-12-12,0.8757705630247178
2022-12-13,0.8975120683252884
2022-12-14,0.9700147375580981
2022-12-15,0.8977868747601361
2022-12-16,0.9382385513137236
2022-12-19,0.959600060500402
2022-12-20,0.9569816822493284
2022-12-21,0.8972732980536388
2022-12-22,0.912713039670087
2022-12-23,0.9010989010989034
2022-12-26,0.06578947368421453
2022-12-27,0.009999999999999962
2022-12-28,0.060606060606059095
2022-12-29,0.05882352941176306
2022-12-30,0.04424778761061804
2023-01-03,0.05747126436781422
2023-01-04,0.22857142857143228
2023-01-05,0.27027027027027245
2023-01-06,0.37662337662338075
2023-01-09,0.4264705882352994
2023-01-10,0.591836734693878
2023-01-11,0.4499999999999921
2023-01-12,0.3888888888888898
2023-01-13,0.13157894736842482
2023-01-16,0.4117647058823537
2023-01-17,0.7499999999999982
2023-01-18,0.6500000000000075
2023-01-19,0.485714285714292
2023-01-20,0.5666666666666745
2023-01-30,0.5094339622641546
2023-01-31,0.6666666666666666
2023-02-01,0.7894736842105243
2023-02-02,0.9897959183673473
2023-02-03,1.0
2023-02-06,0.875
2023-02-07,0.5111111111111138
2023-02-08,0.5217391304347865
2023-02-09,0.31531531531531815
2023-02-10,0.09909909909910058
2023-02-13,0.13402061855670624
2023-02-14,0.24528301886793072
2023-02-15,0.030303030303035876
2023-02-16,0.021505376344089985
2023-02-17,0.2298850574712629
2023-02-20,0.18367346938775062
2023-02-21,0.25252525252525054
2023-02-22,0.3333333333333299
2023-02-23,0.6904761904761867
2023-02-24,0.5806451612903261
2023-02-27,1.0
2023-02-28,1.0
2023-03-01,1.0
2023-03-02,0.9178082191780836
2023-03-03,0.6976744186046473
2023-03-06,0.7547169811320734
2023-03-07,0.2698412698412694
2023-03-08,0.2265625000000007
2023-03-09,0.34507042253521103
2023-03-10,0.5228758169934649
2023-03-13,0.3422818791946316
2023-03-14,0.6483516483516518
2023-03-15,0.7222222222222228
2023-03-16,0.7395833333333356
2023-03-17,0.37383177570093734
2023-03-20,0.47619047619047683
2023-03-21,0.4634146341463399
2023-03-22,0.443037974683546
2023-03-23,0.12328767123287335
2023-03-24,0.5599999999999901
2023-03-27,0.4912280701754317
2023-03-28,0.35483870967741443
2023-03-29,0.4202898550724607
2023-03-30,0.46774193548386894
2023-03-31,0.32653061224489544
2023-04-03,0.4782608695652183
2023-04-04,0.7450980392156866
2023-04-06,0.5957446808510658
2023-04-07,0.8636363636363674
2023-04-10,0.5333333333333391
2023-04-11,0.6410256410256452
2023-04-12,0.47222222222222854
2023-04-13,0.42500000000000654
2023-04-14,0.30863309352518453
2023-04-17,0.40653873489694964
2023-04-18,0.0
2023-04-19,0.2564741991175897
2023-04-20,0.4434227083534936
2023-04-21,0.7002002972152197
2023-04-24,0.7716849997263698
2023-04-25,1.0
2023-04-26,0.8854429895091507
2023-04-27,0.8817204301075272
2023-04-28,0.8035714285714287
2023-05-04,0.6363636363636268
2023-05-05,0.7599999999999918
2023-05-08,0.9807692307692218
2023-05-09,0.9090909090908966
2023-05-10,0.33695652173912755
2023-05-11,0.3548387096774217
2023-05-12,0.18518518518519106
2023-05-15,0.08333333333334182
2023-05-16,0.12500000000000971
2023-05-17,0.3750000000000243
2023-05-18,0.30434782608696753
2023-05-19,0.6666666666666711
2023-05-22,0.5517241379310277
2023-05-23,0.39393939393939137
2023-05-24,0.7999999999999954
2023-05-25,0.7096774193548328
2023-05-26,0.4492753623188393
2023-05-29,0.36046511627907407
2023-05-30,0.3229166666666692
2023-05-31,0.0
2023-06-01,0.07608695652174194
2023-06-02,0.08433734939759338
2023-06-05,0.1641791044776107
2023-06-06,0.23529411764705818
2023-06-07,0.4444444444444429
2023-06-08,0.10204081632652538
2023-06-09,0.15384615384614786
2023-06-12,0.4210526315789451
2023-06-13,0.3965517241379281
2023-06-14,0.48333333333333284
2023-06-15,0.9473684210526299
2023-06-16,0.9649122807017528
2023-06-19,0.45833333333333137
2023-06-20,0.5316455696202546
2023-06-21,0.5697674418604637
2023-06-26,0.5374999999999991
2023-06-27,0.31081081081081186
2023-06-28,0.6666666666666632
2023-06-29,0.5757575757575667
2023-06-30,0.14634146341463147
2023-07-03,0.46153846153846645
2023-07-04,0.6181818181818265
2023-07-05,0.7307692307692383
2023-07-06,0.7407407407407469
2023-07-07,1.0
2023-07-10,0.7532467532467491
2023-07-11,0.7199999999999985
2023-07-12,0.3768115942028925
2023-07-13,0.3676470588235308
2023-07-14,0.030769230769238428
2023-07-17,0.7874396135265729
2023-07-18,0.8426966292134842
2023-07-19,0.9221789883268487
2023-07-20,0.9283154121863801
2023-07-21,1.0
2023-07-24,0.49107142857142766
2023-07-25,0.3433333333333314
2023-07-26,0.3746031746031737
2023-07-27,0.30718954248366076
2023-07-28,0.09507042253521147
2023-07-31,0.5981308411214944
2023-08-01,0.6153846153846163
2023-08-02,0.45377936835033417
2023-08-03,0.5068264381428894
2023-08-04,0.5794582341262307
2023-08-07,0.054187799862920064
2023-08-08,0.11080507002550911
2023-08-09,0.24091810498527
2023-08-10,0.15897974278829144
2023-08-11,0.264207156666983
2023-08-14,0.7764786169244744
2023-08-15,0.6756756756756774
2023-08-16,0.590163934426228
2023-08-17,0.910112359550563
2023-08-18,0.7816091954023017
2023-08-21,0.38461538461538364
2023-08-22,0.47580645161290097
2023-08-23,0.5038759689922467
2023-08-24,0.15151515151515133
2023-08-25,0.268115942028985
2023-08-28,0.6619718309859158
2023-08-29,0.7090909090909094
2023-08-30,0.6894409937888185
2023-08-31,0.9846153846153818
2023-09-01,0.9834710743801622
2023-09-04,0.8857142857142797
2023-09-05,0.23364485981308133
2023-09-06,0.22727272727272668
2023-09-07,0.27966101694915146
2023-09-08,0.18656716417910435
2023-09-11,0.13513513513513495
2023-09-12,0.39007092198582105
2023-09-13,0.44897959183673597
2023-09-14,0.23428571428571587
2023-09-15,0.38888888888888856
2023-09-18,0.5923076923076933
2023-09-19,0.38524590163933986
2023-09-20,0.2903225806451603
2023-09-21,0.7348484848484841
2023-09-22,0.5396825396825405
2023-09-25,0.5671641791044764
2023-09-26,0.649572649572648
2023-09-27,0.7333333333333304
2023-09-28,0.15999999999999684
2023-10-09,0.5040650406504051
2023-10-10,0.7149532710280362
2023-10-11,0.7407407407407409
2023-10-12,0.8088737201365183
2023-10-13,1.0
2023-10-16,0.8996655518394642
2023-10-17,0.5158227848101262
2023-10-18,0.5
2023-10-19,0.3023255813953494
2023-10-20,0.0
2023-10-23,0.1690140845070424
2023-10-24,0.3313609467455648
2023-10-25,0.4086021505376344
2023-10-26,0.3348017621145377
2023-10-27,0.5779220779220773
2023-10-30,0.29710144927536053
2023-10-31,0.32167832167831706
2023-11-01,0.3356164383561625
2023-11-02,0.6097560975609735
2023-11-03,0.813953488372092
2023-11-06,1.0
2023-11-07,1.0
2023-11-08,0.8275862068965534
2023-11-09,0.8514851485148528
2023-11-10,0.4312500000000036
2023-11-13,0.30769230769230893
2023-11-14,0.2196969696969708
2023-11-15,0.26605504587155987
2023-11-16,0.0
2023-11-17,0.18032786885245736
2023-11-20,0.7142857142857159
2023-11-21,0.753246753246753
2023-11-22,0.8025477707006373
2023-11-23,1.0
2023-11-24,0.9056603773584907
2023-11-27,0.37262357414448527
2023-11-28,0.33163355464115163
2023-11-29,0.2870580683389293
2023-11-30,0.0
2023-12-01,0.0
2023-12-04,0.22360611073270967
2023-12-05,0.18443017656501387
2023-12-06,0.3572670807453456
2023-12-07,0.38628223495702785
2023-12-08,0.361125062782528
2023-12-11,0.2205882352941178
2023-12-12,0.386363636363633
2023-12-13,0.20588235294116633
2023-12-14,0.26923076923075107
2023-12-15,0.42857142857141456
2023-12-18,0.21052631578946657
2023-12-19,0.18918918918918562
2023-12-20,0.07692307692307816
2023-12-21,0.05769230769230925
2023-12-22,0.10909090909090234
2023-12-25,0.4259259259259261
2023-12-26,0.5156250000000062
2023-12-27,0.6031746031746013
2023-12-28,1.0
2023-12-29,0.6226415094339588
2024-01-02,0.5212765957446777
2024-01-03,0.3275862068965447
2024-01-04,0.5666666666666652
2024-01-05,0.403508771929824
2024-01-08,0.6242424242424244
2024-01-09,0.6902173913043471
2024-01-10,0.8518518518518519
2024-01-11,0.43125000000000063
2024-01-12,0.6666666666666685
2024-01-15,0.5714285714285741
2024-01-16,0.6010638297872356
2024-01-17,0.605263157894739
2024-01-18,0.9473684210526327
2024-01-19,0.6124031007751927
2024-01-22,0.6999999999999984
2024-01-23,0.3588235294117669
2024-01-24,0.275862068965519
2024-01-25,0.09134615384615459
2024-01-26,0.3378378378378379
2024-01-29,0.2533936651583699
2024-01-30,0.416666666666664
2024-01-31,0.47058823529411353
2024-02-01,0.8105263157894698
2024-02-02,0.22105263157894633
2024-02-05,0.22826086956521785
2024-02-06,0.2282608695652175
2024-02-07,0.4621212121212138
2024-02-08,0.763333333333334
2024-02-19,0.9411764705882361
2024-02-20,0.9958506224066397
2024-02-21,0.9040000000000018
2024-02-22,0.7389558232931742
2024-02-23,0.04489795918367538
2024-02-26,0.0
2024-02-27,0.0
2024-02-28,0.012345679012345987
2024-02-29,0.11946902654867295
2024-03-01,0.7222222222222215
2024-03-04,0.9294117647058807
2024-03-05,1.0
2024-03-06,0.9568965517241353
2024-03-07,0.9157894736842066
2024-03-08,0.4499999999999975
2024-03-11,0.5599999999999986
2024-03-12,0.22580645161290272
2024-03-13,0.3853211009174316
2024-03-14,0.6444444444444459
2024-03-15,0.8250000000000003
2024-03-18,0.6809815950920246
2024-03-19,0.8441558441558438
2024-03-20,0.8321678321678319
2024-03-21,0.267857142857141
2024-03-22,0.17901234567901167
2024-03-25,0.2922077922077916
2024-03-26,0.17808219178082274
2024-03-27,0.11267605633802799
2024-03-28,0.34782608695651945
2024-03-29,0.39024390243901985
2024-04-01,0.603174603174601
2024-04-02,0.5428795296418694
2024-04-03,0.411810446533911
2024-04-08,0.5336303864315747
2024-04-09,0.5279826029517138
2024-04-10,0.2312863648737817
2024-04-11,0.5055971049457194
2024-04-12,0.6802343509096582
2024-04-15,0.6375482122380968
2024-04-16,0.7917368632170072
2024-04-17,0.6396396396396414
2024-04-18,0.5604395604395606
2024-04-19,0.631067961165046
2024-04-22,0.7397260273972597
2024-04-23,0.8010471204188482
2024-04-24,0.9329268292682902
2024-04-25,0.8150289017341006
2024-04-26,0.8048780487804846
2024-04-29,0.5032679738562073
2024-04-30,0.028571428571428838
2024-05-06,0.06470588235294332
2024-05-07,0.07006369426751848
2024-05-08,0.03658536585366052
2024-05-09,0.038709677419356915
2024-05-10,0.29487179487179677
2024-05-13,0.3037974683544293
2024-05-14,0.5392156862745082
2024-05-15,0.48672566371681475
2024-05-16,0.6043956043956067
2024-05-17,0.3800000000000019
2024-05-20,0.2952380952380967
2024-05-21,0.443609022556391
2024-05-22,0.5714285714285711
2024-05-23,0.792349726775955
2024-05-24,0.9340659340659333
2024-05-27,1.0
2024-05-28,0.5020746887966798
2024-05-29,0.49367088607594967
2024-05-30,0.18348623853211155
2024-05-31,0.07425742574257656
2024-06-03,0.0922330097087407
2024-06-04,0.2555555555555623
2024-06-05,0.39090909090909587
2024-06-06,0.671875000000004
2024-06-07,0.8309859154929583
2024-06-11,0.5172413793103441
2024-06-12,0.5116279069767388
2024-06-13,0.2968749999999871
2024-06-14,0.34545454545453175
2024-06-17,0.12195121951218775
2024-06-18,0.6249999999999916
2024-06-19,0.7000000000000106
2024-06-20,0.21212121212122806
2024-06-21,0.5775862068965557
2024-06-24,0.5882352941176494
2024-06-25,0.5652173913043453
2024-06-26,0.5132743362831801
2024-06-27,0.9591836734693805
2024-06-28,0.6330935251798506
2024-07-01,0.6382978723404192
2024-07-02,0.5999999999999993
2024-07-03,0.6381578947368434
2024-07-04,0.1261261261261258
2024-07-05,0.39534883720930314
2024-07-08,0.23076923076923261
2024-07-09,0.33884297520661194
2024-07-10,0.44444444444444403
2024-07-11,0.5203252032520327
2024-07-12,0.3520000000000015
2024-07-15,0.5113636363636392
2024-07-16,0.41891891891892413
2024-07-17,0.014705882352944517
2024-07-18,0.09803921568627592
2024-07-19,0.17241379310344904
2024-07-22,0.10000000000000356
2024-07-23,0.3207547169811339
2024-07-24,0.7073170731707445
2024-07-25,0.6578947368421246
2024-07-26,0.7903225806451757
2024-07-29,0.9811237657338706
2024-07-30,0.9753816815816444
2024-07-31,0.6469771661547519
2024-08-01,0.6774214253621106
2024-08-02,0.10810024634346098
2024-08-05,0.26182307889073825
2024-08-06,0.20514488795045302
2024-08-07,0.251738033367225
2024-08-08,0.3624789028858893
2024-08-09,0.7457627118644036
2024-08-12,0.825581395348834
2024-08-13,0.9861111111111119
2024-08-14,0.8160919540229913
2024-08-15,0.6041666666666681
2024-08-16,0.44565217391304274
2024-08-19,0.0
2024-08-20,0.0
2024-08-21,0.13333333333333466
2024-08-22,0.16161616161616338
2024-08-23,0.3805309734513305
2024-08-26,0.8630136986301405
2024-08-27,0.9402985074626837
2024-08-28,0.7966101694915242
2024-08-29,0.7704918032786889
2024-08-30,0.2985074626865683
2024-09-02,0.0
2024-09-03,0.025974025974027645
2024-09-04,0.29473684210526196
2024-09-05,0.3118279569892449
2024-09-06,0.5441176470588203
2024-09-09,1.0
2024-09-10,1.0
2024-09-11,0.4406779661016941
2024-09-12,0.41666666666666535
2024-09-13,0.3035714285714288
2024-09-18,0.4868421052631588
2024-09-19,0.5666666666666698
2024-09-20,0.9210526315789493
2024-09-23,0.951807228915666
2024-09-24,1.0
2024-09-25,0.967032967032966
2024-09-26,0.6176470588235272
2024-09-27,0.741721854304635
2024-09-30,0.7833333333333329
2024-10-08,0.7989690721649486
2024-10-09,0.7487922705314014
2024-10-10,0.9106145251396648
2024-10-11,0.6209150326797411
2024-10-14,0.35849056603773777
2024-10-15,0.052980132450331244
2024-10-16,0.23030303030303162
2024-10-17,0.3060109289617494
2024-10-18,0.3274853801169584
2024-10-21,0.4496124031007732
2024-10-22,0.4296296296296274
2024-10-23,0.22399999999999723
2024-10-24,0.014285714285713064
2024-10-25,0.017543859649121446
2024-10-28,0.08196721311475565
2024-10-29,0.22619047619047863
2024-10-30,0.7383720930232586
2024-10-31,0.9781420765027352
2024-11-01,1.0
2024-11-04,1.0
2024-11-05,1.0
2024-11-06,0.6976744186046508
2024-11-07,0.5524475524475523
2024-11-08,0.1713147410358567
2024-11-11,0.10465116279069772
2024-11-12,0.06097560975609664
2024-11-13,0.07812499999999886
2024-11-14,0.2307692307692286
2024-11-15,0.35294117647058443
2024-11-18,0.4545454545454536
2024-11-19,0.22222222222222288
2024-11-20,0.2857142857142851
2024-11-21,0.02678571428571754
2024-11-22,0.030612244897962913
2024-11-25,0.0
2024-11-26,0.166666666666669
2024-11-27,0.2400000000000092
2024-11-28,0.36522753792299834
2024-11-29,0.25821531692562555
2024-12-02,0.2702006129841246
2024-12-03,0.22656134652296178
2024-12-04,0.29670403436933357
2024-12-05,0.6920480786310628
2024-12-06,0.9487012987013013
2024-12-09,0.901473224725237
2024-12-10,0.8954161840145672
2024-12-11,0.6750000000000018
2024-12-12,0.13793103448275196
2024-12-13,0.13793103448275332
2024-12-16,0.13793103448275196
2024-12-17,0.0
2024-12-18,0.04347826086956311
2024-12-19,0.16666666666668248
2024-12-20,0.2000000000000057
2024-12-23,0.4000000000000114
2024-12-24,0.16000000000001016
2024-12-25,0.11111111111112291
2024-12-26,0.19999999999999635
2024-12-27,0.12765957446808354
2024-12-30,0.17999999999999095
2024-12-31,0.4736842105263059
