date,FCT_Cr_Atr_Dfive
2019-04-30,
2019-05-06,
2019-05-07,
2019-05-08,
2019-05-09,
2019-05-10,
2019-05-13,
2019-05-14,
2019-05-15,
2019-05-16,
2019-05-17,0.19600459902270767
2019-05-20,-0.3056320783593511
2019-05-21,-0.43235803051753974
2019-05-22,-0.26672924187725633
2019-05-23,-0.1765359961627349
2019-05-24,0.22937318567895923
2019-05-27,0.22083081368003762
2019-05-28,0.25384898279868273
2019-05-29,-0.15613495565360788
2019-05-30,0.19962387964148526
2019-05-31,-0.3784906754275775
2019-06-03,-0.05803287380699893
2019-06-04,-0.19097392832149612
2019-06-05,0.09793006579433725
2019-06-06,-0.10358323951590206
2019-06-10,0.14785887422569352
2019-06-11,-0.28408385093167704
2019-06-12,0.04911751774386031
2019-06-13,0.24010544647756282
2019-06-14,-0.015275521360185553
2019-06-17,-0.0015397536394176937
2019-06-18,0.34579493087557606
2019-06-19,0.046934865900383135
2019-06-20,-0.35816846573818684
2019-06-21,-0.12410569916052008
2019-06-24,-0.0922559260747288
2019-06-25,-0.2954201513341298
2019-06-26,-0.0832475553268142
2019-06-27,0.2800294090616671
2019-06-28,0.19699584531799297
2019-07-01,0.05039519016415591
2019-07-02,0.21356348807329198
2019-07-03,0.14853990914990267
2019-07-04,-0.28287841191067
2019-07-05,-0.18623832308042837
2019-07-08,0.07051099057950327
2019-07-09,-0.030467571644042235
2019-07-10,-0.028227764290443616
2019-07-11,0.20724421209858104
2019-07-12,0.11465614182082773
2019-07-15,-0.07591003255401006
2019-07-16,-0.04799225931301403
2019-07-17,-0.035881357619189806
2019-07-18,-0.08252427184466019
2019-07-19,-0.03960829493087558
2019-07-22,0.011978894329039314
2019-07-23,0.0008937437934458808
2019-07-24,-0.05898424943747991
2019-07-25,-0.0398393036491463
2019-07-26,0.09055555555555556
2019-07-29,-0.0780232100112111
2019-07-30,0.03684210526315789
2019-07-31,-0.1056583818085669
2019-08-01,0.191102921821532
2019-08-02,-0.13038548752834467
2019-08-05,0.277390780873753
2019-08-06,0.43478260869565216
2019-08-07,0.3106828655215752
2019-08-08,-0.013523172370414838
2019-08-09,0.16604614818900532
2019-08-12,-0.14976780185758515
2019-08-13,-0.6353814110908618
2019-08-14,-0.2607130697018337
2019-08-15,-0.2550577468540893
2019-08-16,-0.2235691573926868
2019-08-19,-0.24874499309090273
2019-08-20,0.272541248438375
2019-08-21,0.19211723600532893
2019-08-22,0.12792499612583294
2019-08-23,0.08203847576766556
2019-08-26,0.43985482845063045
2019-08-27,-0.1097802838810033
2019-08-28,-0.17151798506899932
2019-08-29,0.08600318109520563
2019-08-30,0.12502710908696596
2019-09-02,-0.36420299606898754
2019-09-03,0.4788316266577136
2019-09-04,0.1920282836110035
2019-09-05,0.11928576543887709
2019-09-06,0.09250047107593744
2019-09-09,0.16150934326743976
2019-09-10,-0.6635212613473482
2019-09-11,0.02651699768490315
2019-09-12,-0.33630313829593805
2019-09-16,-0.2661142136551973
2019-09-17,-0.059057275966018084
2019-09-18,0.2647215653544767
2019-09-19,-0.2759760232328579
2019-09-20,0.11651384235584553
2019-09-23,0.15255963548646476
2019-09-24,0.036585365853658534
2019-09-25,-0.06534224097515237
2019-09-26,0.07534969395782566
2019-09-27,0.08378028924432526
2019-09-30,-0.16476964769647695
2019-10-08,0.24456521739130435
2019-10-09,-0.011786349668445738
2019-10-10,-0.01509725290043104
2019-10-11,-0.08031807156610238
2019-10-14,0.055273547659334454
2019-10-15,-0.44348994857410007
2019-10-16,0.041645907212567036
2019-10-17,0.681447963800905
2019-10-18,0.14622331691297208
2019-10-21,0.07076293658610501
2019-10-22,0.1327482605945604
2019-10-23,0.3200602441473339
2019-10-24,-0.8403560830860534
2019-10-25,-0.22604166666666667
2019-10-28,0.06840796019900497
2019-10-29,0.1430995475113122
2019-10-30,-0.6463205257237582
2019-10-31,0.23483122120760036
2019-11-01,0.13159722222222223
2019-11-04,0.05797101449275362
2019-11-05,-0.05787545787545788
2019-11-06,0.42235261049820816
2019-11-07,0.02247401442082592
2019-11-08,0.0023756638071891385
2019-11-11,-0.3449725432189772
2019-11-12,-0.10104834187245834
2019-11-13,-0.09225320337726045
2019-11-14,0.06500292339136972
2019-11-15,-0.060130880953269863
2019-11-18,0.18787872170867886
2019-11-19,0.2905568725574632
2019-11-20,-0.006125756179433873
2019-11-21,-0.17446308914960307
2019-11-22,0.05009610171997579
2019-11-25,0.001435406698568108
2019-11-26,-0.4221483827423318
2019-11-27,-0.029116136785753678
2019-11-28,0.03554898789940451
2019-11-29,0.1330878999152925
2019-12-02,0.03189792663476262
2019-12-03,0.16201302490628314
2019-12-04,-0.03546089803221114
2019-12-05,0.050780572630728396
2019-12-06,-0.1597636014897843
2019-12-09,0.12776171957685348
2019-12-10,0.10905047247124194
2019-12-11,0.03841312562212021
2019-12-12,0.0006258971301727747
2019-12-13,-0.17224494712107158
2019-12-16,-0.323387771006798
2019-12-17,-0.11580459770114665
2019-12-18,0.021739130434778785
2019-12-19,-0.0032940019665649344
2019-12-20,0.11292897047088025
2019-12-23,0.16846680716544193
2019-12-24,0.13600323624594762
2019-12-25,-0.04504504504504268
2019-12-26,0.04658540657871868
2019-12-27,0.08051948051946728
2019-12-30,0.14475051975052583
2019-12-31,-0.06179688703960137
2020-01-02,-0.009642454954950315
2020-01-03,-0.02120692343675736
2020-01-06,0.15351071692535792
2020-01-07,0.13759213759212716
2020-01-08,0.06654456654456285
2020-01-09,0.09529663705583037
2020-01-10,0.24200765974601002
2020-01-13,-0.13546984307052057
2020-01-14,-0.4312178387650063
2020-01-15,-0.13174493667766982
2020-01-16,-0.017024231395454562
2020-01-17,-0.5073845116331316
2020-01-20,-0.06394159889665878
2020-01-21,0.024732604254295548
2020-01-22,0.1596214719071512
2020-01-23,-0.08318755466699936
2020-02-03,0.7347634192250243
2020-02-04,0.20268659320210416
2020-02-05,0.16221324633628578
2020-02-06,-0.21306091606603456
2020-02-07,0.03757621728855917
2020-02-10,-0.7742037812460317
2020-02-11,-0.52030715699802
2020-02-12,-0.05786704925872692
2020-02-13,0.07246376811594717
2020-02-14,0.09494309838471741
2020-02-17,0.3368319776086698
2020-02-18,0.3173933427098032
2020-02-19,-0.07635746606334268
2020-02-20,0.28836754643206053
2020-02-21,-0.14983974358973312
2020-02-24,-0.06706220783889849
2020-02-25,0.27288609364080213
2020-02-26,0.17447152084555723
2020-02-27,-0.15806451612903386
2020-02-28,0.2197802197802245
2020-03-02,0.26851851851851816
2020-03-03,-0.28584905660376947
2020-03-04,-0.07827166806676342
2020-03-05,-0.27874396135265805
2020-03-06,-0.21344537815126946
2020-03-09,-0.3449367088607631
2020-03-10,-0.03391608391608603
2020-03-11,0.13934037035684657
2020-03-12,0.3341493667580653
2020-03-13,0.09982800137599306
2020-03-16,-0.09824510932105474
2020-03-17,0.15433861912735702
2020-03-18,-0.26134993973483067
2020-03-19,-0.034193284193292636
2020-03-20,0.2950845582424496
2020-03-23,0.19318181818181207
2020-03-24,0.19998562805403294
2020-03-25,0.34844641724793113
2020-03-26,-0.06840684068406053
2020-03-27,-0.41836821147165826
2020-03-30,0.10380622837370544
2020-03-31,-0.45222634508348647
2020-04-01,-0.2781701518718553
2020-04-02,-0.24872364787499546
2020-04-03,0.11434845567525671
2020-04-07,-0.23675220409122033
2020-04-08,0.32404987268854024
2020-04-09,-0.08272293646859528
2020-04-10,0.3240876147238708
2020-04-13,-0.09796213405259763
2020-04-14,0.07800092077246094
2020-04-15,-0.24106890017268578
2020-04-16,0.15047723136415847
2020-04-17,-0.29483591404360043
2020-04-20,0.023811411678524103
2020-04-21,0.08746538014831612
2020-04-22,0.16970335103461226
2020-04-23,-0.10939278937381623
2020-04-24,0.5027322404371737
2020-04-27,0.30537989617744377
2020-04-28,-0.03742228598756883
2020-04-29,-0.06101392498351495
2020-04-30,0.10781922525108234
2020-05-06,-0.47198790386759426
2020-05-07,-0.5773764389605087
2020-05-08,0.07990196078430493
2020-05-11,-0.2191545423301678
2020-05-12,0.014729794356766905
2020-05-13,0.12630694548170915
2020-05-14,0.3743863859496152
2020-05-15,-0.22314814814813877
2020-05-18,0.2745197168857438
2020-05-19,-0.029811924769906968
2020-05-20,-0.16564234734337646
2020-05-21,-0.02354368932039951
2020-05-22,0.4530261969286252
2020-05-25,-0.1399837464445317
2020-05-26,0.020305091733649597
2020-05-27,0.1352577319587509
2020-05-28,0.07916666666667259
2020-05-29,-0.3426138978370781
2020-06-01,0.2120212571009766
2020-06-02,0.041623127830042794
2020-06-03,0.023606557377064602
2020-06-04,-0.16250000000000758
2020-06-05,-0.13925530138588488
2020-06-08,-0.25553447185326533
2020-06-09,-0.01513877207738977
2020-06-10,0.26345226615235123
2020-06-11,0.12437106918240062
2020-06-12,0.15044247787610796
2020-06-15,0.0910068426197522
2020-06-16,0.0007978117164406315
2020-06-17,-0.4002119766825614
2020-06-18,-0.19369731031714726
2020-06-19,0.03874379451759914
2020-06-22,0.3525739320919996
2020-06-23,-0.11011045029737199
2020-06-24,0.6433492315845213
2020-06-29,0.18029115341545263
2020-06-30,0.0565548780487718
2020-07-01,-0.45395617557951606
2020-07-02,0.14655277608298828
2020-07-03,-0.7651960784313665
2020-07-06,-0.18194192377495688
2020-07-07,-0.15785891089108728
2020-07-08,0.1721332316298131
2020-07-09,-0.2925755033557097
2020-07-10,0.568333333333328
2020-07-13,0.16023817987913408
2020-07-14,0.12910891089109036
2020-07-15,0.07190635451504175
2020-07-16,0.2532327586206931
2020-07-17,0.1733333333333386
2020-07-20,0.15089034676663754
2020-07-21,-0.04480769230769088
2020-07-22,-0.04775176514307264
2020-07-23,0.0831643002028351
2020-07-24,-0.6124156545209204
2020-07-27,-0.22447221025420067
2020-07-28,0.03946115765422313
2020-07-29,-0.12026442918891073
2020-07-30,-0.183303624480096
2020-07-31,-0.03262939052412503
2020-08-03,0.00975929159390932
2020-08-04,-0.08907523405401283
2020-08-05,0.1173797803862203
2020-08-06,0.43727818727819295
2020-08-07,0.24241778724537055
2020-08-10,0.31993177387914684
2020-08-11,0.17312680467870473
2020-08-12,-0.06474820143885344
2020-08-13,-0.5581167984704993
2020-08-14,0.0031542670223361213
2020-08-17,-0.5603760105282956
2020-08-18,-0.2989948595467505
2020-08-19,-0.19453834426989886
2020-08-20,0.3040302092950322
2020-08-21,-0.21464481304192556
2020-08-24,0.42889452904681324
2020-08-25,0.22516161844732213
2020-08-26,0.22521319089566677
2020-08-27,-0.2961064610175862
2020-08-28,0.053248238601872805
2020-08-31,-0.23555555555555924
2020-09-01,-0.027480490523975432
2020-09-02,-0.030674846625766788
2020-09-03,0.6144688644688675
2020-09-04,0.18944099378881674
2020-09-07,0.13434782608696205
2020-09-08,-0.027700582698334537
2020-09-09,0.3072916666666645
2020-09-10,-0.5872918582081975
2020-09-11,-0.16566063044936152
2020-09-14,-0.10485287659200968
2020-09-15,0.06881991664838724
2020-09-16,-0.6037740787269649
2020-09-17,0.2299658508821848
2020-09-18,0.08366756832385187
2020-09-21,-0.014854426619132485
2020-09-22,-0.079489659276893
2020-09-23,0.3607681263460143
2020-09-24,0.022099712368173874
2020-09-25,0.01724277176546487
2020-09-28,0.10086243570406292
2020-09-29,0.02097902097901755
2020-09-30,-0.06428571428571393
2020-10-09,-0.06638542665388533
2020-10-12,-0.030487804878048756
2020-10-13,-0.01892837294451917
2020-10-14,0.2119565217391329
2020-10-15,0.04035874439462046
2020-10-16,-0.13342364532019893
2020-10-19,-0.06220095693780033
2020-10-20,-0.06759499379862616
2020-10-21,-0.46464469378214096
2020-10-22,-0.15546665806368615
2020-10-23,-0.03907345107933581
2020-10-26,0.35465378712648127
2020-10-27,0.036421868017278904
2020-10-28,0.5267622461170864
2020-10-29,0.1267358206458086
2020-10-30,0.2933837959069222
2020-11-02,-0.43175631277574533
2020-11-03,0.026159233787603736
2020-11-04,-0.4740740740740793
2020-11-05,0.04551495016611651
2020-11-06,-0.3240913327120196
2020-11-09,0.2856449460016979
2020-11-10,0.02390029926618757
2020-11-11,0.18630136986301848
2020-11-12,-0.1404761904761939
2020-11-13,0.1840704340704306
2020-11-16,-0.19858026938478107
2020-11-17,0.0747752275646359
2020-11-18,-0.0004857670261341016
2020-11-19,0.18405275779376562
2020-11-20,0.11556743909685284
2020-11-23,-0.0055646622379450575
2020-11-24,-0.10410125114728655
2020-11-25,0.001989275211898409
2020-11-26,-0.1994848565591948
2020-11-27,-0.24715731041275074
2020-11-30,0.37563292557243144
2020-12-01,0.017394442439549133
2020-12-02,0.09265489206616295
2020-12-03,0.1732335172051444
2020-12-04,0.0768343957683455
2020-12-07,-0.544633581075678
2020-12-08,-0.22352941176470137
2020-12-09,-0.06379310344827444
2020-12-10,0.4583188001395222
2020-12-11,0.5422777571874831
2020-12-14,0.3228895329640075
2020-12-15,0.23246753246753077
2020-12-16,-0.06348689542078745
2020-12-17,-0.710150823651224
2020-12-18,-0.867154285743019
2020-12-21,-0.17051319443535098
2020-12-22,0.0370379194470967
2020-12-23,0.21989715183104178
2020-12-24,0.10086120616488649
2020-12-25,0.3585633291882615
2020-12-28,0.2351420708969723
2020-12-29,-0.03873622114539954
2020-12-30,-0.2725794106391117
2020-12-31,0.05440328472661875
2021-01-04,0.05676461739043262
2021-01-05,-0.370391705069134
2021-01-06,-0.16002093144950377
2021-01-07,0.16200248756219415
2021-01-08,0.2573935651608766
2021-01-11,0.08010492332526492
2021-01-12,0.2096774193548508
2021-01-13,0.14504117436448613
2021-01-14,-0.08840673575129906
2021-01-15,-0.4108260325406746
2021-01-18,-0.26643625192012743
2021-01-19,0.022388059701476126
2021-01-20,-0.06688436419515915
2021-01-21,-0.09717018732563351
2021-01-22,0.22816349384098042
2021-01-25,0.10215053763440776
2021-01-26,-0.10859495625320077
2021-01-27,0.08883073956754957
2021-01-28,0.14125874125874915
2021-01-29,-0.1329887218045139
2021-02-01,0.11100323624596246
2021-02-02,0.0862068965517183
2021-02-03,-0.09178990311065083
2021-02-04,0.010389610389605907
2021-02-05,0.2192460317460379
2021-02-08,-0.19149104112401066
2021-02-09,0.2018348623853203
2021-02-10,0.12275634413037831
2021-02-18,0.021428571428568178
2021-02-19,-0.20011337868480442
2021-02-22,0.36019794980558384
2021-02-23,-0.2250906763388126
2021-02-24,-0.08655943293347468
2021-02-25,-0.08636363636362845
2021-02-26,0.6461301501732722
2021-03-01,-0.2979641131815016
2021-03-02,0.12785832441374692
2021-03-03,0.06331168831169182
2021-03-04,0.05085638998681932
2021-03-05,-0.924191374663073
2021-03-08,-0.029493779493774568
2021-03-09,-0.19283780457790317
2021-03-10,-0.1099706744868001
2021-03-11,0.17861069465267873
2021-03-12,0.3335053674649056
2021-03-15,0.08689503456944334
2021-03-16,0.2038422305338335
2021-03-17,0.18368711348820696
2021-03-18,-0.2995849297573465
2021-03-19,0.1664021084788406
2021-03-22,0.08793604651163307
2021-03-23,-0.29519877315087895
2021-03-24,-0.15897197948082806
2021-03-25,0.15829495298407215
2021-03-26,-0.1951045202787199
2021-03-29,-0.22640306122448894
2021-03-30,0.16782713085234147
2021-03-31,0.11122956645344267
2021-04-01,-0.18514680483592355
2021-04-02,-0.07449160035367164
2021-04-06,0.3340919101453503
2021-04-07,0.04119638110541487
2021-04-08,-0.2900491851727571
2021-04-09,0.2784809913216011
2021-04-12,0.08810639552483908
2021-04-13,-0.34889797753485735
2021-04-14,-0.10405854089470484
2021-04-15,0.2750722266474174
2021-04-16,-0.25965147478216377
2021-04-19,0.07259210138055068
2021-04-20,0.09827880074514408
2021-04-21,0.2556613484302657
2021-04-22,-0.10024723334118738
2021-04-23,0.09923664122137563
2021-04-26,-0.028468323977540212
2021-04-27,0.4582712369597575
2021-04-28,-0.218668891360776
2021-04-29,0.1108347265832092
2021-04-30,0.1147436153630974
2021-05-06,0.0005537098560344025
2021-05-07,-0.57653276955602
2021-05-10,0.004114855529526444
2021-05-11,0.23931927535764083
2021-05-12,-0.015405643330400579
2021-05-13,-0.019727891156463433
2021-05-14,0.134921535261862
2021-05-17,0.10914980517346737
2021-05-18,-0.45870213150289163
2021-05-19,-0.11632886097630583
2021-05-20,0.13877551020408302
2021-05-21,0.12418699186991772
2021-05-24,0.09994226698312851
2021-05-25,0.19455154220779272
2021-05-26,0.11637021404883914
2021-05-27,-0.18308702791461479
2021-05-28,-0.1066367265469045
2021-05-31,-0.360982853430474
2021-06-01,-0.13922271758092752
2021-06-02,-0.0717154553178344
2021-06-03,-0.08630072718742782
2021-06-04,0.01497005988023896
2021-06-07,0.29288696986052326
2021-06-08,0.11389256250393673
2021-06-09,-0.26550872740989667
2021-06-10,0.2654195011337885
2021-06-11,-0.14146341463414597
2021-06-15,-0.23247663551401848
2021-06-16,0.041563921310758555
2021-06-17,0.2592470025201746
2021-06-18,-0.2852303523035238
2021-06-21,0.6057491289198591
2021-06-22,0.154268292682926
2021-06-23,-0.1437496153135989
2021-06-24,0.03013446072665956
2021-06-25,0.08634146341463297
2021-06-28,-0.6983282674772032
2021-06-29,-0.022323848238481447
2021-06-30,0.14048047066514358
2021-07-01,-0.049341325476647685
2021-07-02,0.07324503311258743
2021-07-05,0.13600333750521623
2021-07-06,-0.09390096618357646
2021-07-07,-0.023426382047075138
2021-07-08,0.05922574157867816
2021-07-09,0.030872613946235028
2021-07-12,0.0628279480806396
2021-07-13,0.10885433195811083
2021-07-14,0.21825396825397067
2021-07-15,-0.0004395604395580552
2021-07-16,0.08156541305046844
2021-07-19,0.13229864624641124
2021-07-20,0.44712873845358675
2021-07-21,-0.3253012048192779
2021-07-22,0.04874825500232641
2021-07-23,-0.14651639344262302
2021-07-26,-0.06374091757216366
2021-07-27,-0.6370830671026668
2021-07-28,0.051043774207024134
2021-07-29,-0.08749924384397477
2021-07-30,0.02473070028652202
2021-08-02,0.055261133868096425
2021-08-03,0.14712628587196172
2021-08-04,0.00525505531534063
2021-08-05,-0.02391244941501003
2021-08-06,-0.06301066744579925
2021-08-09,-0.18808403472728574
2021-08-10,0.012209302325581135
2021-08-11,0.0248674779362087
2021-08-12,0.08983544991846563
2021-08-13,0.15965677875348017
2021-08-16,0.04268631633378613
2021-08-17,-0.020074881285767822
2021-08-18,-0.02473302716759857
2021-08-19,-0.028930253420048825
2021-08-20,-0.10580663615560627
2021-08-23,0.19171075837742524
2021-08-24,-0.010831228108712659
2021-08-25,0.4339164682176227
2021-08-26,-0.13829566659755352
2021-08-27,0.14730861244019058
2021-08-30,-0.18633025349443375
2021-08-31,0.07109557109556958
2021-09-01,-0.6997943064011847
2021-09-02,0.11329696861307305
2021-09-03,-0.24669661733615075
2021-09-06,0.26439663156081117
2021-09-07,-0.0036312723678883878
2021-09-08,0.3722457627118643
2021-09-09,-0.009378801910261667
2021-09-10,0.07808569789506097
2021-09-13,-0.29485835801625254
2021-09-14,-0.14036379837877475
2021-09-15,-0.1808014354066993
2021-09-16,-0.09928830659428249
2021-09-17,-0.011115694524653382
2021-09-22,-0.05367082364545793
2021-09-23,0.17175998875548404
2021-09-24,0.06369617224880608
2021-09-27,0.5710656947363679
2021-09-28,0.20930587337910006
2021-09-29,0.27812029367469715
2021-09-30,0.01427082402692284
2021-10-08,0.40062437143814694
2021-10-11,-0.48135593220338596
2021-10-12,-0.1751090345163032
2021-10-13,-0.02136600378787805
2021-10-14,-0.04231924231924479
2021-10-15,-0.5615433018286405
2021-10-18,0.1220423412204206
2021-10-19,0.1610869842644849
2021-10-20,-0.1020366657950561
2021-10-21,0.016792391204433866
2021-10-22,0.2677234754155333
2021-10-25,-0.2270423412204225
2021-10-26,-0.1697069467609963
2021-10-27,-0.0832659360956697
2021-10-28,0.1232209663315837
2021-10-29,-0.11761200757651952
2021-11-01,0.08080645161290437
2021-11-02,-0.055847966716427604
2021-11-03,-0.053150898631740245
2021-11-04,-0.44798410300676217
2021-11-05,0.004918898548879391
2021-11-08,0.10899354838709609
2021-11-09,-0.08838993312042463
2021-11-10,0.20115746322642816
2021-11-11,0.2832373271889394
2021-11-12,0.03389126305792904
2021-11-15,-0.23247255216693508
2021-11-16,0.13750979117710757
2021-11-17,-0.08775485550917375
2021-11-18,0.0584185560544195
2021-11-19,-0.08342402203134672
2021-11-22,0.09013740904138959
2021-11-23,0.15879719098578868
2021-11-24,-0.07074819839987245
2021-11-25,-0.15368011567167866
2021-11-26,0.29945153740096603
2021-11-29,0.004565640717841449
2021-11-30,-0.30098174842458336
2021-12-01,0.016001111407102454
2021-12-02,-0.05711280006708401
2021-12-03,-0.4405556045333853
2021-12-06,0.16985261929082407
2021-12-07,0.17845880961765961
2021-12-08,0.06430014430014394
2021-12-09,0.498195474053854
2021-12-10,0.5244499809974228
2021-12-13,-0.11364687092842961
2021-12-14,0.053525881470368075
2021-12-15,-0.022280550774523233
2021-12-16,-0.48703536126967406
2021-12-17,-0.5337175578195885
2021-12-20,-0.04258809780654172
2021-12-21,0.05674310143801062
2021-12-22,0.10630985480383029
2021-12-23,0.05829204576164346
2021-12-24,0.30546192435601244
2021-12-27,0.0016534391534391638
2021-12-28,-0.3792572351260729
2021-12-29,-0.1696333969061254
2021-12-30,0.14233885170835003
2021-12-31,-0.24422099763830185
2022-01-04,0.8336167800453484
2022-01-05,0.437152452358638
2022-01-06,0.08947447169927523
2022-01-07,-0.007323959675587112
2022-01-10,0.20853697452175696
2022-01-11,-1.113837442491445
2022-01-12,-0.4504365690806367
2022-01-13,-0.02687573081916049
2022-01-14,0.05582519766880797
2022-01-17,-0.010695460624654561
2022-01-18,0.2587931111342259
2022-01-19,0.31674307678058733
2022-01-20,0.08742093641229
2022-01-21,-0.2697093072915179
2022-01-24,-0.0006957047791912481
2022-01-25,0.10126079547095591
2022-01-26,-0.059998821675284156
2022-01-27,-0.18697769621682792
2022-01-28,0.22303211351755006
2022-02-07,-0.0719798602139845
2022-02-08,0.2699863806605403
2022-02-09,0.0473472233461794
2022-02-10,0.10351449275362512
2022-02-11,0.006632016632015694
2022-02-14,0.028026993879856816
2022-02-15,-0.4620141457400575
2022-02-16,0.09927807284425202
2022-02-17,0.15050147492625346
2022-02-18,-0.25914922704805904
2022-02-21,-0.01722179693089607
2022-02-22,0.11763486910271581
2022-02-23,-0.31802622230833694
2022-02-24,-0.24966814159292067
2022-02-25,0.4911629308927478
2022-02-28,0.08400825994377258
2022-03-01,-0.05021616228799655
2022-03-02,0.25813886488043636
2022-03-03,0.12031249999999993
2022-03-04,-0.5027204571095817
2022-03-07,0.11494960175418956
2022-03-08,0.38995345118085745
2022-03-09,0.006094077318607699
2022-03-10,0.05078124999999946
2022-03-11,0.24619792709555155
2022-03-14,-0.22052565848586242
2022-03-15,-0.49626427110570437
2022-03-16,-0.11239553229711953
2022-03-17,-0.09887811018957314
2022-03-18,-0.05475376975992067
2022-03-21,0.10193757713458196
2022-03-22,0.19830885625278125
2022-03-23,-0.12801060777323603
2022-03-24,0.04866424845772995
2022-03-25,-0.006142060805034994
2022-03-28,-0.15422844075595454
2022-03-29,-0.09785188523359009
2022-03-30,0.24908598289482164
2022-03-31,-0.09698748320486458
2022-04-01,-0.023641889812249163
2022-04-06,0.11564194022932944
2022-04-07,0.35356105062017723
2022-04-08,-0.0962584667261321
2022-04-11,0.17145441546355794
2022-04-12,0.15875798649922818
2022-04-13,0.010758389859286902
2022-04-14,-0.3959517610492872
2022-04-15,-0.023545309761322703
2022-04-18,0.084678952669027
2022-04-19,-0.21675099606508488
2022-04-20,-0.02408787225876896
2022-04-21,0.33464999007009455
2022-04-22,0.0488271505429603
2022-04-25,-0.24936210054118563
2022-04-26,0.11010653613590457
2022-04-27,0.11229646266142618
2022-04-28,-0.2795125992800416
2022-04-29,-0.02873828776793839
2022-05-05,0.09871396447611006
2022-05-06,-0.06510914667147685
2022-05-09,-0.19406737053795758
2022-05-10,0.03721209079248295
2022-05-11,0.01626437052024199
2022-05-12,-0.20947022972339255
2022-05-13,0.038543530397045736
2022-05-16,0.08533042846768236
2022-05-17,0.15638172691660332
2022-05-18,-0.08219728456636269
2022-05-19,0.2105566644488781
2022-05-20,0.015056664867782144
2022-05-23,0.07634827810266386
2022-05-24,-0.20817635678647844
2022-05-25,0.0512012012011999
2022-05-26,-0.021031556518863483
2022-05-27,0.06180995475113102
2022-05-30,-0.19409474695384027
2022-05-31,-0.031546591889560355
2022-06-01,0.13338057158282016
2022-06-02,-0.037336555741464154
2022-06-06,-0.19751686909581567
2022-06-07,0.17633866319605818
2022-06-08,0.09872202056866465
2022-06-09,-0.2143203348755221
2022-06-10,0.057871289312338134
2022-06-13,0.25857992621037373
2022-06-14,-0.014396541150495462
2022-06-15,0.17683465959327854
2022-06-16,0.2924369747899149
2022-06-17,-0.006800582241630288
2022-06-20,0.06121824996886058
2022-06-21,-0.0934551861937565
2022-06-22,-0.179667750090285
2022-06-23,-0.284452094090649
2022-06-24,0.10901418439716255
2022-06-27,-0.21610188080898057
2022-06-28,0.1871396895787138
2022-06-29,-0.008661162376558229
2022-06-30,0.03147590361445801
2022-07-01,-0.02444275582573363
2022-07-04,-0.013002168749354108
2022-07-05,-0.04573446639443726
2022-07-06,0.13239942528735732
2022-07-07,0.10993833017077813
2022-07-08,-0.1821946169772269
2022-07-11,-0.006504485852311961
2022-07-12,-0.3105050752109587
2022-07-13,-0.16494079535299438
2022-07-14,-0.050311893389168715
2022-07-15,0.21663951885728738
2022-07-18,0.007369614512471
2022-07-19,0.2510574234712187
2022-07-20,-0.020908634792017156
2022-07-21,-0.013221014678528332
2022-07-22,-0.3412128398779781
2022-07-25,0.22956694132144645
2022-07-26,-0.023950679505464166
2022-07-27,0.15176255071238695
2022-07-28,0.021094577896918227
2022-07-29,0.13690297708818117
2022-08-01,-0.3875381943387821
2022-08-02,0.0409037414360367
2022-08-03,-0.20165030005455586
2022-08-04,0.021022304832714413
2022-08-05,0.04201817001946656
2022-08-08,0.21496315090008572
2022-08-09,-0.1317135549872146
2022-08-10,0.11765922249793317
2022-08-11,-0.19063135833065442
2022-08-12,0.12620475476547333
2022-08-15,-0.1178256908594012
2022-08-16,0.0732352941176499
2022-08-17,0.01508514819060008
2022-08-18,0.256445788191817
2022-08-19,0.018553473596983255
2022-08-22,0.13691422514952098
2022-08-23,-0.07406882591093365
2022-08-24,0.01840947546531399
2022-08-25,-0.06990691013247333
2022-08-26,-0.240904897517151
2022-08-29,-0.09692842654303034
2022-08-30,0.20425207198423262
2022-08-31,-0.01802816901408545
2022-09-01,0.04882489241972918
2022-09-02,0.14197122383770439
2022-09-05,-0.036538873420435
2022-09-06,-0.11999093838099281
2022-09-07,0.07232768592229905
2022-09-08,-0.24722530521642447
2022-09-09,-0.1450839908989656
2022-09-13,0.23489268024215787
2022-09-14,0.06591880341880461
2022-09-15,-0.10951766699547638
2022-09-16,1.0289296046287342
2022-09-19,0.1672663619566258
2022-09-20,-0.17342854051714646
2022-09-21,-0.12305801376597998
2022-09-22,0.032450854489778524
2022-09-23,-1.325474889409314
2022-09-26,0.15134875786330804
2022-09-27,-0.01149724499978394
2022-09-28,0.0885426473357204
2022-09-29,-0.08383028644051359
2022-09-30,0.4387301587301586
2022-10-10,-0.13940970984529283
2022-10-11,0.02308640913132159
2022-10-12,-0.06705817242651671
2022-10-13,0.2739871402709275
2022-10-14,0.12612244897958927
2022-10-17,-0.20621578277940877
2022-10-18,0.033709981167607594
2022-10-19,0.21079209807533406
2022-10-20,-0.07274167090898506
2022-10-21,-0.01132826011760403
2022-10-24,0.18632948506505242
2022-10-25,0.04995759117896309
2022-10-26,-0.26385485018578536
2022-10-27,-0.2230605857366431
2022-10-28,-0.09844569430721418
2022-10-31,0.03647596024711591
2022-11-01,0.011892671100483324
2022-11-02,0.12952517985611572
2022-11-03,0.13824538824538574
2022-11-04,0.06322023859886795
2022-11-07,-0.13612910670425354
2022-11-08,-0.10019872747615952
2022-11-09,0.06400000000000006
2022-11-10,-0.07771147771147566
2022-11-11,-0.1375907111756175
2022-11-14,0.1527106406412544
2022-11-15,-0.031586175326164555
2022-11-16,-0.254166666666668
2022-11-17,0.12843708016121788
2022-11-18,0.03267466478475691
2022-11-21,-0.16343530384456262
2022-11-22,-0.020963704630786936
2022-11-23,0.2986753371868991
2022-11-24,-0.13449768622182307
2022-11-25,0.038127651178848185
2022-11-28,0.016992763334224004
2022-11-29,0.17978723404255328
2022-11-30,-0.30493647800686174
2022-12-01,0.11793090137039097
2022-12-02,-0.020663298354707694
2022-12-05,0.07222337411016784
2022-12-06,-0.09375000000000006
2022-12-07,0.1355830869897373
2022-12-08,-0.025477707006370767
2022-12-09,0.029822995686448486
2022-12-12,0.22057151413013523
2022-12-13,0.05103923407308102
2022-12-14,0.08341536185475032
2022-12-15,-0.05368053735971923
2022-12-16,0.07362985833476304
2022-12-19,0.11234622615191397
2022-12-20,-0.04413133933623818
2022-12-21,-0.07805116083837632
2022-12-22,0.011899628767321731
2022-12-23,-0.057939697717065614
2022-12-26,-0.5458737151248166
2022-12-27,-0.13080495356037447
2022-12-28,0.04329004329004226
2022-12-29,-0.017973201909750387
2022-12-30,-0.06076074954793548
2023-01-03,0.02392554991539747
2023-01-04,0.18597004018999447
2023-01-05,0.02851605758582431
2023-01-06,0.07763073365026568
2023-01-09,0.04162679425837412
2023-01-10,0.09183202584217617
2023-01-11,-0.08008768724881817
2023-01-12,-0.022563676633440954
2023-01-13,-0.113307571934981
2023-01-16,0.11455490578297824
2023-01-17,0.19203268641471305
2023-01-18,-0.039255702280908925
2023-01-19,-0.11040706605222908
2023-01-20,0.05773586181252851
2023-01-30,-0.04582425562818148
2023-01-31,0.13909986818152886
2023-02-01,0.08705644419929896
2023-02-02,0.24151472650771516
2023-02-03,0.09573559366581293
2023-02-06,-0.10792399434000233
2023-02-07,-0.42204164550532886
2023-02-08,0.01285285285285425
2023-02-09,-0.20324244657332535
2023-02-10,-0.1960823307149244
2023-02-13,0.06488380796842749
2023-02-14,0.15240641711229647
2023-02-15,-0.17010101010100886
2023-02-16,-0.17027079680498694
2023-02-17,0.23758155157934996
2023-02-20,-0.09377195784094744
2023-02-21,0.07870753935377224
2023-02-22,0.12121212121211959
2023-02-23,0.23948931574481128
2023-02-24,-0.08563522732693483
2023-02-27,0.14012096774193383
2023-02-28,0.2228935744645342
2023-03-01,0.023255813953487758
2023-03-02,-0.05411836485661818
2023-03-03,-0.1392095779121646
2023-03-06,0.09323453608247664
2023-03-07,-0.568153474672961
2023-03-08,-0.06784180121463303
2023-03-09,0.160606060606059
2023-03-10,0.2758108851017056
2023-03-13,-0.2738626455352099
2023-03-14,0.34141867101508433
2023-03-15,0.07719468291331615
2023-03-16,0.0035087719298282083
2023-03-17,-0.37679738562091336
2023-03-20,0.11288385657916994
2023-03-21,-0.010570824524314897
2023-03-22,-0.015754763067901606
2023-03-23,-0.24733934283222303
2023-03-24,0.3124568668046908
2023-03-27,-0.038505747126435924
2023-03-28,-0.09921120631034933
2023-03-29,0.04564606741573188
2023-03-30,0.03402664933376774
2023-03-31,-0.07979586185069487
2023-04-03,0.08680981595092299
2023-04-04,0.1590020415931357
2023-04-06,-0.09493243243243277
2023-04-07,0.13233651002300484
2023-04-10,-0.15461867691166872
2023-04-11,0.10690275889937863
2023-04-12,-0.1470305771554248
2023-04-13,-0.0449156338659087
2023-04-14,-0.10234638742985273
2023-04-17,0.09584965932952333
2023-04-18,-0.33077261161665544
2023-04-19,0.19983823372713874
2023-04-20,0.1690087247938915
2023-04-21,0.3219295674385494
2023-04-24,0.13322851341062034
2023-04-25,0.19127944604905547
2023-04-26,-0.19370070017968963
2023-04-27,-0.043202508715815685
2023-04-28,-0.23763397574598716
2023-05-04,-0.11672463933398147
2023-05-05,0.06895132242461591
2023-05-08,0.09546091163738232
2023-05-09,-0.059288474689483214
2023-05-10,-0.24584432313071197
2023-05-11,0.013265172857706828
2023-05-12,-0.10056799198128813
2023-05-15,-0.03046308151941914
2023-05-16,0.024655209702374926
2023-05-17,0.16712010617120177
2023-05-18,-0.01395592635464467
2023-05-19,0.08930202217873379
2023-05-22,-0.03223225752121406
2023-05-23,-0.04564306661080823
2023-05-24,0.18644899701237805
2023-05-25,-0.028047548753011627
2023-05-26,-0.14665052461662592
2023-05-29,-0.07913967779438133
2023-05-30,-0.05491651205937063
2023-05-31,-0.3019644871088747
2023-06-01,0.07914450113994409
2023-06-02,0.015125509547307306
2023-06-05,0.11980347694632944
2023-06-06,0.09335721043384326
2023-06-07,0.13010879153190216
2023-06-08,-0.24230356183998827
2023-06-09,0.0780236145090946
2023-06-12,0.15612244897959335
2023-06-13,-0.02070702359854564
2023-06-14,0.06917293233082941
2023-06-15,0.24389115142539786
2023-06-16,0.12231559290382413
2023-06-19,-0.3972061657032735
2023-06-20,0.08026097763049181
2023-06-21,0.046798029556645984
2023-06-26,-0.041616091555400005
2023-06-27,-0.21876926871377173
2023-06-28,0.24835559099062882
2023-06-29,-0.06617647058823778
2023-06-30,-0.22965517241378752
2023-07-03,0.18746933568835594
2023-07-04,0.11402434043943634
2023-07-05,0.1427324312527301
2023-07-06,0.016129032258062705
2023-07-07,0.26169312169311626
2023-07-10,-0.2834210911218421
2023-07-11,-0.03633672027454312
2023-07-12,-0.2923984359467162
2023-07-13,-0.004294712731432506
2023-07-14,-0.2386521860206034
2023-07-17,1.1558478070723455
2023-07-18,0.2090806430184647
2023-07-19,0.14726880757062313
2023-07-20,0.05034184627647728
2023-07-21,0.2803736984738263
2023-07-24,-1.424715731600646
2023-07-25,-0.2836852689793879
2023-07-26,0.06434300993124684
2023-07-27,-0.11103610065652672
2023-07-28,-0.317524223187439
2023-07-31,0.7673974486288297
2023-08-01,0.027496055893623805
2023-08-02,-0.22318200377238515
2023-08-03,0.07862523101297085
2023-08-04,0.09337730150782723
2023-08-07,-0.6591229149142017
2023-08-08,0.09370074079166048
2023-08-09,0.18080748639786903
2023-08-10,-0.09203635843061551
2023-08-11,0.11151353753326879
2023-08-14,0.3357178910591694
2023-08-15,-0.06020207916356986
2023-08-16,-0.05756282598388109
2023-08-17,0.22072176649641542
2023-08-18,-0.08421590045592581
2023-08-21,-0.2521685254027291
2023-08-22,0.0768027914189701
2023-08-23,0.025014148273911404
2023-08-24,-0.3268717568569302
2023-08-25,0.10516460826183384
2023-08-28,0.3910761154855651
2023-08-29,0.06614087241400243
2023-08-30,-0.027252502780868878
2023-08-31,0.2175540006084573
2023-09-01,-0.0496913903127944
2023-09-04,-0.24058195555744238
2023-09-05,-0.32171078712064627
2023-09-06,-0.011435004147407668
2023-09-07,0.0382796394357085
2023-09-08,-0.09920898549954273
2023-09-11,-0.1824337650384589
2023-09-12,0.33317450863609793
2023-09-13,0.059489822891880345
2023-09-14,-0.2829845431321435
2023-09-15,0.21019794094220767
2023-09-18,0.2269463527486645
2023-09-19,-0.21704895583704706
2023-09-20,-0.09834217506630971
2023-09-21,0.4741107685049455
2023-09-22,-0.21517038007863487
2023-09-25,0.0300256777832014
2023-09-26,0.06823182028717001
2023-09-27,0.059779801110680215
2023-09-28,-0.48749403666598773
2023-10-09,0.29912398921833255
2023-10-10,0.35248695442343286
2023-10-11,0.03761312217194777
2023-10-12,0.20649726924901676
2023-10-13,0.3826746002725814
2023-10-16,-0.2739071282804094
2023-10-17,-0.6583376226350359
2023-10-18,-0.027252159605100273
2023-10-19,-0.27493261455525564
2023-10-20,-0.4215579931066791
2023-10-23,0.2408340421819451
2023-10-24,0.27337487709428254
2023-10-25,0.07111287302417087
2023-10-26,-0.12818831132475292
2023-10-27,0.2956327343617542
2023-10-30,-0.29618874773139736
2023-10-31,0.025493431571943597
2023-11-01,0.023374682763693602
2023-11-02,0.19633854589138858
2023-11-03,0.3073782961460444
2023-11-06,0.17589393330655018
2023-11-07,-0.015498231745370225
2023-11-08,-0.15575023007866046
2023-11-09,0.06850009015429219
2023-11-10,-0.4963761174968051
2023-11-13,-0.08517657387022429
2023-11-14,-0.04690445121067073
2023-11-15,0.04978545742278591
2023-11-16,-0.16002847958493102
2023-11-17,0.17547161647628826
2023-11-20,0.3046958724385437
2023-11-21,0.03684087999068684
2023-11-22,0.04238190243684778
2023-11-23,0.26032768964815906
2023-11-24,-0.07243585170388313
2023-11-27,-0.5708309428188965
2023-11-28,-0.05461755263513702
2023-11-29,-0.06848806650585695
2023-11-30,-0.2476271914727829
2023-12-01,0.03321744388179308
2023-12-04,0.33740639452839544
2023-12-05,-0.04835537892056599
2023-12-06,0.09062084848176745
2023-12-07,0.013829222104345285
2023-12-08,-0.018000324622626497
2023-12-11,-0.046352277131996036
2023-12-12,0.08384029852227301
2023-12-13,-0.03172704062556759
2023-12-14,0.022194199243377323
2023-12-15,0.029776758238684788
2023-12-18,-0.06437265385052982
2023-12-19,-0.0030788549074527456
2023-12-20,-0.03487177035779849
2023-12-21,-0.05256750241079893
2023-12-22,0.01341697641320225
2023-12-25,0.1284772666128614
2023-12-26,0.037282085005303396
2023-12-27,0.0394398766700883
2023-12-28,0.2077012383900913
2023-12-29,-0.14602907850176952
2024-01-02,-0.0854459289711082
2024-01-03,-0.16177131418767396
2024-01-04,0.269642857142861
2024-01-05,-0.19345937659683113
2024-01-08,0.24508440913604929
2024-01-09,0.0932207212286591
2024-01-10,0.15294909172460291
2024-01-11,-0.4767655367231647
2024-01-12,0.30415073914955804
2024-01-15,-0.142025518341308
2024-01-16,0.032323029817014015
2024-01-17,0.002050764062656016
2024-01-18,0.2628695976368699
2024-01-19,-0.3257716163787814
2024-01-22,0.0725960391314724
2024-01-23,-0.27505813953488184
2024-01-24,-0.08517178595918805
2024-01-25,-0.2729711495213024
2024-01-26,0.32063465365963123
2024-01-29,-0.10812119358866759
2024-01-30,0.21560996563573828
2024-01-31,0.05760842810023045
2024-02-01,0.21565373355873718
2024-02-02,-0.40083105300496585
2024-02-05,-0.00034132281553191784
2024-02-06,0.009981320671314922
2024-02-07,0.15814850530376187
2024-02-08,0.5662049375404424
2024-02-19,0.20289143480632954
2024-02-20,0.056514747920997636
2024-02-21,-0.10600795297371991
2024-02-22,-0.25442141845797417
2024-02-23,-0.9887415824915831
2024-02-26,-0.12057024722198405
2024-02-27,-0.02482682751741148
2024-02-28,0.06174155145929311
2024-02-29,0.19880644519594215
2024-03-01,0.615266393442623
2024-03-04,0.10055582241130813
2024-03-05,0.14514907283965617
2024-03-06,-0.028930624973896917
2024-03-07,-0.11829336307863952
2024-03-08,-0.3204715018017558
2024-03-11,0.06978090119884292
2024-03-12,-0.20915233415233364
2024-03-13,0.09010574018126971
2024-03-14,0.2550496300674655
2024-03-15,0.15412177502579824
2024-03-18,-0.13455180587611495
2024-03-19,0.1426802080753024
2024-03-20,-0.0490932642487042
2024-03-21,-0.4958471760797346
2024-03-22,-0.07633670033669965
2024-03-25,0.11713020308865843
2024-03-26,-0.08807474752924763
2024-03-27,-0.046454680956775685
2024-03-28,0.2395104895104886
2024-03-29,0.016002189147064767
2024-04-01,0.08094151856215512
2024-04-02,-0.020649260149817564
2024-04-03,-0.07434492928407727
2024-04-08,0.08712516167697608
2024-04-09,-0.003600019517198315
2024-04-10,-0.1938645122675528
2024-04-11,0.17331652687648988
2024-04-12,0.08837821650910244
2024-04-15,-0.03729138889238414
2024-04-16,0.10644136561745357
2024-04-17,-0.05329125149353187
2024-04-18,-0.07714795008912734
2024-04-19,0.050539815213158173
2024-04-22,0.12631838830732833
2024-04-23,0.1008730100506205
2024-04-24,0.08649997466686785
2024-04-25,-0.08609068627450961
2024-04-26,-0.0323155553591669
2024-04-29,-0.2675145024542612
2024-04-30,-0.42831455286501974
2024-05-06,0.044373304877508526
2024-05-07,0.020208333333334903
2024-05-08,-0.05280549228449651
2024-05-09,-0.02314814814814814
2024-05-10,0.3116557963391535
2024-05-13,0.006309393986601124
2024-05-14,0.14190830235439855
2024-05-15,-0.03557077625570631
2024-05-16,0.07806859205776251
2024-05-17,-0.16787260358688885
2024-05-20,-0.0771377253191356
2024-05-21,0.14582031121492106
2024-05-22,0.108245614035087
2024-05-23,0.3088361698469982
2024-05-24,0.16587029322878344
2024-05-27,0.07567269331975278
2024-05-28,-0.5566284493657081
2024-05-29,-0.01409642988590189
2024-05-30,-0.4612174766813926
2024-05-31,-0.10601205418599453
2024-06-03,0.03724747474747543
2024-06-04,0.31237322515213023
2024-06-05,0.08582326764144942
2024-06-06,0.15436889455191255
2024-06-07,0.1013717074812747
2024-06-11,-0.1732011070110723
2024-06-12,-0.004358589908996083
2024-06-13,-0.11560086709118303
2024-06-14,0.03249568744463682
2024-06-17,-0.0543417366946754
2024-06-18,0.13153444034440614
2024-06-19,0.016123295791350734
2024-06-20,-0.18214936247722993
2024-06-21,0.2735318766224466
2024-06-24,0.011127888655460426
2024-06-25,-0.024664750957858913
2024-06-26,-0.04780219780220141
2024-06-27,0.5199346405228786
2024-06-28,-0.39421983851692144
2024-07-01,0.0043595349829341
2024-07-02,-0.02950191570880796
2024-07-03,0.043368700265254245
2024-07-04,-0.466904337492576
2024-07-05,0.21156746722357694
2024-07-08,-0.16207260316475294
2024-07-09,0.09240506329113794
2024-07-10,0.09538398131611474
2024-07-11,0.06668104532873288
2024-07-12,-0.16304675716440292
2024-07-15,0.14238349885408746
2024-07-16,-0.05907172995780482
2024-07-17,-0.21994032239243974
2024-07-18,0.09333774724819906
2024-07-19,0.08461538461538326
2024-07-22,-0.0589962012202104
2024-07-23,0.06280193236714846
2024-07-24,0.15496386458729608
2024-07-25,-0.0229149959903748
2024-07-26,0.10389610389610388
2024-07-29,0.06646772926212956
2024-07-30,-0.06030755782388038
2024-07-31,-0.10895315686022672
2024-08-01,0.01219861908154727
2024-08-02,-0.2325644378510433
2024-08-05,0.051963154922176305
2024-08-06,-0.06659693864583334
2024-08-07,0.05440770231477058
2024-08-08,0.05147245633964471
2024-08-09,0.20194419602390573
2024-08-12,0.101022270901788
2024-08-13,0.0606542882404965
2024-08-14,-0.05190311418685001
2024-08-15,-0.13965270139652713
2024-08-16,-0.12486316365626869
2024-08-19,-0.4157046596427558
2024-08-20,-0.04683105374687053
2024-08-21,0.14602076124567662
2024-08-22,0.07491562671689905
2024-08-23,0.1975332475332501
2024-08-26,0.34538564774611397
2024-08-27,0.037348295126178155
2024-08-28,-0.12905214487541897
2024-08-29,-0.008198316547462241
2024-08-30,-0.29732209273493904
2024-09-02,-0.2619071902090794
2024-09-03,0.025918047469773952
2024-09-04,0.20160116448325915
2024-09-05,0.01906916612798844
2024-09-06,0.19509199378352676
2024-09-09,0.19898118013301466
2024-09-10,0.0428505504647616
2024-09-11,-0.3253205128205112
2024-09-12,-0.01692307692307738
2024-09-13,-0.06683723427777077
2024-09-18,0.12243254128070874
2024-09-19,0.07236756475335362
2024-09-20,0.245017482517481
2024-09-23,0.049085475194262256
2024-09-24,0.16425041954129876
2024-09-25,-0.16444686055993565
2024-09-26,-0.25677655677655764
2024-09-27,0.19232488822652866
2024-09-30,0.08413796802918216
2024-10-08,-0.0011290322580628231
2024-10-09,-0.029499543912785253
2024-10-10,0.1494591570309585
2024-10-11,-0.38610540438555907
2024-10-14,-0.24786937036220708
2024-10-15,-0.2744262295081968
2024-10-16,0.15373661426293023
2024-10-17,0.06754764569012908
2024-10-18,0.013666879795394216
2024-10-21,0.13297105029147221
2024-10-22,-0.026532674601392914
2024-10-23,-0.19526901669758817
2024-10-24,-0.2706575963718808
2024-10-25,0.07201086956522146
2024-10-28,0.048659003831418815
2024-10-29,0.20832732516222002
2024-10-30,0.624346220900418
2024-10-31,0.3516033297140778
2024-11-01,0.34207339227321837
2024-11-04,-0.021800281293952867
2024-11-05,0.007733619763695604
2024-11-06,-0.7187290417270078
2024-11-07,-0.25623556758575244
2024-11-08,-0.5259897888307263
2024-11-11,-0.10818893121953302
2024-11-12,-0.0026544883687749654
2024-11-13,0.053091885847947426
2024-11-14,0.18912718736662276
2024-11-15,0.14723628300603242
2024-11-18,0.08538256206742022
2024-11-19,-0.23656307591325565
2024-11-20,0.09195013671243155
2024-11-21,-0.2575238688252373
2024-11-22,0.042203027770038426
2024-11-25,-0.016443410603995515
2024-11-26,0.2338392803717825
2024-11-27,0.04676292501164765
2024-11-28,0.06791316211236165
2024-11-29,-0.07811929971797783
2024-12-02,0.007957855650716165
2024-12-03,-0.00962786239004642
2024-12-04,0.028196542988216538
2024-12-05,0.22105890967270794
2024-12-06,0.08407910567778482
2024-12-09,-0.01282604445672866
2024-12-10,-0.019153486139069902
2024-12-11,-0.0901398628262754
2024-12-12,-0.1982370592648175
2024-12-13,-0.0012378426171512687
2024-12-16,-0.001265212676227626
2024-12-17,-0.056236526024020586
2024-12-18,0.05225140712945582
2024-12-19,0.07057673509286627
2024-12-20,0.011494252873559221
2024-12-23,0.02367609974783052
2024-12-24,-0.08970588235294089
2024-12-25,-0.026505724240916254
2024-12-26,0.02171717171716872
2024-12-27,-0.11486486486486416
2024-12-30,0.026119746160210226
2024-12-31,0.19117647058823511
