date,FCT_Demark_Atr_Dfive
2014-06-17,
2014-06-18,
2014-06-19,
2014-06-20,
2014-06-23,
2014-06-24,
2014-06-25,
2014-06-26,
2014-06-27,
2014-06-30,0.2571428571428571
2014-07-01,0.36000000000000015
2014-07-02,0.6612903225806452
2014-07-03,0.41666666666666663
2014-07-04,0.31081081081081063
2014-07-07,0.5443037974683544
2014-07-08,0.6052631578947367
2014-07-09,0.25842696629213496
2014-07-10,0.37499999999999994
2014-07-11,0.5764705882352942
2014-07-14,0.663551401869159
2014-07-15,0.6296296296296298
2014-07-16,0.8
2014-07-17,0.8380952380952381
2014-07-18,0.8617886178861789
2014-07-21,0.41558441558441567
2014-07-22,0.4304635761589404
2014-07-23,0.5654761904761905
2014-07-24,0.45512820512820507
2014-07-25,0.17714285714285705
2014-07-28,0.5419354838709678
2014-07-29,0.4882352941176471
2014-07-30,0.3212121212121213
2014-07-31,0.311764705882353
2014-08-01,0.5084745762711864
2014-08-04,0.060869565217391244
2014-08-05,0.06796116504854363
2014-08-06,0.3603603603603603
2014-08-07,0.6842105263157895
2014-08-08,0.7112299465240641
2014-08-11,0.9726027397260274
2014-08-12,1.0
2014-08-13,1.0
2014-08-14,0.43283582089552236
2014-08-15,0.28
2014-08-18,0.19847328244274795
2014-08-19,0.07317073170731697
2014-08-20,0.0
2014-08-21,0.0
2014-08-22,0.0
2014-08-25,0.27522935779816515
2014-08-26,0.46153846153846156
2014-08-27,0.8235294117647058
2014-08-28,0.8924731182795699
2014-08-29,1.0
2014-09-01,0.8390804597701147
2014-09-02,0.8749999999999999
2014-09-03,0.854368932038835
2014-09-04,0.7352941176470589
2014-09-05,0.49549549549549543
2014-09-09,0.4867256637168143
2014-09-10,0.0
2014-09-11,0.0
2014-09-12,0.15671641791044763
2014-09-15,0.4042553191489362
2014-09-16,0.49629629629629624
2014-09-17,0.6320754716981133
2014-09-18,0.71875
2014-09-19,0.5274725274725275
2014-09-22,0.17647058823529407
2014-09-23,0.42268041237113396
2014-09-24,0.6704545454545455
2014-09-25,0.6666666666666666
2014-09-26,0.707317073170732
2014-09-29,0.5918367346938774
2014-09-30,0.21111111111111103
2014-10-08,0.012345679012345422
2014-10-09,0.24528301886792456
2014-10-10,0.5892857142857143
2014-10-13,0.7419354838709677
2014-10-14,0.9312977099236641
2014-10-15,1.0
2014-10-16,0.8500000000000001
2014-10-17,0.4509803921568627
2014-10-20,0.4954954954954956
2014-10-21,0.43636363636363623
2014-10-22,0.21186440677966106
2014-10-23,0.41463414634146334
2014-10-24,0.46363636363636357
2014-10-27,0.27368421052631564
2014-10-28,0.2280701754385964
2014-10-29,0.26804123711340194
2014-10-30,0.0
2014-10-31,0.0
2014-11-03,0.25352112676056343
2014-11-04,0.5692307692307691
2014-11-05,0.8444444444444442
2014-11-06,0.9249999999999998
2014-11-07,1.0
2014-11-10,0.8412698412698413
2014-11-11,0.8165137614678899
2014-11-12,0.5952380952380951
2014-11-13,0.46874999999999983
2014-11-14,0.253731343283582
2014-11-17,0.5652173913043478
2014-11-18,0.4624999999999999
2014-11-19,0.6375000000000002
2014-11-20,0.37894736842105275
2014-11-21,0.5742574257425742
2014-11-24,0.3829787234042554
2014-11-25,0.5263157894736842
2014-11-26,0.5360824742268041
2014-11-27,0.6666666666666665
2014-11-28,0.559322033898305
2014-12-01,0.6599999999999997
2014-12-02,0.73015873015873
2014-12-03,0.39473684210526316
2014-12-04,0.6956521739130433
2014-12-05,0.6637931034482758
2014-12-08,0.7642857142857142
2014-12-09,0.6666666666666667
2014-12-10,0.9000000000000005
2014-12-11,0.40163934426229503
2014-12-12,0.4888888888888889
2014-12-15,0.39473684210526316
2014-12-16,0.5079365079365078
2014-12-17,0.37499999999999994
2014-12-18,0.8773584905660379
2014-12-19,0.9192546583850933
2014-12-22,0.8633540372670809
2014-12-23,0.7843137254901962
2014-12-24,0.8984771573604061
2014-12-25,0.6084905660377359
2014-12-26,0.2394957983193278
2014-12-29,0.23360655737704925
2014-12-30,0.23849372384937245
2014-12-31,0.0
2015-01-05,0.11428571428571424
2015-01-06,0.33333333333333326
2015-01-07,0.35483870967741926
2015-01-08,0.282051282051282
2015-01-09,0.4631578947368421
2015-01-12,0.45744680851063824
2015-01-13,0.29487179487179477
2015-01-14,0.3513513513513513
2015-01-15,0.8412698412698417
2015-01-16,0.9595959595959597
2015-01-19,0.6206896551724138
2015-01-20,0.5454545454545454
2015-01-21,0.6153846153846153
2015-01-22,0.5419847328244275
2015-01-23,0.24369747899159677
2015-01-26,0.46808510638297884
2015-01-27,0.55
2015-01-28,0.223684210526316
2015-01-29,0.1530612244897959
2015-01-30,0.2054794520547945
2015-02-02,0.38297872340425515
2015-02-03,0.5806451612903226
2015-02-04,0.7184466019417476
2015-02-05,0.9390243902439024
2015-02-06,0.9506172839506174
2015-02-09,0.3942307692307693
2015-02-10,0.05263157894736842
2015-02-11,0.022900763358778678
2015-02-12,0.022900763358778678
2015-02-13,0.21518987341772158
2015-02-16,0.43965517241379315
2015-02-17,0.6274509803921569
2015-02-25,1.0
2015-02-26,1.0
2015-02-27,0.8625
2015-03-02,0.875
2015-03-03,0.9102040816326531
2015-03-04,0.7536231884057969
2015-03-05,0.7371134020618556
2015-03-06,0.8432432432432431
2015-03-09,0.8423913043478259
2015-03-10,0.4562499999999999
2015-03-11,0.525179856115108
2015-03-12,0.3571428571428571
2015-03-13,0.2601626016260164
2015-03-16,0.0
2015-03-17,0.05504587155963316
2015-03-18,0.24
2015-03-19,0.22556390977443608
2015-03-20,0.29007633587786263
2015-03-23,0.6805555555555556
2015-03-24,0.7415730337078651
2015-03-25,0.6086956521739131
2015-03-26,0.6086956521739134
2015-03-27,0.6860465116279073
2015-03-30,0.6000000000000002
2015-03-31,0.2747252747252748
2015-04-01,0.2136752136752137
2015-04-02,0.4651162790697674
2015-04-03,0.31531531531531526
2015-04-07,0.26119402985074625
2015-04-08,0.27777777777777773
2015-04-09,0.43518518518518506
2015-04-10,0.11538461538461534
2015-04-13,0.12244897959183665
2015-04-14,0.3409090909090909
2015-04-15,0.37974683544303806
2015-04-16,0.5545454545454547
2015-04-17,0.8378841846158238
2015-04-20,0.854779137695008
2015-04-21,0.8607557922302399
2015-04-22,1.0
2015-04-23,0.6114725079903427
2015-04-24,0.36394858182960743
2015-04-27,0.2884047930618652
2015-04-28,0.24855037121335682
2015-04-29,0.2711484567067977
2015-04-30,0.3982300884955771
2015-05-04,0.6867469879518027
2015-05-05,0.6551724137931033
2015-05-06,0.4134615384615349
2015-05-07,0.14634146341463056
2015-05-08,0.33663366336633765
2015-05-11,0.20370370370370652
2015-05-12,0.29761904761904956
2015-05-13,0.3571428571428575
2015-05-14,0.3472222222222242
2015-05-15,0.03614457831325279
2015-05-18,0.042253521126760556
2015-05-19,0.2183908045977007
2015-05-20,0.385542168674702
2015-05-21,0.3478260869565229
2015-05-22,0.578124999999999
2015-05-25,0.7183098591549282
2015-05-26,0.6296296296296269
2015-05-27,0.42857142857142083
2015-05-28,0.6363636363636311
2015-05-29,0.7931034482758614
2015-06-01,0.6808510638297853
2015-06-02,0.5000000000000036
2015-06-03,0.6811594202898594
2015-06-04,0.742857142857147
2015-06-05,0.2972972972972983
2015-06-08,0.2682926829268293
2015-06-09,0.3013698630136973
2015-06-10,0.05952380952381142
2015-06-11,0.15053763440860055
2015-06-12,0.3661971830985952
2015-06-15,0.4687500000000082
2015-06-16,0.7171717171717219
2015-06-17,1.0
2015-06-18,0.9367088607594914
2015-06-19,0.8051948051947985
2015-06-23,0.8295454545454473
2015-06-24,0.4210526315789373
2015-06-25,0.19480519480519068
2015-06-26,0.18072289156626217
2015-06-29,0.19999999999999868
2015-06-30,0.30232558139535126
2015-07-01,0.3333333333333353
2015-07-02,0.6046511627906992
2015-07-03,0.6265060240963839
2015-07-06,0.7040816326530573
2015-07-07,0.6881720430107495
2015-07-08,0.9436619718309842
2015-07-09,0.9766763848396495
2015-07-10,1.0
2015-07-13,0.9971428571428562
2015-07-14,0.9507246376811584
2015-07-15,0.7987616099071211
2015-07-16,0.09935897435897495
2015-07-17,0.0
2015-07-20,0.0
2015-07-21,0.0
2015-07-22,0.0
2015-07-23,0.0
2015-07-24,0.17721518987341625
2015-07-27,0.5
2015-07-28,0.691325198233702
2015-07-29,0.8732421505376349
2015-07-30,1.0
2015-07-31,0.8291591595569895
2015-08-03,0.8113042587593153
2015-08-04,0.635720868338231
2015-08-05,0.3547141560983116
2015-08-06,0.3642103490851906
2015-08-07,0.5609293776386461
2015-08-10,0.2517985611510818
2015-08-11,0.3114754098360678
2015-08-12,0.4859813084112196
2015-08-13,0.48598130841122167
2015-08-14,0.4270833333333357
2015-08-17,1.0
2015-08-18,1.0
2015-08-19,0.696969696969694
2015-08-20,0.39024390243902257
2015-08-21,0.23157894736842274
2015-08-24,0.26262626262626304
2015-08-25,0.3539823008849566
2015-08-26,0.6845238095238128
2015-08-27,0.8496732026143818
2015-08-28,1.0
2015-08-31,0.955882352941176
2015-09-01,0.7841726618705062
2015-09-02,0.28571428571428376
2015-09-07,0.14960629921259516
2015-09-08,0.0
2015-09-09,0.0
2015-09-10,0.0
2015-09-11,0.0
2015-09-14,0.009259259259258627
2015-09-15,0.012195121951218642
2015-09-16,0.01492537313432736
2015-09-17,0.03333333333333247
2015-09-18,0.037037037037035855
2015-09-21,0.0
2015-09-22,0.28000000000000036
2015-09-23,0.6666666666666742
2015-09-24,0.7164179104477628
2015-09-25,0.8684210526315799
2015-09-28,0.804878048780482
2015-09-29,0.802469135802465
2015-09-30,0.44827586206896364
2015-10-08,0.5897435897435891
2015-10-09,0.6712328767123305
2015-10-12,0.782312925170071
2015-10-13,0.6455696202531652
2015-10-14,0.8181818181818162
2015-10-15,0.48611111111111105
2015-10-16,0.15032679738562163
2015-10-19,0.04316546762589964
2015-10-20,0.04800000000000063
2015-10-21,0.0
2015-10-22,0.014285714285712757
2015-10-23,0.7450980392156844
2015-10-26,0.6909090909090856
2015-10-27,0.8870967741935386
2015-10-28,0.7746478873239403
2015-10-29,0.8048780487804844
2015-10-30,0.37179487179486936
2015-11-02,0.5058823529411747
2015-11-03,0.31325301204818906
2015-11-04,0.5151515151515149
2015-11-05,0.4431818181818208
2015-11-06,0.7090909090909091
2015-11-09,0.5208333333333385
2015-11-10,0.8181818181818267
2015-11-11,0.40740740740741654
2015-11-12,0.28205128205128555
2015-11-13,0.37777777777777694
2015-11-16,0.5227272727272679
2015-11-17,0.31578947368420224
2015-11-18,0.8163265306122456
2015-11-19,0.9468085106383001
2015-11-20,0.9504950495049529
2015-11-23,0.9657534246575361
2015-11-24,1.0
2015-11-25,0.6753926701570692
2015-11-26,0.7316017316017323
2015-11-27,0.6341463414634145
2015-11-30,0.4617666863058641
2015-12-01,0.25199931100666667
2015-12-02,0.36196232283603513
2015-12-03,0.0
2015-12-04,0.13797211962349407
2015-12-07,0.175436824563176
2015-12-08,0.3069789847654619
2015-12-09,0.3732673836774575
2015-12-10,0.6827266989269946
2015-12-11,0.3513513513513479
2015-12-14,0.4193548387096682
2015-12-15,0.1363636363636303
2015-12-16,0.0
2015-12-17,0.1617647058823552
2015-12-18,0.2333333333333338
2015-12-21,0.19444444444444406
2015-12-22,0.2058823529411744
2015-12-23,0.5087719298245575
2015-12-24,0.29999999999999444
2015-12-25,0.19480519480519345
2015-12-28,0.2753623188405819
2015-12-29,0.6091954022988508
2015-12-30,0.47500000000000325
2015-12-31,0.6111111111111212
2016-01-04,0.9157894736842154
2016-01-05,0.8217821782178235
2016-01-06,0.47572815533981044
2016-01-07,0.5353535353535361
2016-01-08,0.6068376068376062
2016-01-11,0.36363636363635904
2016-01-12,0.4057971014492723
2016-01-13,0.8999999999999908
2016-01-14,0.8936170212765875
2016-01-15,0.32727272727272366
2016-01-18,0.4687500000000012
2016-01-19,0.5733333333333308
2016-01-20,0.3939393939393947
2016-01-21,0.3846153846153821
2016-01-22,0.8431372549019616
2016-01-25,0.39240506329113684
2016-01-26,0.23376623376623543
2016-01-27,0.27142857142857063
2016-01-28,0.2499999999999977
2016-01-29,0.013888888888885466
2016-02-01,0.024390243902432926
2016-02-02,0.19444444444444453
2016-02-03,0.1428571428571505
2016-02-04,0.4642857142857193
2016-02-05,0.541666666666676
2016-02-15,0.8311688311688391
2016-02-16,0.6666666666666666
2016-02-17,0.7283950617283903
2016-02-18,0.4482758620689638
2016-02-19,0.5757575757575729
2016-02-22,0.3015873015872965
2016-02-23,0.48148148148148406
2016-02-24,0.5882352941176497
2016-02-25,0.964285714285712
2016-02-26,0.9649122807017521
2016-02-29,0.7432432432432455
2016-03-01,0.7934782608695663
2016-03-02,0.7250000000000036
2016-03-03,0.7755102040816371
2016-03-04,0.7215189873417774
2016-03-07,0.9666666666666698
2016-03-08,0.9765625000000023
2016-03-09,1.0
2016-03-10,1.0
2016-03-11,0.8699551569506743
2016-03-14,0.8497409326424892
2016-03-15,0.4697674418604653
2016-03-16,0.07870370370370443
2016-03-17,0.0
2016-03-18,0.23188405797101216
2016-03-21,0.22775800711743543
2016-03-22,0.46774193548386955
2016-03-23,0.73142857142857
2016-03-24,0.9702380952380951
2016-03-25,0.6734693877551013
2016-03-28,0.6556291390728476
2016-03-29,0.3092105263157909
2016-03-30,0.23333333333333478
2016-03-31,0.0
2016-04-01,0.0
2016-04-05,0.0
2016-04-06,0.08108108108107936
2016-04-07,0.06896551724137762
2016-04-08,0.061855670103091405
2016-04-11,0.5003892045561349
2016-04-12,0.5084559891176407
2016-04-13,0.6300634385658165
2016-04-14,0.787823182240332
2016-04-15,0.9457859377652749
2016-04-18,0.7366409384086947
2016-04-19,0.8252378746302707
2016-04-20,0.6383434642692963
2016-04-21,0.617779877184695
2016-04-22,0.6435185185185192
2016-04-25,0.8451882845188284
2016-04-26,0.775609756097563
2016-04-27,0.9497206703910638
2016-04-28,0.7049180327868878
2016-04-29,0.3490566037735835
2016-05-03,0.0531400966183563
2016-05-04,0.047826086956520436
2016-05-05,0.0
2016-05-06,0.025380710659896968
2016-05-09,0.18796992481203054
2016-05-10,0.29069767441860317
2016-05-11,0.45454545454545753
2016-05-12,0.5555555555555721
2016-05-13,0.5652173913043688
2016-05-16,0.18181818181819048
2016-05-17,0.14285714285715065
2016-05-18,0.44444444444444475
2016-05-19,0.6999999999999954
2016-05-20,0.45967741935483314
2016-05-23,0.5522388059701479
2016-05-24,0.6694214876033031
2016-05-25,0.5000000000000009
2016-05-26,0.2526315789473707
2016-05-27,0.4833333333333372
2016-05-30,0.23999999999999785
2016-05-31,0.11111111111111104
2016-06-01,0.4473684210526244
2016-06-02,0.5
2016-06-03,0.2448979591836717
2016-06-06,0.20689655172413554
2016-06-07,0.27868852459015886
2016-06-08,0.07812499999999693
2016-06-13,0.07246376811593895
2016-06-14,0.3333333333333259
2016-06-15,0.36065573770490994
2016-06-16,0.2741935483870918
2016-06-17,0.508196721311476
2016-06-20,0.596153846153845
2016-06-21,0.31818181818182506
2016-06-22,0.4864864864864968
2016-06-23,0.6388888888888947
2016-06-24,0.7111111111111116
2016-06-27,0.8695652173913062
2016-06-28,1.0
2016-06-29,1.0
2016-06-30,1.0
2016-07-01,0.8688524590163924
2016-07-04,0.8699186991869914
2016-07-05,0.8558558558558553
2016-07-06,0.8431372549019607
2016-07-07,0.8532110091743115
2016-07-08,1.0
2016-07-11,0.6413793103448263
2016-07-12,0.3314606741573036
2016-07-13,0.24571428571428436
2016-07-14,0.15934065934066
2016-07-15,0.0
2016-07-18,0.14788732394366244
2016-07-19,0.2333333333333349
2016-07-20,0.19811320754717154
2016-07-21,0.31914893617021467
2016-07-22,0.4634146341463426
2016-07-25,0.19999999999999968
2016-07-26,0.32051282051282054
2016-07-27,0.5932203389830484
2016-07-28,0.4406779661016926
2016-07-29,0.25352112676056215
2016-08-01,0.6813186813186808
2016-08-02,0.57446808510638
2016-08-03,0.5348837209302297
2016-08-04,0.6265060240963813
2016-08-05,0.6933333333333274
2016-08-08,0.10958904109588659
2016-08-09,0.15624999999999836
2016-08-10,0.12585541390499339
2016-08-11,0.034294909401769526
2016-08-12,0.040603294304429355
2016-08-15,0.19144755310192396
2016-08-16,0.0
2016-08-17,0.0
2016-08-18,0.0
2016-08-19,0.0
2016-08-22,0.6015891824074672
2016-08-23,0.6891891891891803
2016-08-24,0.6623376623376575
2016-08-25,0.7906976744186036
2016-08-26,0.8695652173913043
2016-08-29,0.3932584269662908
2016-08-30,0.31521739130435067
2016-08-31,0.4137931034482803
2016-09-01,0.2159090909090935
2016-09-02,0.08333333333333517
2016-09-05,0.3965517241379397
2016-09-06,0.5666666666666657
2016-09-07,0.45762711864406713
2016-09-08,0.7083333333333354
2016-09-09,0.6800000000000044
2016-09-12,0.4864864864864799
2016-09-13,0.3448275862069066
2016-09-14,0.500000000000004
2016-09-19,0.6176470588235226
2016-09-20,0.9090909090908967
2016-09-21,1.0
2016-09-22,0.9354838709677412
2016-09-23,0.9574468085106376
2016-09-26,0.4761904761904761
2016-09-27,0.349999999999994
2016-09-28,0.27142857142856597
2016-09-29,0.5545454545454498
2016-09-30,0.40776699029125785
2016-10-10,0.7368421052631515
2016-10-11,0.8490566037735826
2016-10-12,0.8999999999999992
2016-10-13,0.7045454545454531
2016-10-14,0.805755395683454
2016-10-17,0.6542056074766396
2016-10-18,0.24050632911392897
2016-10-19,0.500000000000002
2016-10-20,0.6489361702127713
2016-10-21,0.46153846153846484
2016-10-24,0.3888888888888889
2016-10-25,0.6260869565217364
2016-10-26,0.42499999999999993
2016-10-27,0.3488372093023204
2016-10-28,0.5744680851063761
2016-10-31,0.9109589041095866
2016-11-01,0.7573529411764673
2016-11-02,0.808917197452225
2016-11-03,0.8795180722891557
2016-11-04,0.9009900990099003
2016-11-07,0.8412698412698401
2016-11-08,1.0
2016-11-09,1.0
2016-11-10,1.0
2016-11-11,1.0
2016-11-14,1.0
2016-11-15,1.0
2016-11-16,0.8361344537815113
2016-11-17,0.7989690721649473
2016-11-18,0.5106382978723429
2016-11-21,0.2293577981651389
2016-11-22,0.009216589861751803
2016-11-23,0.009708737864078353
2016-11-24,0.0
2016-11-25,0.0
2016-11-28,0.0
2016-11-29,0.0
2016-11-30,0.10655737704918267
2016-12-01,0.08552631578947574
2016-12-02,0.3280034759939186
2016-12-05,0.6569847328244302
2016-12-06,0.7269702096358982
2016-12-07,0.7882684725467299
2016-12-08,1.0
2016-12-09,1.0
2016-12-12,1.0
2016-12-13,0.7953623460202143
2016-12-14,0.7108593782686917
2016-12-15,0.47058823529411875
2016-12-16,0.22047244094488372
2016-12-19,0.24427480916030447
2016-12-20,0.48437499999999817
2016-12-21,0.3202247191011222
2016-12-22,0.3275862068965503
2016-12-23,0.4545454545454527
2016-12-26,0.20624999999999835
2016-12-27,0.32085561497326387
2016-12-28,0.49295774647887386
2016-12-29,0.6232876712328781
2016-12-30,0.7236180904522631
2017-01-03,1.0
2017-01-04,0.6553672316384161
2017-01-05,0.5145631067961159
2017-01-06,0.42929292929292834
2017-01-09,0.15425531914893392
2017-01-10,0.0
2017-01-11,0.016666666666672006
2017-01-12,0.4191176470588268
2017-01-13,0.377483443708614
2017-01-16,0.7125748502994059
2017-01-17,0.7484276729559818
2017-01-18,0.6573033707865218
2017-01-19,0.41059602649007093
2017-01-20,0.5547445255474467
2017-01-23,0.11570247933883838
2017-01-24,0.0915032679738519
2017-01-25,0.4099999999999967
2017-01-26,0.40999999999999587
2017-02-03,0.5144032921810686
2017-02-06,0.5208333333333297
2017-02-07,0.6395939086294374
2017-02-08,0.28155339805825164
2017-02-09,0.4392523364485962
2017-02-10,0.1831683168316821
2017-02-13,0.43778801843318166
2017-02-14,0.5378787878787893
2017-02-15,0.7867298578199065
2017-02-16,0.7738693467336707
2017-02-17,1.0
2017-02-20,0.7283950617283951
2017-02-21,0.7161290322580632
2017-02-22,0.5878378378378384
2017-02-23,0.5413533834586416
2017-02-24,0.3424657534246515
2017-02-27,0.5737704918032761
2017-02-28,0.23966942148760098
2017-03-01,0.39999999999999786
2017-03-02,0.26623376623376793
2017-03-03,0.3280000000000031
2017-03-06,0.16279069767441903
2017-03-07,0.14583333333333343
2017-03-08,0.17449664429529746
2017-03-09,0.38405797101448985
2017-03-10,0.4357142857142818
2017-03-13,0.7277227722772264
2017-03-14,1.0
2017-03-15,0.9693251533742382
2017-03-16,0.8451612903225859
2017-03-17,0.8410596026490126
2017-03-20,0.3037037037037092
2017-03-21,0.18260869565217977
2017-03-22,0.1458333333333368
2017-03-23,0.15328467153284978
2017-03-24,0.1188811188811189
2017-03-27,0.4166666666666627
2017-03-28,0.23958333333333
2017-03-29,0.4507042253521077
2017-03-30,0.42666666666666464
2017-03-31,0.5822784810126563
2017-04-05,0.40350877192982215
2017-04-06,0.37704918032786633
2017-04-07,0.5953515585594642
2017-04-10,0.8235657001850696
2017-04-11,0.8312679461991832
2017-04-12,0.6655776386241926
2017-04-13,0.8104723594791704
2017-04-14,0.762161172062502
2017-04-17,0.5117521538930497
2017-04-18,0.34656730177251555
2017-04-19,0.5717349482367607
2017-04-20,0.33333333333334403
2017-04-21,0.14529914529915158
2017-04-24,0.1588785046729042
2017-04-25,0.14529914529915106
2017-04-26,0.0
2017-04-27,0.0
2017-04-28,0.0
2017-05-02,0.0
2017-05-03,0.07920792079207857
2017-05-04,0.3684210526315787
2017-05-05,0.7010309278350522
2017-05-08,0.9315068493150676
2017-05-09,0.781609195402302
2017-05-10,0.8020833333333363
2017-05-11,0.43877551020408656
2017-05-12,0.20481927710843867
2017-05-15,0.41592920353982155
2017-05-16,0.5566037735849035
2017-05-17,0.3529411764705853
2017-05-18,0.5684210526315747
2017-05-19,0.8369565217391299
2017-05-22,0.7848101265822783
2017-05-23,0.7901234567901233
2017-05-24,0.9764705882352941
2017-05-25,0.9767441860465115
2017-05-26,0.4755244755244728
2017-05-31,0.6885964912280687
2017-06-01,0.626666666666665
2017-06-02,0.5602094240837678
2017-06-05,0.45145631067961106
2017-06-06,0.7200000000000004
2017-06-07,0.10734463276836251
2017-06-08,0.25257731958762963
2017-06-09,0.1948051948051956
2017-06-12,0.2216748768472918
2017-06-13,0.13452914798206328
2017-06-14,0.46527777777778173
2017-06-15,0.3032786885245941
2017-06-16,0.6811594202898598
2017-06-19,0.7207792207792227
2017-06-20,0.7551020408163256
2017-06-21,0.6379310344827557
2017-06-22,0.7142857142857106
2017-06-23,0.24778761061946317
2017-06-26,0.08661417322834475
2017-06-27,0.20720720720720462
2017-06-28,0.19658119658119386
2017-06-29,0.12962962962963
2017-06-30,0.3384615384615433
2017-07-03,0.7818181818181787
2017-07-04,0.7999999999999957
2017-07-05,1.0
2017-07-06,1.0
2017-07-07,0.9687500000000034
2017-07-10,0.7192982456140354
2017-07-11,0.6363636363636435
2017-07-12,0.17391304347826886
2017-07-13,0.0588235294117706
2017-07-14,0.16216216216216084
2017-07-17,0.4893617021276586
2017-07-18,0.4615384615384574
2017-07-19,0.44210526315789084
2017-07-20,0.7476635514018668
2017-07-21,0.8014705882352935
2017-07-24,0.6818181818181818
2017-07-25,0.5357142857142878
2017-07-26,0.8243243243243263
2017-07-27,0.5846774193548421
2017-07-28,0.4595744680851096
2017-07-31,0.4060150375939876
2017-08-01,0.5058365758754878
2017-08-02,0.09053497942386694
2017-08-03,0.1822916666666629
2017-08-04,0.22222222222221538
2017-08-07,0.4965786881081219
2017-08-08,0.5048832806545678
2017-08-09,1.0
2017-08-10,0.9862270937418779
2017-08-11,0.9884847144051743
2017-08-14,0.5321363620466615
2017-08-15,0.21337699772120297
2017-08-16,0.1747692098832507
2017-08-17,0.46938184615112455
2017-08-18,0.28634361233479905
2017-08-21,0.4202898550724608
2017-08-22,0.5752688172042986
2017-08-23,0.6632124352331585
2017-08-24,0.32142857142857184
2017-08-25,0.5776397515527961
2017-08-28,0.48965517241379414
2017-08-29,0.5568862275449141
2017-08-30,0.45569620253165005
2017-08-31,0.7912087912087932
2017-09-01,0.7076923076923146
2017-09-04,0.8761904761904776
2017-09-05,0.4854368932038873
2017-09-06,0.702898550724637
2017-09-07,0.7674418604651171
2017-09-08,0.7814207650273229
2017-09-11,0.5359116022099436
2017-09-12,0.7799999999999975
2017-09-13,0.7380952380952353
2017-09-14,0.6137931034482739
2017-09-15,0.5692307692307658
2017-09-18,0.8775510204081655
2017-09-19,0.22314049586776943
2017-09-20,0.08333333333333459
2017-09-21,0.4339622641509438
2017-09-22,0.3931623931623927
2017-09-25,0.3587443946188327
2017-09-26,0.5793103448275823
2017-09-27,0.7304347826086929
2017-09-28,0.06779661016949122
2017-09-29,0.5479452054794534
2017-10-09,0.5063291139240559
2017-10-10,0.6880000000000027
2017-10-11,0.8074534161490686
2017-10-12,0.7303370786516873
2017-10-13,0.6527777777777779
2017-10-16,0.6351351351351332
2017-10-17,0.5045871559633022
2017-10-18,0.10784313725490363
2017-10-19,0.17741935483871205
2017-10-20,0.595041322314051
2017-10-23,0.7121212121212146
2017-10-24,0.5123456790123474
2017-10-25,0.6058394160583948
2017-10-26,0.4825581395348829
2017-10-27,0.133333333333333
2017-10-30,0.0
2017-10-31,0.0
2017-11-01,0.05063291139240534
2017-11-02,0.2962962962962955
2017-11-03,0.29813664596273276
2017-11-06,0.49673202614379125
2017-11-07,0.5891472868217066
2017-11-08,0.49275362318840654
2017-11-09,0.2222222222222243
2017-11-10,0.47674418604651425
2017-11-13,0.5
2017-11-14,0.420560747663551
2017-11-15,0.6762589928057555
2017-11-16,0.7768595041322314
2017-11-17,0.8137931034482762
2017-11-20,0.46994535519125746
2017-11-21,0.6380090497737559
2017-11-22,0.41818181818181926
2017-11-23,0.4360189573459718
2017-11-24,0.24663677130044728
2017-11-27,0.6449275362318836
2017-11-28,0.44890510948905155
2017-11-29,0.5944881889763768
2017-11-30,0.6982248520710063
2017-12-01,0.8463768115942035
2017-12-04,0.6425855513307976
2017-12-05,0.8776119402985058
2017-12-06,0.8608414239482176
2017-12-07,0.8496503496503467
2017-12-08,0.7391304347826061
2017-12-11,0.7937054536718202
2017-12-12,0.39652467720526136
2017-12-13,0.37494294842537773
2017-12-14,0.0
2017-12-15,0.0
2017-12-18,0.0
2017-12-19,0.0
2017-12-20,0.060143288084464286
2017-12-21,0.09202365498341249
2017-12-22,0.10091743119266036
2017-12-25,0.23232323232323254
2017-12-26,0.43396226415094363
2017-12-27,0.34782608695651573
2017-12-28,0.37209302325581134
2017-12-29,0.3478260869565223
2018-01-02,0.3181818181818243
2018-01-03,0.28571428571429064
2018-01-04,0.14925373134329092
2018-01-05,0.22448979591836915
2018-01-08,0.6470588235294119
2018-01-09,0.46874999999999767
2018-01-10,0.5168539325842697
2018-01-11,0.5542168674698795
2018-01-12,0.48913043478261115
2018-01-15,0.010416666666670986
2018-01-16,0.4173228346456699
2018-01-17,0.41269841269840996
2018-01-18,0.4999999999999963
2018-01-19,0.6279069767441818
2018-01-22,0.9999999999999952
2018-01-23,0.3877551020408147
2018-01-24,0.3762376237623763
2018-01-25,0.36363636363636653
2018-01-26,0.1923076923077012
2018-01-29,0.1710526315789612
2018-01-30,0.520000000000015
2018-01-31,0.80851063829787
2018-02-01,0.7234042553191409
2018-02-02,0.4444444444444399
2018-02-05,0.45945945945945144
2018-02-06,0.4533333333333282
2018-02-07,0.11842105263157737
2018-02-08,0.11842105263157798
2018-02-09,0.24528301886792425
2018-02-12,0.25925925925925347
2018-02-13,0.2545454545454508
2018-02-14,0.6250000000000068
2018-02-22,0.702702702702711
2018-02-23,0.6470588235294201
2018-02-26,0.6571428571428737
2018-02-27,0.9696969696969703
2018-02-28,0.4666666666666624
2018-03-01,0.6619718309859116
2018-03-02,0.6891891891891854
2018-03-05,0.3738317757009291
2018-03-06,0.3039215686274484
2018-03-07,0.5247524752475226
2018-03-08,0.36842105263157693
2018-03-09,0.5
2018-03-12,0.9402985074626873
2018-03-13,0.8630136986301387
2018-03-14,0.6507936507936554
2018-03-15,0.4875000000000054
2018-03-16,0.17241379310345234
2018-03-19,0.36283185840707954
2018-03-20,0.43119266055045874
2018-03-21,0.5098039215686275
2018-03-22,0.6770833333333334
2018-03-23,1.0
2018-03-26,0.9225352112676055
2018-03-27,0.9308176100628931
2018-03-28,0.8827160493827165
2018-03-29,0.8441558441558448
2018-03-30,0.15972222222222462
2018-04-02,0.1554054054054078
2018-04-03,0.07407407407407114
2018-04-04,0.1818181818181793
2018-04-09,0.4196891191709844
2018-04-10,0.7043478260869538
2018-04-11,0.7105263157894711
2018-04-12,0.6924648777544737
2018-04-13,0.643738221332856
2018-04-16,0.04376038357282516
2018-04-17,0.13196313746890065
2018-04-18,0.19329732294384613
2018-04-19,0.12485867774090936
2018-04-20,0.32148739734110815
2018-04-23,0.711000077017869
2018-04-24,0.7835743149956576
2018-04-25,0.7676767676767712
2018-04-26,0.8539325842696613
2018-04-27,0.44660194174757084
2018-05-02,0.35869565217391386
2018-05-03,0.0
2018-05-04,0.12727272727273
2018-05-07,0.2222222222222264
2018-05-08,0.36923076923077625
2018-05-09,0.45833333333333687
2018-05-10,0.94285714285715
2018-05-11,0.46341463414634215
2018-05-14,0.4634146341463364
2018-05-15,0.6557377049180276
2018-05-16,0.7162162162162127
2018-05-17,0.7260273972602692
2018-05-18,0.8281249999999988
2018-05-21,0.5733333333333308
2018-05-22,0.5492957746478857
2018-05-23,0.18085106382978652
2018-05-24,0.1894736842105246
2018-05-25,0.47619047619047306
2018-05-28,0.5555555555555535
2018-05-29,0.31386861313868397
2018-05-30,0.5196078431372523
2018-05-31,0.6111111111111114
2018-06-01,0.3365384615384649
2018-06-04,0.400000000000005
2018-06-05,0.7647058823529472
2018-06-06,0.5851063829787301
2018-06-07,0.5617977528089914
2018-06-08,0.4950495049504978
2018-06-11,0.548672566371682
2018-06-12,0.4456521739130399
2018-06-13,0.6144578313253002
2018-06-14,0.30097087378640847
2018-06-15,0.4594594594594544
2018-06-19,0.374999999999996
2018-06-20,0.3636363636363637
2018-06-21,0.475000000000001
2018-06-22,0.8260869565217446
2018-06-25,0.795454545454548
2018-06-26,0.5853658536585447
2018-06-27,0.45283018867924824
2018-06-28,0.0
2018-06-29,0.490196078431374
2018-07-02,0.6794871794871844
2018-07-03,0.5145631067961182
2018-07-04,0.7482517482517484
2018-07-05,0.7229729729729749
2018-07-06,0.6406250000000017
2018-07-09,0.421875
2018-07-10,0.6583333333333333
2018-07-11,0.238095238095236
2018-07-12,0.31428571428570923
2018-07-13,0.4122807017543822
2018-07-16,0.5568181818181765
2018-07-17,0.29268292682926234
2018-07-18,0.38095238095237444
2018-07-19,0.246153846153842
2018-07-20,0.03225806451612423
2018-07-23,0.0
2018-07-24,0.39705882352941213
2018-07-25,0.7162162162162145
2018-07-26,0.7162162162162184
2018-07-27,0.6022727272727288
2018-07-30,0.7286821705426372
2018-07-31,0.5403225806451638
2018-08-01,0.4722222222222262
2018-08-02,0.6887417218543068
2018-08-03,0.8971962616822448
2018-08-06,0.9083333333333348
2018-08-07,1.0
2018-08-08,1.0
2018-08-09,0.8747420857504857
2018-08-10,0.7321486060137782
2018-08-13,0.33475262299710007
2018-08-14,0.45453063750529743
2018-08-15,0.33724922575550803
2018-08-16,0.584066949244649
2018-08-17,0.6242825446477296
2018-08-20,0.944482104861724
2018-08-21,0.7492332329072023
2018-08-22,0.8519313304721026
2018-08-23,0.7789473684210514
2018-08-24,0.6829836829836818
2018-08-27,0.32009925558312563
2018-08-28,0.39882697947214063
2018-08-29,0.021671826625388288
2018-08-30,0.018276762402089895
2018-08-31,0.07428571428571569
2018-09-03,0.22500000000000214
2018-09-04,0.17472118959107852
2018-09-05,0.2611111111111114
2018-09-06,0.3381294964028756
2018-09-07,0.39473684210526194
2018-09-10,0.1987577639751557
2018-09-11,0.3111111111111117
2018-09-12,0.6011235955056177
2018-09-13,0.7730061349693265
2018-09-14,0.4771573604060925
2018-09-17,0.6000000000000021
2018-09-18,0.5085714285714313
2018-09-19,0.14723926380368368
2018-09-20,0.030864197530867193
2018-09-21,0.11650485436893279
2018-09-25,0.06422018348623475
2018-09-26,0.3787878787878723
2018-09-27,0.431034482758615
2018-09-28,0.6417910447761147
2018-10-08,0.7525773195876272
2018-10-09,0.837719298245614
2018-10-10,0.66666666666667
2018-10-11,0.8355555555555592
2018-10-12,0.8477366255144069
2018-10-15,0.6347031963470368
2018-10-16,0.5897435897435948
2018-10-17,0.6845238095238066
2018-10-18,0.4901960784313707
2018-10-19,0.12209302325581364
2018-10-22,0.1544117647058801
2018-10-23,0.0
2018-10-24,0.14957264957265207
2018-10-25,0.4081632653061222
2018-10-26,0.5333333333333327
2018-10-29,0.7030303030303037
2018-10-30,0.9854014598540152
2018-10-31,0.9251968503937004
2018-11-01,0.7812499999999979
2018-11-02,0.8020833333333309
2018-11-05,0.21538461538461523
2018-11-06,0.2572815533980591
2018-11-07,0.40000000000000036
2018-11-08,0.3432835820895535
2018-11-09,0.3271375464684019
2018-11-12,0.656250000000001
2018-11-13,0.34841628959276094
2018-11-14,0.3924050632911411
2018-11-15,0.44927536231884163
2018-11-16,0.5477178423236522
2018-11-19,0.417777777777778
2018-11-20,0.6988636363636356
2018-11-21,0.42236024844720427
2018-11-22,0.6457142857142852
2018-11-23,0.597402597402597
2018-11-26,0.6013071895424822
2018-11-27,0.48837209302325385
2018-11-28,0.46323529411764675
2018-11-29,0.15789473684210462
2018-11-30,0.11111111111110794
2018-12-03,0.6323529411764719
2018-12-04,0.7734627831715222
2018-12-05,0.9148148148148147
2018-12-06,1.0
2018-12-07,0.9806201550387608
2018-12-10,0.759776536312849
2018-12-11,0.16352201257861276
2018-12-12,0.10465116279069779
2018-12-13,0.0
2018-12-14,0.0
2018-12-17,0.0
2018-12-18,0.0
2018-12-19,0.0
2018-12-20,0.0
2018-12-21,0.15652627801519983
2018-12-24,0.6232593423951391
2018-12-25,0.8567106655077356
2018-12-26,0.623529411764705
2018-12-27,0.8248175182481755
2018-12-28,0.5900621118012421
2019-01-02,0.5028571428571429
2019-01-03,0.32258064516129015
2019-01-04,0.4301675977653621
2019-01-07,0.08854166666666557
2019-01-08,0.14193548387096688
2019-01-09,0.2533333333333312
2019-01-10,0.28148148148147867
2019-01-11,0.1489361702127643
2019-01-14,0.3815789473684211
2019-01-15,0.3287671232876713
2019-01-16,0.11267605633803426
2019-01-17,0.18750000000000924
2019-01-18,0.6279069767441962
2019-01-21,0.8222222222222244
2019-01-22,0.893939393939396
2019-01-23,0.9833333333333297
2019-01-24,0.8931297709923631
2019-01-25,0.893129770992363
2019-01-28,0.688888888888889
2019-01-29,0.26086956521739124
2019-01-30,0.46153846153846373
2019-01-31,0.5934065934065962
2019-02-01,0.4444444444444467
2019-02-11,0.37894736842105275
2019-02-12,0.5263157894736841
2019-02-13,0.4375000000000003
2019-02-14,0.5813953488372092
2019-02-15,0.7666666666666652
2019-02-18,1.0
2019-02-19,0.8000000000000013
2019-02-20,0.5813953488372087
2019-02-21,0.4285714285714266
2019-02-22,0.1311475409836077
2019-02-25,0.0
2019-02-26,0.229357798165136
2019-02-27,0.36734693877550983
2019-02-28,0.33027522935779746
2019-03-01,0.680851063829785
2019-03-04,0.8416666666666656
2019-03-05,0.6468085106382966
2019-03-06,0.6121495327102788
2019-03-07,0.8148148148148135
2019-03-08,0.48034934497816567
2019-03-11,0.28571428571428475
2019-03-12,0.4343891402714947
2019-03-13,0.3784860557768933
2019-03-14,0.12389380530973736
2019-03-15,0.31868131868132105
2019-03-18,0.5780346820809267
2019-03-19,0.42603550295858017
2019-03-20,0.5875000000000025
2019-03-21,0.6143790849673199
2019-03-22,0.43243243243243323
2019-03-25,0.16793893129771167
2019-03-26,0.17741935483871044
2019-03-27,0.06422018348624242
2019-03-28,0.48854961832061383
2019-03-29,0.6585365853658537
2019-04-01,0.8411214953270988
2019-04-02,1.0
2019-04-03,0.7999999999999977
2019-04-04,0.321100917431186
2019-04-08,0.2043010752688109
2019-04-09,0.10752688172042678
2019-04-10,0.01136363636363662
2019-04-11,0.135135135135132
2019-04-12,0.7450980392156884
2019-04-15,0.6783628273693035
2019-04-16,0.6119820609040099
2019-04-17,0.5680563140967235
2019-04-18,0.6708302310847598
2019-04-19,0.3447377343855243
2019-04-22,0.3283766325699956
2019-04-23,0.34059766696954497
2019-04-24,0.43562892294570327
2019-04-25,0.08306558783454153
2019-04-26,0.5041322314049596
2019-04-29,0.47286821705426285
2019-04-30,0.5294117647058793
2019-05-06,0.5999999999999975
2019-05-07,0.8396226415094332
2019-05-08,0.3673469387755113
2019-05-09,0.3913043478260879
2019-05-10,0.43434343434343614
2019-05-13,0.16279069767442178
2019-05-14,0.41935483870968
2019-05-15,0.5977011494252901
2019-05-16,0.7600000000000033
2019-05-17,0.644230769230769
2019-05-20,0.8510638297872315
2019-05-21,0.61111111111111
2019-05-22,0.7132867132867118
2019-05-23,0.7302631578947348
2019-05-24,0.8549222797927469
2019-05-27,0.5656565656565664
2019-05-28,0.6511627906976729
2019-05-29,0.6226415094339603
2019-05-30,0.49999999999999845
2019-05-31,0.10810810810810692
2019-06-03,0.5940594059405918
2019-06-04,0.6060606060606065
2019-06-05,0.5052631578947381
2019-06-06,0.47058823529411786
2019-06-10,0.5925925925925933
2019-06-11,0.0
2019-06-12,0.03448275862068907
2019-06-13,0.3599999999999998
2019-06-14,0.33750000000000085
2019-06-17,0.5176470588235303
2019-06-18,0.48351648351648485
2019-06-19,0.4565217391304375
2019-06-20,0.1931818181818197
2019-06-21,0.3291139240506319
2019-06-24,0.1232876712328731
2019-06-25,0.43548387096773844
2019-06-26,0.34615384615383943
2019-06-27,0.5999999999999919
2019-06-28,0.6590909090909043
2019-07-01,0.7888888888888846
2019-07-02,0.7912087912087873
2019-07-03,1.0
2019-07-04,0.9268292682926844
2019-07-05,0.5142857142857173
2019-07-08,0.44565217391304635
2019-07-09,0.43956043956044394
2019-07-10,0.37037037037037274
2019-07-11,0.2857142857142868
2019-07-12,0.6296296296296273
2019-07-15,0.49038461538461325
2019-07-16,0.3027522935779765
2019-07-17,0.16666666666666316
2019-07-18,0.311926605504584
2019-07-19,0.35897435897436036
2019-07-22,0.563025210084035
2019-07-23,0.6700000000000065
2019-07-24,0.9493670886076016
2019-07-25,0.7469879518072402
2019-07-26,0.3750000000000068
2019-07-29,0.08695652173913389
2019-07-30,0.06896551724138172
2019-07-31,0.07692307692307386
2019-08-01,0.08999999999999565
2019-08-02,0.2962962962962944
2019-08-05,0.7741935483870931
2019-08-06,0.9896907216494828
2019-08-07,0.9901960784313709
2019-08-08,0.9921875000000019
2019-08-09,0.8235294117647013
2019-08-12,0.3333333333333309
2019-08-13,0.34166666666666223
2019-08-14,0.22881355932203015
2019-08-15,0.009433962264148688
2019-08-16,0.01161267517777431
2019-08-19,0.02395196740644932
2019-08-20,0.017568850902182704
2019-08-21,0.37056056448451885
2019-08-22,0.31254236167363925
2019-08-23,0.3034476117103199
2019-08-26,0.5179276550532027
2019-08-27,0.5885521703233489
2019-08-28,0.3211453577345821
2019-08-29,0.6086956521739163
2019-08-30,0.6363636363636415
2019-09-02,0.7000000000000036
2019-09-03,0.5172413793103487
2019-09-04,0.5232558139534909
2019-09-05,0.5543478260869563
2019-09-06,0.57142857142857
2019-09-09,0.32467532467532056
2019-09-10,0.3731343283582017
2019-09-11,0.5531914893616897
2019-09-12,0.027397260273966238
2019-09-16,0.3173076923076934
2019-09-17,0.5166666666666683
2019-09-18,0.7326203208556175
2019-09-19,0.7382198952879611
2019-09-20,1.0
2019-09-23,0.9705882352941149
2019-09-24,0.705479452054793
2019-09-25,0.2477876106194674
2019-09-26,0.4333333333333317
2019-09-27,0.38848920863309183
2019-09-30,0.5149700598802398
2019-10-08,0.6466165413533828
2019-10-09,0.8431372549019601
2019-10-10,0.6666666666666623
2019-10-11,0.6393442622950847
2019-10-14,0.09722222222223433
2019-10-15,0.16666666666667956
2019-10-16,0.5000000000000046
2019-10-17,0.37404580152672473
2019-10-18,0.26923076923076955
2019-10-21,0.4580152671755708
2019-10-22,0.3900709219858135
2019-10-23,0.1333333333333314
2019-10-24,0.19587628865979223
2019-10-25,0.5157894736842116
2019-10-28,0.2767857142857158
2019-10-29,0.28703703703703726
2019-10-30,0.3444444444444415
2019-10-31,0.3124999999999941
2019-11-01,0.0
2019-11-04,0.0
2019-11-05,0.24285714285713902
2019-11-06,0.44444444444444087
2019-11-07,0.5975609756097552
2019-11-08,0.9024390243902448
2019-11-11,1.0
2019-11-12,1.0
2019-11-13,0.7678571428571438
2019-11-14,0.7113402061855705
2019-11-15,0.4888888888888929
2019-11-18,0.011111111111116052
2019-11-19,0.35507246376811585
2019-11-20,0.43749999999999784
2019-11-21,0.4414414414414383
2019-11-22,0.5510204081632629
2019-11-25,0.9897959183673425
2019-11-26,0.5647058823529425
2019-11-27,0.5393258426966351
2019-11-28,0.5698924731182848
2019-11-29,0.4444444444444452
2019-12-02,0.05319148936170174
2019-12-03,0.07692307692307637
2019-12-04,0.23287671232876747
2019-12-05,0.1690140845070434
2019-12-06,0.4000000000000065
2019-12-09,0.7619047619047659
2019-12-10,0.5614035087719307
2019-12-11,0.47916666666666957
2019-12-12,0.6666666666666691
2019-12-13,0.4536337643494258
2019-12-16,0.3141910614662788
2019-12-17,0.5581318997004185
2019-12-18,0.6028060942168904
2019-12-19,0.27409171637117663
2019-12-20,0.39183758163510335
2019-12-23,0.5161863253892248
2019-12-24,0.3712572254335212
2019-12-25,0.19007307431217924
2019-12-26,0.3888888888888787
2019-12-27,0.2666666666666457
2019-12-30,0.35294117647058443
2019-12-31,0.6792452830188656
2020-01-02,0.7659574468085055
2020-01-03,0.8513513513513508
2020-01-06,0.898148148148148
2020-01-07,0.8921568627450971
2020-01-08,0.9126984126984117
2020-01-09,1.0
2020-01-10,0.8663366336633651
2020-01-13,0.8593749999999983
2020-01-14,0.8720379146919418
2020-01-15,0.6834170854271341
2020-01-16,0.2768361581920889
2020-01-17,0.45405405405405297
2020-01-20,0.2821782178217812
2020-01-21,0.18041237113401978
2020-01-22,0.21212121212121138
2020-01-23,0.374999999999997
2020-02-03,0.040816326530610084
2020-02-04,0.23076923076922976
2020-02-05,0.3571428571428657
2020-02-06,0.25641025641026377
2020-02-07,0.19277108433735912
2020-02-10,0.3770491803278846
2020-02-11,0.1481481481481603
2020-02-12,0.13750000000000276
2020-02-13,0.21568627450980732
2020-02-14,0.22448979591836704
2020-02-17,0.06451612903225448
2020-02-18,0.12903225806450788
2020-02-19,0.0
2020-02-20,0.0
2020-02-21,0.0
2020-02-24,0.5675675675675661
2020-02-25,0.7117117117117122
2020-02-26,0.9711538461538454
2020-02-27,0.9266055045871635
2020-02-28,0.9577464788732415
2020-03-02,0.9400000000000033
2020-03-03,0.8769230769230795
2020-03-04,0.4605263157894772
2020-03-05,0.5270270270270319
2020-03-06,0.052631578947377626
2020-03-09,0.028776978417269828
2020-03-10,0.3954545454545464
2020-03-11,0.5454545454545462
2020-03-12,0.6138996138996122
2020-03-13,0.7717391304347819
2020-03-16,1.0
2020-03-17,0.584967320261437
2020-03-18,0.5808580858085796
2020-03-19,0.49442379182156254
2020-03-20,0.3211382113821142
2020-03-23,0.1608040201005018
2020-03-24,0.6000000000000014
2020-03-25,0.3370786516853938
2020-03-26,0.28301886792452513
2020-03-27,0.5631067961165013
2020-03-30,0.5754716981132054
2020-03-31,0.44444444444444176
2020-04-01,0.444444444444442
2020-04-02,0.8467741935483879
2020-04-03,0.5968992248062039
2020-04-07,0.4965517241379312
2020-04-08,0.43125000000000074
2020-04-09,0.5838150289017344
2020-04-10,0.21192052980132425
2020-04-13,0.4591831928022963
2020-04-14,0.6533239353019734
2020-04-15,0.7476399510465803
2020-04-16,0.6810706300502222
2020-04-17,0.8711497255314454
2020-04-20,0.5516207097875498
2020-04-21,0.26686973503949757
2020-04-22,0.0418343604578011
2020-04-23,0.03358703472300862
2020-04-24,0.08749999999999766
2020-04-27,0.1076923076923045
2020-04-28,0.0547945205479454
2020-04-29,0.2297297297297298
2020-04-30,0.4193548387096774
2020-05-06,0.5499999999999999
2020-05-07,0.8607594936708862
2020-05-08,0.666666666666665
2020-05-11,0.47008547008546797
2020-05-12,0.3458646616541341
2020-05-13,0.17266187050359658
2020-05-14,0.0
2020-05-15,0.0
2020-05-18,0.1960784313725514
2020-05-19,0.2409638554216904
2020-05-20,0.477611940298513
2020-05-21,0.6153846153846172
2020-05-22,0.8586956521739139
2020-05-25,0.6276595744680861
2020-05-26,0.551401869158877
2020-05-27,0.47959183673469274
2020-05-28,0.5053763440860214
2020-05-29,0.0
2020-06-01,0.07058823529412028
2020-06-02,0.13043478260869884
2020-06-03,0.12000000000000295
2020-06-04,0.1578947368421082
2020-06-05,0.40000000000000513
2020-06-08,0.15789473684210326
2020-06-09,0.21951219512194847
2020-06-10,0.1525423728813546
2020-06-11,0.2537313432835801
2020-06-12,0.43055555555555053
2020-06-15,0.6746987951807228
2020-06-16,0.7032967032967034
2020-06-17,1.0
2020-06-18,0.8181818181818178
2020-06-19,0.7894736842105271
2020-06-22,0.45454545454545464
2020-06-23,0.2876712328767122
2020-06-24,0.027027027027030342
2020-06-29,0.20000000000000362
2020-06-30,0.15000000000000055
2020-07-01,0.21428571428571533
2020-07-02,0.44262295081967395
2020-07-03,0.7199999999999999
2020-07-06,0.6499999999999998
2020-07-07,0.9591836734693876
2020-07-08,1.0
2020-07-09,0.6290322580645177
2020-07-10,0.6714285714285727
2020-07-13,0.6849315068493173
2020-07-14,0.4084507042253548
2020-07-15,0.5227272727272712
2020-07-16,0.7164179104477596
2020-07-17,0.6274509803921555
2020-07-20,0.5869565217391243
2020-07-21,0.8709677419354834
2020-07-22,0.08108108108108775
2020-07-23,0.30612244897958824
2020-07-24,0.4687499999999979
2020-07-27,0.3614457831325291
2020-07-28,0.4096385542168658
2020-07-29,0.7285714285714275
2020-07-30,0.5068493150684931
2020-07-31,0.33333333333333354
2020-08-03,0.6567164179104491
2020-08-04,0.5714285714285728
2020-08-05,0.38983050847457873
2020-08-06,0.6274509803921606
2020-08-07,0.40506329113924416
2020-08-10,0.20338983050847445
2020-08-11,0.2068965517241379
2020-08-12,0.3749999999999974
2020-08-13,0.2205882352941108
2020-08-14,0.4571428571428419
2020-08-17,0.22702752125810619
2020-08-18,0.42388648009459223
2020-08-19,0.18029337852842942
2020-08-20,0.3246548092674909
2020-08-21,0.3283095723014265
2020-08-24,0.47143981117231054
2020-08-25,0.23893259293537533
2020-08-26,0.6304118268215473
2020-08-27,0.2935715006559755
2020-08-28,0.31034482758621174
2020-08-31,0.42857142857143027
2020-09-01,0.7821782178217824
2020-09-02,0.7096774193548386
2020-09-03,0.9324324324324309
2020-09-04,0.9519230769230758
2020-09-07,0.9042553191489351
2020-09-08,0.5217391304347795
2020-09-09,0.7586206896551724
2020-09-10,0.7910447761194035
2020-09-11,0.525179856115109
2020-09-14,0.5602836879432639
2020-09-15,0.7654320987654323
2020-09-16,0.4768211920529799
2020-09-17,0.39230769230769175
2020-09-18,0.6132075471698119
2020-09-21,0.5728155339805819
2020-09-22,0.20588235294118054
2020-09-23,0.5666666666666704
2020-09-24,0.6750000000000034
2020-09-25,0.34210526315789347
2020-09-28,0.4054054054053998
2020-09-29,0.29411764705881666
2020-09-30,0.5384615384615359
2020-10-09,0.41558441558441234
2020-10-12,0.6489361702127627
2020-10-13,0.5673076923076915
2020-10-14,0.5514018691588815
2020-10-15,0.2843137254901959
2020-10-16,0.3663366336633662
2020-10-19,0.10810810810810773
2020-10-20,0.11267605633802796
2020-10-21,0.7352941176470583
2020-10-22,0.8403361344537832
2020-10-23,0.8214285714285723
2020-10-26,0.8461538461538474
2020-10-27,0.9249999999999995
2020-10-28,0.180952380952381
2020-10-29,0.30357142857142894
2020-10-30,0.47972972972973077
2020-11-02,0.3999999999999991
2020-11-03,0.4000000000000001
2020-11-04,0.776470588235292
2020-11-05,0.6623376623376618
2020-11-06,0.18181818181817958
2020-11-09,0.2372881355932186
2020-11-10,0.03921568627450947
2020-11-11,0.4024390243902427
2020-11-12,0.4683544303797444
2020-11-13,0.937500000000002
2020-11-16,0.9652173913043481
2020-11-17,1.0
2020-11-18,0.7788461538461555
2020-11-19,0.8283582089552243
2020-11-20,0.4899328859060389
2020-11-23,0.37704918032786633
2020-11-24,0.3439999999999955
2020-11-25,0.38738738738738304
2020-11-26,0.284210526315791
2020-11-27,0.7368421052631635
2020-11-30,0.3267326732673342
2020-12-01,0.4745762711864467
2020-12-02,0.4955752212389425
2020-12-03,0.3304347826086977
2020-12-04,0.28703703703703504
2020-12-07,0.6417910447761104
2020-12-08,0.38461538461536887
2020-12-09,0.499999999999985
2020-12-10,0.5599999999999873
2020-12-11,0.8239999999999988
2020-12-14,0.786221702476746
2020-12-15,0.8623210073424417
2020-12-16,0.8120374604142392
2020-12-17,0.7936770669535786
2020-12-18,0.13430499853272115
2020-12-21,0.20775766531215048
2020-12-22,0.28438193436441556
2020-12-23,0.5167295658150177
2020-12-24,0.6881163345206206
2020-12-25,0.929032258064513
2020-12-28,0.9497716894977146
2020-12-29,0.8272727272727234
2020-12-30,0.6142857142857091
2020-12-31,0.3509615384615349
2021-01-04,0.3476190476190459
2021-01-05,0.0
2021-01-06,0.0
2021-01-07,0.030120481927713706
2021-01-08,0.30967741935484266
2021-01-11,0.33802816901408705
2021-01-12,0.9599999999999983
2021-01-13,0.9696969696969707
2021-01-14,0.9693877551020416
2021-01-15,0.6265060240963849
2021-01-18,0.6555555555555589
2021-01-19,0.13750000000000148
2021-01-20,0.13414634146341606
2021-01-21,0.19318181818182678
2021-01-22,0.18681318681319464
2021-01-25,0.20430107526881958
2021-01-26,0.4375000000000079
2021-01-27,0.3043478260869586
2021-01-28,0.16363636363636333
2021-01-29,0.44545454545454094
2021-02-01,0.3100775193798443
2021-02-02,0.2583333333333308
2021-02-03,0.5087719298245599
2021-02-04,0.7052631578947393
2021-02-05,0.37500000000000117
2021-02-08,0.5789473684210509
2021-02-09,0.46315789473684277
2021-02-10,0.49000000000000304
2021-02-18,0.5233644859813106
2021-02-19,0.8318584070796498
2021-02-22,0.8741721854304668
2021-02-23,1.0
2021-02-24,0.7853107344632766
2021-02-25,0.8031088082901554
2021-02-26,0.7900552486187835
2021-03-01,0.7900552486187832
2021-03-02,0.697986577181208
2021-03-03,0.9545454545454555
2021-03-04,0.6886227544910174
2021-03-05,0.6338028169014113
2021-03-08,0.318840579710149
2021-03-09,0.31205673758865726
2021-03-10,0.3120567375886547
2021-03-11,0.5357142857142875
2021-03-12,0.3806451612903192
2021-03-15,0.4436090225563879
2021-03-16,0.418439716312052
2021-03-17,0.08988764044943727
2021-03-18,0.0
2021-03-19,0.34653465346534656
2021-03-22,0.3240740740740743
2021-03-23,0.3482587064676608
2021-03-24,0.5303030303030252
2021-03-25,0.5833333333333255
2021-03-26,0.0
2021-03-29,0.0
2021-03-30,0.13492063492063913
2021-03-31,0.25190839694657274
2021-04-01,0.22448979591837617
2021-04-02,0.8000000000000089
2021-04-06,0.8560000000000069
2021-04-07,0.6818181818181834
2021-04-08,0.5692307692307685
2021-04-09,0.7266187050359644
2021-04-12,0.6779661016949057
2021-04-13,0.5603448275861973
2021-04-14,0.7296042706278254
2021-04-15,0.8853029494068237
2021-04-16,0.853545560917119
2021-04-19,0.2719058625761776
2021-04-20,0.33175381671315807
2021-04-21,0.4108059559302524
2021-04-22,0.2489623291658719
2021-04-23,0.2234482255224302
2021-04-26,0.7917839593570428
2021-04-27,0.7961165048543694
2021-04-28,0.6951219512195156
2021-04-29,0.7702702702702834
2021-04-30,0.8648648648648758
2021-05-06,0.6875000000000161
2021-05-07,0.6666666666666852
2021-05-10,0.8421052631579065
2021-05-11,1.0
2021-05-12,1.0
2021-05-13,1.0
2021-05-14,1.0
2021-05-17,1.0
2021-05-18,0.9942857142857139
2021-05-19,0.7514619883040928
2021-05-20,0.6052631578947355
2021-05-21,0.21126760563380131
2021-05-24,0.0
2021-05-25,0.0
2021-05-26,0.3085937499999985
2021-05-27,0.3147410358565731
2021-05-28,0.5496688741721872
2021-05-31,0.5187500000000023
2021-06-01,0.4911242603550342
2021-06-02,0.028169014084511976
2021-06-03,0.02836879432624612
2021-06-04,0.0
2021-06-07,0.16312056737588956
2021-06-08,0.2047244094488189
2021-06-09,0.19402985074626788
2021-06-10,0.19259259259259093
2021-06-11,0.20155038759689825
2021-06-15,0.027522935779812307
2021-06-16,0.0
2021-06-17,0.0
2021-06-18,0.415384615384623
2021-06-21,0.4736842105263191
2021-06-22,0.6493506493506603
2021-06-23,0.9019607843137313
2021-06-24,0.9399999999999947
2021-06-25,0.8271604938271507
2021-06-28,0.9310344827586181
2021-06-29,0.5214723926380342
2021-06-30,0.37600000000000017
2021-07-01,0.365853658536588
2021-07-02,0.3237410071942483
2021-07-05,0.03571428571428726
2021-07-06,0.2692307692307701
2021-07-07,0.3559322033898285
2021-07-08,0.4647887323943646
2021-07-09,0.8082191780821905
2021-07-12,0.6781609195402284
2021-07-13,0.5903614457831334
2021-07-14,0.36893203883495296
2021-07-15,0.4247787610619507
2021-07-16,0.44915254237288366
2021-07-19,0.6890756302521034
2021-07-20,0.7720588235294128
2021-07-21,1.0
2021-07-22,0.9782608695652163
2021-07-23,0.7468354430379761
2021-07-26,0.47619047619047966
2021-07-27,0.10447761194030289
2021-07-28,0.0
2021-07-29,0.0
2021-07-30,0.32758620689655
2021-08-02,0.5255474452554753
2021-08-03,0.7397260273972589
2021-08-04,0.7659574468085132
2021-08-05,0.9250000000000014
2021-08-06,0.544776119402987
2021-08-09,0.3679245283018813
2021-08-10,0.038961038961033305
2021-08-11,0.09722222222221084
2021-08-12,0.07142857142856632
2021-08-13,0.0966842331904698
2021-08-16,0.07231262365228129
2021-08-17,0.06270196949345962
2021-08-18,0.07712250563034209
2021-08-19,0.14839785413948656
2021-08-20,0.3132333362918354
2021-08-23,0.8596937697100887
2021-08-24,1.0
2021-08-25,0.9322817050769753
2021-08-26,0.9333333333333301
2021-08-27,0.9344262295081934
2021-08-30,0.3948717948717941
2021-08-31,0.10752688172042917
2021-09-01,0.3556485355648547
2021-09-02,0.3203463203463212
2021-09-03,0.2777777777777792
2021-09-06,0.49618320610687017
2021-09-07,0.8959537572254324
2021-09-08,0.6338028169014083
2021-09-09,0.6956521739130437
2021-09-10,0.8310502283105022
2021-09-13,0.8855218855218856
2021-09-14,0.6577946768060818
2021-09-15,0.8216560509554125
2021-09-16,0.8095238095238081
2021-09-17,0.778656126482212
2021-09-22,0.6666666666666679
2021-09-23,0.9893617021276622
2021-09-24,0.7372262773722663
2021-09-27,0.8823529411764722
2021-09-28,0.8956521739130449
2021-09-29,0.9068493150684932
2021-09-30,0.9207459207459209
2021-10-08,1.0
2021-10-11,1.0
2021-10-12,1.0
2021-10-13,1.0
2021-10-14,0.8212058212058219
2021-10-15,0.7063711911357351
2021-10-18,0.6620498614958453
2021-10-19,0.49086161879895673
2021-10-20,0.0
2021-10-21,0.18260869565217155
2021-10-22,0.377777777777778
2021-10-25,0.29737609329446146
2021-10-26,0.41666666666666835
2021-10-27,0.6787003610108323
2021-10-28,0.618644067796615
2021-10-29,0.25748502994012096
2021-11-01,0.31272727272727324
2021-11-02,0.48780487804877976
2021-11-03,0.25339366515837036
2021-11-04,0.2010771992818664
2021-11-05,0.33410672853828205
2021-11-08,0.3792270531400959
2021-11-09,0.08474576271186417
2021-11-10,0.11138613861386111
2021-11-11,0.15100671140939528
2021-11-12,0.06642066420664205
2021-11-15,0.016501650165016375
2021-11-16,0.215909090909088
2021-11-17,0.12418300653594604
2021-11-18,0.11111111111111041
2021-11-19,0.0666666666666661
2021-11-22,0.14689265536722995
2021-11-23,0.07185628742514862
2021-11-24,0.12121212121212033
2021-11-25,0.16666666666666416
2021-11-26,0.3243243243243235
2021-11-29,0.0
2021-11-30,0.0
2021-12-01,0.23076923076923095
2021-12-02,0.3586956521739059
2021-12-03,0.23913043478260357
2021-12-06,0.2682926829268237
2021-12-07,0.42968749999999967
2021-12-08,0.2959999999999973
2021-12-09,0.1896551724137974
2021-12-10,0.48684210526316835
2021-12-13,0.7741935483871024
2021-12-14,0.3968253968253992
2021-12-15,0.4159098813618286
2021-12-16,0.45845780158862404
2021-12-17,0.28325254888851753
2021-12-20,0.20542894200481768
2021-12-21,0.538595521814337
2021-12-22,0.5616138083070308
2021-12-23,0.31727323282254233
2021-12-24,0.5441272539806256
2021-12-27,0.4059778432377073
2021-12-28,0.2561983471074388
2021-12-29,0.20805369127516862
2021-12-30,0.3516483516483475
2021-12-31,0.012987012987007232
2022-01-04,0.013888888888882837
2022-01-05,0.012820512820507304
2022-01-06,0.362318840579706
2022-01-07,0.47619047619047344
2022-01-10,0.6582278481012671
2022-01-11,0.6341463414634176
2022-01-12,0.7323943661971888
2022-01-13,0.6122448979591876
2022-01-14,0.7710843373494035
2022-01-17,0.5416666666666689
2022-01-18,0.7606837606837606
2022-01-19,0.8711340206185563
2022-01-20,0.8067632850241563
2022-01-21,0.6157894736842123
2022-01-24,0.7714285714285738
2022-01-25,0.5482456140350896
2022-01-26,0.2556818181818195
2022-01-27,0.31360946745562107
2022-01-28,0.5229885057471259
2022-02-07,0.30666666666666476
2022-02-08,0.5663716814159313
2022-02-09,0.7356321839080443
2022-02-10,0.7261904761904755
2022-02-11,0.5208333333333406
2022-02-14,0.9666666666666637
2022-02-15,0.5970149253731255
2022-02-16,0.44943820224718645
2022-02-17,0.5504587155963244
2022-02-18,0.45312499999999584
2022-02-21,0.16025641025640847
2022-02-22,0.3456790123456781
2022-02-23,0.3835616438356184
2022-02-24,0.22627737226277517
2022-02-25,0.5526315789473698
2022-02-28,0.8965517241379333
2022-03-01,0.8349056603773622
2022-03-02,0.9025270758122752
2022-03-03,0.9690140845070434
2022-03-04,0.810810810810812
2022-03-07,0.8320000000000017
2022-03-08,0.8844444444444449
2022-03-09,0.8666666666666673
2022-03-10,0.8443113772455098
2022-03-11,1.0
2022-03-14,0.45364238410595953
2022-03-15,0.1802120141342757
2022-03-16,0.11343283582089626
2022-03-17,0.0
2022-03-18,0.0
2022-03-21,0.0
2022-03-22,0.0
2022-03-23,0.0
2022-03-24,0.21374045801527022
2022-03-25,0.564516129032263
2022-03-28,0.4761904761904791
2022-03-29,0.46357615894040244
2022-03-30,0.6982248520710074
2022-03-31,0.7315789473684218
2022-04-01,0.48989898989898734
2022-04-06,0.5300546448087421
2022-04-07,0.6263736263736216
2022-04-08,0.4615384615384569
2022-04-11,0.10759493670885582
2022-04-12,0.29457364341084635
2022-04-13,0.28148148148147517
2022-04-14,0.1378201556804236
2022-04-15,0.13809839561956808
2022-04-18,0.506368338366118
2022-04-19,0.33808495567413416
2022-04-20,0.44296275747278646
2022-04-21,0.6194765503861512
2022-04-22,0.7340468427382687
2022-04-25,0.6671336277218247
2022-04-26,1.0
2022-04-27,1.0
2022-04-28,1.0
2022-04-29,0.7945205479452023
2022-05-05,0.4808743169398922
2022-05-06,0.40119760479041955
2022-05-09,0.05263157894736982
2022-05-10,0.25517241379310546
2022-05-11,0.43884892086331284
2022-05-12,0.6559139784946212
2022-05-13,0.670329670329682
2022-05-16,0.4206896551724182
2022-05-17,0.16901408450704303
2022-05-18,0.008403361344536597
2022-05-19,0.007751937984495025
2022-05-20,0.16107382550334615
2022-05-23,0.5153846153846067
2022-05-24,0.7803030303030289
2022-05-25,0.6538461538461546
2022-05-26,0.8447204968944119
2022-05-27,0.5947368421052662
2022-05-30,0.4000000000000024
2022-05-31,0.23611111111111122
2022-06-01,0.3795620437956176
2022-06-02,0.13432835820895217
2022-06-06,0.3402061855670073
2022-06-07,0.41772151898733934
2022-06-08,0.4459459459459389
2022-06-09,0.24193548387096458
2022-06-10,0.3260869565217284
2022-06-13,0.36734693877550023
2022-06-14,0.6499999999999876
2022-06-15,0.7835051546391713
2022-06-16,0.672566371681415
2022-06-17,0.8281250000000016
2022-06-20,0.826771653543309
2022-06-21,0.8181818181818207
2022-06-22,0.5585585585585613
2022-06-23,0.7768595041322305
2022-06-24,0.8312499999999993
2022-06-27,0.7945205479452039
2022-06-28,0.7112676056338012
2022-06-29,0.6558441558441552
2022-06-30,0.4207317073170753
2022-07-01,0.0
2022-07-04,0.0
2022-07-05,0.0
2022-07-06,0.33333333333333315
2022-07-07,0.6559139784946212
2022-07-08,0.7052023121387301
2022-07-11,0.8654708520179388
2022-07-12,0.9110169491525445
2022-07-13,0.7200000000000032
2022-07-14,0.44711538461538736
2022-07-15,0.5104166666666681
2022-07-18,0.1626506024096368
2022-07-19,0.14197530864197846
2022-07-20,0.4670329670329678
2022-07-21,0.6564885496183186
2022-07-22,0.6230769230769221
2022-07-25,0.8099999999999978
2022-07-26,0.5779816513761408
2022-07-27,0.008620689655168474
2022-07-28,0.40414507772020664
2022-07-29,0.36111111111111044
2022-08-01,0.42523364485981224
2022-08-02,0.4117647058823528
2022-08-03,0.6592178770949714
2022-08-04,0.23529411764705618
2022-08-05,0.2945205479452015
2022-08-08,0.28965517241379285
2022-08-09,0.5035971223021576
2022-08-10,0.4850746268656721
2022-08-11,0.8783783783783901
2022-08-12,0.6391752577319697
2022-08-15,0.3875968992248108
2022-08-16,0.22783522762561603
2022-08-17,0.016214355948868775
2022-08-18,0.014581564799093942
2022-08-19,0.2687515678568457
2022-08-22,0.6496467758905804
2022-08-23,0.6407422820240114
2022-08-24,0.2573480252569004
2022-08-25,0.32920621344222156
2022-08-26,0.25198255505387535
2022-08-29,0.13636363636363238
2022-08-30,0.11999999999999773
2022-08-31,0.5079365079365115
2022-09-01,0.3698630136986346
2022-09-02,0.2394366197183152
2022-09-05,0.3770491803278802
2022-09-06,0.6714285714285747
2022-09-07,0.5000000000000022
2022-09-08,0.727272727272723
2022-09-09,0.865384615384615
2022-09-13,0.672413793103443
2022-09-14,0.2941176470588169
2022-09-15,0.47272727272726855
2022-09-16,0.5468750000000027
2022-09-19,0.6627906976744203
2022-09-20,0.804597701149427
2022-09-21,0.8333333333333288
2022-09-22,0.8292682926829228
2022-09-23,0.8715596330275198
2022-09-26,0.5151515151515151
2022-09-27,0.5646258503401378
2022-09-28,0.6014492753623241
2022-09-29,0.6783625730994182
2022-09-30,0.43750000000000094
2022-10-10,0.7333333333333336
2022-10-11,0.6666666666666651
2022-10-12,0.7096774193548361
2022-10-13,0.3739837398373982
2022-10-14,0.48936170212766084
2022-10-17,0.2258064516129097
2022-10-18,0.1414141414141468
2022-10-19,0.07766990291262257
2022-10-20,0.1095890410958923
2022-10-21,0.27160493827161014
2022-10-24,0.13207547169811623
2022-10-25,0.37209302325581245
2022-10-26,0.4567901234567912
2022-10-27,0.5822784810126572
2022-10-28,0.31683168316831267
2022-10-31,0.6086956521739069
2022-11-01,0.6635514018691523
2022-11-02,0.6896551724137867
2022-11-03,0.6173913043478199
2022-11-04,0.9252336448598129
2022-11-07,0.7211538461538506
2022-11-08,0.3157894736842179
2022-11-09,0.27777777777778434
2022-11-10,0.4071428571428631
2022-11-11,0.3941605839416061
2022-11-14,0.3884892086330921
2022-11-15,0.7526881720430074
2022-11-16,0.5294117647058775
2022-11-17,0.525423728813556
2022-11-18,0.47663551401869214
2022-11-21,0.7785234899328854
2022-11-22,0.7092198581560284
2022-11-23,0.941605839416058
2022-11-24,0.7714285714285702
2022-11-25,0.5662650602409626
2022-11-28,0.2871287128712867
2022-11-29,0.47540983606557485
2022-11-30,0.302083333333335
2022-12-01,0.386666666666671
2022-12-02,0.5576923076923167
2022-12-05,0.44615384615385123
2022-12-06,0.0
2022-12-07,0.22666666666666702
2022-12-08,0.15596330275229178
2022-12-09,0.18279569892472838
2022-12-12,0.15740740740740622
2022-12-13,0.15887850467289708
2022-12-14,0.0
2022-12-15,0.2036519928101058
2022-12-16,0.20326774885470608
2022-12-19,0.31872061881529085
2022-12-20,0.597817379343702
2022-12-21,0.977980539792042
2022-12-22,0.9678072411112867
2022-12-23,0.9970366729787982
2022-12-26,0.5324860004592893
2022-12-27,0.27045571051143874
2022-12-28,0.283333333333325
2022-12-29,0.14130434782608028
2022-12-30,0.24761904761904885
2023-01-03,0.6000000000000052
2023-01-04,0.5277777777777825
2023-01-05,0.4745762711864472
2023-01-06,0.7475728155339828
2023-01-09,0.4859813084112132
2023-01-10,0.24418604651161918
2023-01-11,0.2499999999999898
2023-01-12,0.4157303370786416
2023-01-13,0.22222222222222043
2023-01-16,0.2962962962962987
2023-01-17,0.6363636363636429
2023-01-18,0.7692307692307814
2023-01-19,0.7413793103448376
2023-01-20,0.8405797101449343
2023-01-30,1.0
2023-01-31,0.5360824742267968
2023-02-01,0.6086956521739076
2023-02-02,0.6691176470588206
2023-02-03,0.598425196850393
2023-02-06,0.3656716417910457
2023-02-07,0.6296296296296333
2023-02-08,0.5555555555555618
2023-02-09,0.16949152542373339
2023-02-10,0.3134328358209009
2023-02-13,0.5042735042735075
2023-02-14,0.310077519379848
2023-02-15,0.2932330827067673
2023-02-16,0.5200000000000022
2023-02-17,0.18888888888889044
2023-02-20,7.14259381740862e-15
2023-02-21,0.16666666666668015
2023-02-22,0.14925373134329456
2023-02-23,0.4062500000000007
2023-02-24,0.7101449275362307
2023-02-27,0.6363636363636389
2023-02-28,0.6315789473684212
2023-03-01,0.7681159420289931
2023-03-02,0.3582089552238912
2023-03-03,0.24561403508772583
2023-03-06,0.29166666666667107
2023-03-07,0.119047619047632
2023-03-08,0.38333333333331393
2023-03-09,0.6216216216215986
2023-03-10,0.762711864406774
2023-03-13,0.8939393939393915
2023-03-14,0.9466666666666697
2023-03-15,0.6575342465753532
2023-03-16,0.8264462809917394
2023-03-17,0.7647058823529466
2023-03-20,0.6881720430107575
2023-03-21,0.5842696629213484
2023-03-22,0.584269662921345
2023-03-23,0.0
2023-03-24,0.0
2023-03-27,0.01136363636363893
2023-03-28,0.07058823529411999
2023-03-29,0.2467532467532496
2023-03-30,0.5135135135135166
2023-03-31,0.7037037037037126
2023-04-03,0.8571428571428589
2023-04-04,0.5375000000000002
2023-04-06,0.6021505376344086
2023-04-07,0.6741573033707852
2023-04-10,0.6813186813186796
2023-04-11,0.3855421686746986
2023-04-12,0.7027027027027037
2023-04-13,0.32323453279375486
2023-04-14,0.3604730710738549
2023-04-17,0.3011223699950697
2023-04-18,0.27893295961932674
2023-04-19,0.08566244994275768
2023-04-20,0.43521271122874333
2023-04-21,0.3977041916719335
2023-04-24,0.5718604616485718
2023-04-25,0.807033304405844
2023-04-26,1.0
2023-04-27,1.0
2023-04-28,0.9753086419753144
2023-05-04,0.7971014492753764
2023-05-05,0.8271604938271737
2023-05-08,0.7627118644067988
2023-05-09,0.42647058823530365
2023-05-10,0.4788732394366231
2023-05-11,0.5151515151515162
2023-05-12,0.18749999999999625
2023-05-15,0.08928571428570675
2023-05-16,0.09615384615383891
2023-05-17,0.1454545454545481
2023-05-18,0.2857142857142817
2023-05-19,0.5147058823529399
2023-05-22,0.8551724137931046
2023-05-23,1.0
2023-05-24,1.0
2023-05-25,1.0
2023-05-26,1.0
2023-05-29,0.5549450549450543
2023-05-30,0.31874999999999876
2023-05-31,0.2955974842767298
2023-06-01,0.19871794871794868
2023-06-02,0.0
2023-06-05,0.24999999999999636
2023-06-06,0.45833333333333104
2023-06-07,0.4782608695652073
2023-06-08,0.7027027027026963
2023-06-09,0.33766233766234116
2023-06-12,0.3461538461538508
2023-06-13,0.35443037974683944
2023-06-14,0.3589743589743653
2023-06-15,0.24742268041237198
2023-06-16,0.4210526315789487
2023-06-19,0.061728395061730695
2023-06-20,0.0
2023-06-21,0.0
2023-06-26,0.0
2023-06-27,0.2619047619047605
2023-06-28,0.36263736263736174
2023-06-29,0.6790123456790162
2023-06-30,0.8873239436619755
2023-07-03,0.7875000000000063
2023-07-04,0.4411764705882408
2023-07-05,0.6103896103896125
2023-07-06,0.33333333333333237
2023-07-07,0.29577464788732505
2023-07-10,0.48101265822784567
2023-07-11,0.7183098591549255
2023-07-12,0.4999999999999978
2023-07-13,0.7627118644067834
2023-07-14,0.8541666666666686
2023-07-17,0.9060402684563781
2023-07-18,0.9130434782608721
2023-07-19,1.0
2023-07-20,1.0
2023-07-21,0.8296296296296294
2023-07-24,0.31111111111111006
2023-07-25,0.126865671641789
2023-07-26,0.016806722689074412
2023-07-27,0.01550387596899114
2023-07-28,0.01769911504424662
2023-07-31,0.08888888888889089
2023-08-01,0.5000000000000039
2023-08-02,0.31914893617021356
2023-08-03,0.4358974358974357
2023-08-04,0.49999999999999617
2023-08-07,0.6046511627906846
2023-08-08,0.19375081710026126
2023-08-09,0.49814210111473506
2023-08-10,0.471316933840397
2023-08-11,0.47993464052286755
2023-08-14,0.4641750841750898
2023-08-15,0.9381618076206779
2023-08-16,0.8888888888888729
2023-08-17,0.9826879105723401
2023-08-18,1.0
2023-08-21,1.0
2023-08-22,0.9800000000000105
2023-08-23,0.5972222222222276
2023-08-24,0.623376623376628
2023-08-25,0.3444444444444471
2023-08-28,0.17525773195876262
2023-08-29,0.23300970873785803
2023-08-30,0.5714285714285686
2023-08-31,0.3893129770992346
2023-09-01,0.6268656716417901
2023-09-04,0.7433628318584076
2023-09-05,0.7563025210084053
2023-09-06,0.3709677419354847
2023-09-07,0.6838709677419335
2023-09-08,0.4965986394557783
2023-09-11,0.47712418300653353
2023-09-12,0.35714285714285426
2023-09-13,0.6118421052631571
2023-09-14,0.25781250000000255
2023-09-15,0.4531250000000031
2023-09-18,0.6342857142857149
2023-09-19,0.77215189873418
2023-09-20,0.6592592592592604
2023-09-21,0.8476190476190419
2023-09-22,0.551724137931033
2023-09-25,0.11956521739130944
2023-09-26,0.0
2023-09-27,0.0
2023-09-28,0.0
2023-10-09,0.3027522935779843
2023-10-10,0.4197530864197542
2023-10-11,0.4683544303797441
2023-10-12,0.9166666666666736
2023-10-13,0.8208955223880557
2023-10-16,0.49999999999999334
2023-10-17,0.3818181818181795
2023-10-18,0.3272727272727306
2023-10-19,0.2884615384615373
2023-10-20,0.37500000000000056
2023-10-23,0.605263157894739
2023-10-24,0.42592592592592987
2023-10-25,0.5087719298245716
2023-10-26,0.22580645161291604
2023-10-27,0.45454545454546397
2023-10-30,0.3232323232323307
2023-10-31,0.5301204819277179
2023-11-01,0.4367816091954033
2023-11-02,0.5735294117647038
2023-11-03,0.30952380952380926
2023-11-06,0.3823529411764772
2023-11-07,0.023809523809523885
2023-11-08,0.4363636363636396
2023-11-09,0.36507936507936944
2023-11-10,0.3150684931506872
2023-11-13,0.5357142857142801
2023-11-14,0.6716417910447691
2023-11-15,0.34374999999999134
2023-11-16,0.47619047619046123
2023-11-17,0.5660377358490408
2023-11-20,0.4651162790697559
2023-11-21,0.7530864197530848
2023-11-22,0.9838709677419258
2023-11-23,0.9859154929577383
2023-11-24,0.8641975308642006
2023-11-27,0.6444444444444469
2023-11-28,0.19767441860465396
2023-11-29,0.19767441860465468
2023-11-30,0.19767441860465174
2023-12-01,0.223684210526315
2023-12-04,0.5421686746987965
2023-12-05,0.9803921568627452
2023-12-06,1.0
2023-12-07,0.7238895558223333
2023-12-08,0.6647712437262479
2023-12-11,0.35698386199221405
2023-12-12,0.6341154491624676
2023-12-13,0.6950865526704665
2023-12-14,0.6193219223173083
2023-12-15,0.6340964348474966
2023-12-18,0.40392156862745077
2023-12-19,0.12145590877138357
2023-12-20,0.04310344827586121
2023-12-21,0.04999999999999935
2023-12-22,0.2698412698412701
2023-12-25,0.5045871559633032
2023-12-26,0.9047619047619083
2023-12-27,0.712328767123284
2023-12-28,0.7536231884057915
2023-12-29,0.3382352941176433
2024-01-02,0.0370370370370348
2024-01-03,0.11864406779661363
2024-01-04,0.12727272727273356
2024-01-05,0.17857142857144243
2024-01-08,0.3125000000000227
2024-01-09,0.2272727272727497
2024-01-10,0.6880733944954194
2024-01-11,0.8000000000000015
2024-01-12,0.7999999999999995
2024-01-15,0.851562499999999
2024-01-16,1.0
2024-01-17,0.3867924528301869
2024-01-18,0.26666666666667055
2024-01-19,0.23863636363637494
2024-01-22,0.22988505747127214
2024-01-23,0.16494845360824517
2024-01-24,0.48484848484849546
2024-01-25,0.2539682539682521
2024-01-26,0.21333333333332605
2024-01-29,0.0
2024-01-30,0.07352941176470112
2024-01-31,0.07142857142856658
2024-02-01,0.3199999999999892
2024-02-02,0.48780487804878603
2024-02-05,0.5263157894736796
2024-02-06,0.6727272727272733
2024-02-07,0.8484848484848485
2024-02-08,0.8421052631578955
2024-02-19,0.8636363636363632
2024-02-20,1.0
2024-02-21,1.0
2024-02-22,0.5376344086021456
2024-02-23,0.4387755102040763
2024-02-26,0.2758620689655129
2024-02-27,0.07352941176470536
2024-02-28,0.0869565217391355
2024-02-29,0.20689655172414875
2024-03-01,0.4210526315789558
2024-03-04,0.8799999999999906
2024-03-05,0.37999999999999495
2024-03-06,0.28571428571428437
2024-03-07,0.23188405797101475
2024-03-08,0.2933333333333314
2024-03-11,0.11267605633802431
2024-03-12,0.6022727272727301
2024-03-13,0.5299999999999973
2024-03-14,0.7155963302752254
2024-03-15,0.6862745098039178
2024-03-18,0.7731958762886562
2024-03-19,0.3703703703703656
2024-03-20,0.6202531645569562
2024-03-21,0.3636363636363582
2024-03-22,0.36363636363636115
2024-03-25,0.271428571428571
2024-03-26,0.3725490196078484
2024-03-27,0.0
2024-03-28,0.24137931034484844
2024-03-29,0.21212121212122917
2024-04-01,0.46875000000000966
2024-04-02,0.7307692307692449
2024-04-03,0.4523809523809639
2024-04-08,0.3428571428571412
2024-04-09,0.387096774193538
2024-04-10,0.26923076923076017
2024-04-11,0.07692307692306877
2024-04-12,0.16146324889574223
2024-04-15,0.44376831192245547
2024-04-16,0.4510422764641427
2024-04-17,0.22122106326237856
2024-04-18,0.5754174896750023
2024-04-19,0.7780611047666801
2024-04-22,0.7519798604919553
2024-04-23,0.8135402126060377
2024-04-24,0.9999999999999973
2024-04-25,0.8876404494381983
2024-04-26,0.3333333333333301
2024-04-29,0.29702970297029485
2024-04-30,0.018348623853209452
2024-05-06,0.0
2024-05-07,0.04716981132075147
2024-05-08,0.2816901408450644
2024-05-09,0.2739726027397206
2024-05-10,0.7213114754098344
2024-05-13,0.87
2024-05-14,0.897637795275591
2024-05-15,0.8181818181818192
2024-05-16,0.9250000000000004
2024-05-17,0.9117647058823535
2024-05-20,0.6410256410256426
2024-05-21,0.2686567164179092
2024-05-22,0.3749999999999946
2024-05-23,0.22641509433962162
2024-05-24,0.09374999999999437
2024-05-27,0.0967741935483802
2024-05-28,0.10526315789473073
2024-05-29,0.0
2024-05-30,0.2597402597402572
2024-05-31,0.428571428571433
2024-06-03,0.7604166666666763
2024-06-04,0.7684210526315834
2024-06-05,0.8421052631578949
2024-06-06,0.5882352941176513
2024-06-07,0.4901960784313733
2024-06-11,0.06930693069307008
2024-06-12,0.15957446808510212
2024-06-13,0.18556701030927703
2024-06-14,0.23684210526315425
2024-06-17,0.25352112676056116
2024-06-18,0.41860465116278134
2024-06-19,0.40476190476190804
2024-06-20,0.12500000000000294
2024-06-21,0.3582089552238852
2024-06-24,0.3809523809523837
2024-06-25,0.7252747252747235
2024-06-26,0.6210526315789452
2024-06-27,0.8378378378378357
2024-06-28,0.7627118644067741
2024-07-01,0.7968749999999967
2024-07-02,0.24999999999999803
2024-07-03,0.32142857142857206
2024-07-04,0.22222222222221627
2024-07-05,0.19999999999999415
2024-07-08,0.14285714285715
2024-07-09,0.1538461538461572
2024-07-10,0.5476190476190359
2024-07-11,0.7536231884057906
2024-07-12,0.7647058823529401
2024-07-15,0.6575342465753495
2024-07-16,0.7619047619047826
2024-07-17,0.7169811320754944
2024-07-18,0.1607142857142893
2024-07-19,0.2950819672131195
2024-07-22,0.2857142857142819
2024-07-23,0.28124999999999656
2024-07-24,0.12676056338027955
2024-07-25,0.4339622641509355
2024-07-26,0.3111111111111008
2024-07-29,0.7297297297297274
2024-07-30,0.7874999999999918
2024-07-31,0.9880952380952324
2024-08-01,0.8518518518518463
2024-08-02,0.7931034482758638
2024-08-05,0.43939393939393934
2024-08-06,0.2816901408450728
2024-08-07,0.0
2024-08-08,0.014925373134327362
2024-08-09,0.10606060606060992
2024-08-12,0.2592592592592664
2024-08-13,0.611940298507465
2024-08-14,1.0
2024-08-15,1.0
2024-08-16,1.0
2024-08-19,0.8952203935013476
2024-08-20,0.8163113432465475
2024-08-21,0.7729248215519221
2024-08-22,0.2975213567310504
2024-08-23,0.0
2024-08-26,0.07936610775649773
2024-08-27,0.05494505494505433
2024-08-28,0.05263157894736744
2024-08-29,0.07142857142856926
2024-08-30,0.09803921568627232
2024-09-02,0.2068965517241403
2024-09-03,0.6097560975609777
2024-09-04,0.852941176470588
2024-09-05,0.9278350515463969
2024-09-06,1.0
2024-09-09,0.9166666666666623
2024-09-10,0.9245283018867883
2024-09-11,0.9012345679012289
2024-09-12,0.8644067796610078
2024-09-13,0.7735849056603742
2024-09-18,0.9111111111111204
2024-09-19,0.8571428571428715
2024-09-20,0.34042553191490416
2024-09-23,0.117647058823542
2024-09-24,0.5638297872340475
2024-09-25,0.5729166666666698
2024-09-26,0.3983739837398405
2024-09-27,0.5154639175257765
2024-09-30,0.7591240875912418
2024-10-08,0.6489361702127671
2024-10-09,0.6526315789473678
2024-10-10,1.0
2024-10-11,0.9277108433734925
2024-10-14,0.29870129870129647
2024-10-15,0.17272727272726907
2024-10-16,0.13559322033898175
2024-10-17,0.03773584905660479
2024-10-18,0.037383177570094635
2024-10-21,0.06153846153846389
2024-10-22,0.12500000000000708
2024-10-23,0.11111111111111684
2024-10-24,0.0
2024-10-25,0.0
2024-10-28,0.30769230769229566
2024-10-29,0.49999999999999317
2024-10-30,0.7118644067796572
2024-10-31,0.95454545454545
2024-11-01,1.0
2024-11-04,0.6853932584269681
2024-11-05,0.45918367346938826
2024-11-06,0.44210526315788856
2024-11-07,0.2837837837837759
2024-11-08,0.11290322580644055
2024-11-11,0.37209302325580873
2024-11-12,0.761904761904753
2024-11-13,0.32142857142858416
2024-11-14,0.16666666666667543
2024-11-15,0.32812500000001005
2024-11-18,0.28333333333333305
2024-11-19,0.45205479452055125
2024-11-20,0.5076923076923107
2024-11-21,0.7500000000000032
2024-11-22,0.7317073170731705
2024-11-25,0.5681818181818252
2024-11-26,0.23076923076922692
2024-11-27,0.5789473684210533
2024-11-28,0.6226415094339613
2024-11-29,0.41379310344827924
2024-12-02,0.39999999999999813
2024-12-03,0.5689655172413804
2024-12-04,0.34210526315789536
2024-12-05,0.38461538461538475
2024-12-06,0.4838709677419249
2024-12-09,0.8499999999999929
2024-12-10,0.8018567340971797
2024-12-11,0.47369947275922575
2024-12-12,0.45998070490222026
2024-12-13,0.5049839148725713
2024-12-16,0.01766712088155017
2024-12-17,0.037177083171908466
2024-12-18,0.04241213492680989
2024-12-19,0.17509994288976885
2024-12-20,0.3736017351887354
2024-12-23,0.8764044943820213
2024-12-24,0.8555555555555535
2024-12-25,0.9795918367346929
2024-12-26,0.8543689320388359
2024-12-27,0.8021978021978092
2024-12-30,0.35849056603773666
2024-12-31,0.35849056603773655
