date,FCT_Cr_Atr_Dfive
2014-06-17,
2014-06-18,
2014-06-19,
2014-06-20,
2014-06-23,
2014-06-24,
2014-06-25,
2014-06-26,
2014-06-27,
2014-06-30,
2014-07-01,0.07453547297297312
2014-07-02,0.15430756843800314
2014-07-03,-0.13809441928889396
2014-07-04,-0.0717191862784205
2014-07-07,0.15898491914481255
2014-07-08,0.04012746370824967
2014-07-09,-0.2616538952745847
2014-07-10,0.10827427205191684
2014-07-11,0.15128440366972484
2014-07-14,0.09349540928488295
2014-07-15,-0.028251951832737838
2014-07-16,0.10517241379310334
2014-07-17,0.07675782863752804
2014-07-18,0.03760147601476019
2014-07-21,-0.4239158772920831
2014-07-22,0.019353195823783916
2014-07-23,0.1755230125523013
2014-07-24,-0.14177565733034336
2014-07-25,-0.3771734604505578
2014-07-28,0.5024034557796616
2014-07-29,-0.0679467005925876
2014-07-30,-0.2319059912757055
2014-07-31,-0.036342715524871644
2014-08-01,0.26584141448761106
2014-08-04,-0.5176767676767677
2014-08-05,0.037078353253652094
2014-08-06,0.3324103759836782
2014-08-07,0.5111199787177443
2014-08-08,0.053574319948186455
2014-08-11,0.2822580645161291
2014-08-12,0.08569444444444443
2014-08-13,-0.1965192005389625
2014-08-14,-0.6722058143258729
2014-08-15,-0.1486672794117647
2014-08-18,-0.09922235023041481
2014-08-19,-0.10208997873471548
2014-08-20,-0.30450819672131146
2014-08-21,0.20755545793981983
2014-08-22,-0.01260504201680663
2014-08-25,0.2977335164835165
2014-08-26,0.23056220095693775
2014-08-27,0.32763157894736844
2014-08-28,0.09948275862068968
2014-08-29,0.1653252850435949
2014-09-01,-0.29085506767910213
2014-09-02,0.06364155251141557
2014-09-03,-0.05628121398386469
2014-09-04,-0.10895604395604397
2014-09-05,-0.20500782472613466
2014-09-09,-0.008879680331507891
2014-09-10,-0.5104008117706749
2014-09-11,-0.07135036496350368
2014-09-12,0.18584793584793569
2014-09-15,0.3241288625904012
2014-09-16,0.11774600504625728
2014-09-17,0.13367786391042213
2014-09-18,0.08563829787234034
2014-09-19,-0.2261024182076813
2014-09-22,-0.2877303951574508
2014-09-23,0.19345553703984236
2014-09-24,0.2155813953488372
2014-09-25,-0.006051141909037733
2014-09-26,0.03398221581350654
2014-09-29,-0.06471043324491625
2014-09-30,-0.4154203823866197
2014-10-08,-0.15081081081081088
2014-10-09,0.18246320374892755
2014-10-10,0.49265255292652543
2014-10-13,0.20664996767937943
2014-10-14,0.2007434126600097
2014-10-15,0.14893341617479539
2014-10-16,-0.2609940216840611
2014-10-17,-0.5755040903329877
2014-10-20,0.0424222320507151
2014-10-21,-0.05127447013787325
2014-10-22,-0.2136286782384784
2014-10-23,0.19431403234220118
2014-10-24,0.04217075699965436
2014-10-27,-0.155103668261563
2014-10-28,-0.09533220402785614
2014-10-29,0.04983039719881824
2014-10-30,-0.1496101364522416
2014-10-31,0.03669222343921124
2014-11-03,0.16010422698320792
2014-11-04,0.22761904761904753
2014-11-05,0.2767066035107273
2014-11-06,0.17945435835654944
2014-11-07,0.10272433015644683
2014-11-10,-0.18582405875286173
2014-11-11,-0.10090859332238637
2014-11-12,-0.25426286699854983
2014-11-13,-0.08997362841925641
2014-11-14,-0.10911352329262772
2014-11-17,0.1598840546435541
2014-11-18,-0.055810983397190296
2014-11-19,0.10770664733470449
2014-11-20,-0.1709420708664918
2014-11-21,0.15189236766000241
2014-11-24,-0.1457438979516742
2014-11-25,0.10459976105137392
2014-11-26,0.006593994118870079
2014-11-27,0.07113276168732904
2014-11-28,-0.08005035199776207
2014-12-01,0.03481199831009712
2014-12-02,0.04582111436950164
2014-12-03,-0.1607250596783926
2014-12-04,0.23040803998022963
2014-12-05,-0.024056467876692578
2014-12-08,0.11962481962481955
2014-12-09,-0.12298278644432489
2014-12-10,0.1570581700771379
2014-12-11,-0.3679825517993457
2014-12-12,0.07184829059829052
2014-12-15,-0.06789440068128585
2014-12-16,0.08121961331172486
2014-12-17,-0.09644085172786065
2014-12-18,0.32714285714285707
2014-12-19,0.13662439613526584
2014-12-22,-0.04996274217585685
2014-12-23,-0.08603159590346846
2014-12-24,0.17475332475332475
2014-12-25,-0.2820754716981132
2014-12-26,-0.43236714975845414
2014-12-29,-0.02701380897583432
2014-12-30,0.005588486946065306
2014-12-31,-0.36283292978208237
2015-01-05,0.23733862959285007
2015-01-06,0.31608005521048993
2015-01-07,0.02173306031273271
2015-01-08,-0.12346267159781857
2015-01-09,0.20068692600612267
2015-01-12,-0.0011907597046916657
2015-01-13,-0.09575852198803012
2015-01-14,0.03823529411764706
2015-01-15,0.25450733752620547
2015-01-16,0.18198727361722944
2015-01-19,-0.23227752639517335
2015-01-20,-0.05713596914175512
2015-01-21,0.0946428571428571
2015-01-22,-0.10394265232974897
2015-01-23,-0.2623171213918545
2015-01-26,0.18796608438042703
2015-01-27,0.05097302078726222
2015-01-28,-0.19560439560439563
2015-01-29,-0.10843428156617219
2015-01-30,0.08328738743254305
2015-02-02,0.11331596690162415
2015-02-03,0.17009737458400112
2015-02-04,0.09560439560439561
2015-02-05,0.11190412065715052
2015-02-06,0.009439090684457672
2015-02-09,-0.3830413358883109
2015-02-10,-0.26916260522817903
2015-02-11,-0.20201465201465202
2015-02-12,0.008469982382436667
2015-02-13,0.2077850877192983
2015-02-16,0.29896964841348217
2015-02-17,0.1841216216216216
2015-02-25,0.49803921568627446
2015-02-26,0.1232528308563339
2015-02-27,-0.26061930091185415
2015-03-02,0.018486621075430254
2015-03-03,0.17867647058823535
2015-03-04,-0.3718877999613991
2015-03-05,-0.07111429177268852
2015-03-06,0.0977481607693362
2015-03-09,-0.033759137783515164
2015-03-10,-0.3656399899015402
2015-03-11,0.049112536009664726
2015-03-12,-0.1087468193384225
2015-03-13,-0.05685288583150809
2015-03-16,-0.260399385560676
2015-03-17,0.14413565046084584
2015-03-18,0.09677826114368565
2015-03-19,-0.031156716417910464
2015-03-20,0.051615051615051644
2015-03-23,0.22104166666666672
2015-03-24,0.049814273686295735
2015-03-25,-0.08846985303467937
2015-03-26,0.002942430703624835
2015-03-27,0.05081157374735354
2015-03-30,-0.0485795454545455
2015-03-31,-0.1674691137675544
2015-04-01,-0.08454721033916358
2015-04-02,0.189389197375063
2015-04-03,-0.09846517800473138
2015-04-07,-0.07582760888629057
2015-04-08,0.0061099174142829615
2015-04-09,0.14253925237130316
2015-04-10,-0.23891654734850964
2015-04-13,0.017810897944083214
2015-04-14,0.16598152142944367
2015-04-15,0.025206124852768033
2015-04-16,0.13397966190367203
2015-04-17,0.2292335696347469
2015-04-20,0.026663738093327616
2015-04-21,-0.00401169117933288
2015-04-22,0.142505699922769
2015-04-23,-0.3323435405312487
2015-04-24,-0.24817723746138864
2015-04-27,-0.1073329061295469
2015-04-28,-0.015486063006047816
2015-04-29,0.04248157743091903
2015-04-30,0.14143236377385623
2015-05-04,0.17556461385920047
2015-05-05,-0.004533124801444924
2015-05-06,-0.16917888563050013
2015-05-07,-0.15520585658866123
2015-05-08,0.10385592912642742
2015-05-11,-0.11530927143432232
2015-05-12,0.10200901552673998
2015-05-13,0.042187853640134956
2015-05-14,-0.012221896955502312
2015-05-15,-0.24854659874138835
2015-05-18,0.035041072200607364
2015-05-19,0.09722154757856949
2015-05-20,0.13824775242047382
2015-05-21,-0.048453832752615535
2015-05-22,0.1819566044918159
2015-05-25,0.1125730994152061
2015-05-26,-0.1000226680267501
2015-05-27,-0.10654328478964749
2015-05-28,0.07735895540773788
2015-05-29,0.1276121482307085
2015-06-01,-0.0870770676691748
2015-06-02,-0.07767722473604585
2015-06-03,0.12135922330097158
2015-06-04,0.04262354486569774
2015-06-05,-0.3037619822752786
2015-06-08,-0.04330817378497932
2015-06-09,0.03508641792151778
2015-06-10,-0.2407163622401386
2015-06-11,0.07153820687994535
2015-06-12,0.22274243891938866
2015-06-15,0.07955817378498126
2015-06-16,0.26183716457551076
2015-06-17,0.23546481766820332
2015-06-18,-0.11505677795712632
2015-06-19,-0.11672308017770787
2015-06-23,0.044710424710421616
2015-06-24,-0.3514131485279215
2015-06-25,-0.16381118881118506
2015-06-26,-0.03679769042860129
2015-06-29,0.031930263918323334
2015-06-30,0.07932508779966521
2015-07-01,0.018914593336242513
2015-07-02,0.22939560439560355
2015-07-03,0.019433198380564662
2015-07-06,0.09617318435753996
2015-07-07,-0.05011846181884312
2015-07-08,0.39756592292089277
2015-07-09,0.5941558441558467
2015-07-10,0.09640546369518492
2015-07-13,-0.08676678445229688
2015-07-14,-0.12509277761918497
2015-07-15,-0.381549341047893
2015-07-16,-1.168150711563888
2015-07-17,-0.1526807673389078
2015-07-20,-0.03699290547018315
2015-07-21,-0.04829431915500998
2015-07-22,0.004462261674659587
2015-07-23,0.3501853435985181
2015-07-24,0.16727570220888863
2015-07-27,0.23682732277272267
2015-07-28,0.17994998288104497
2015-07-29,0.21631265966371882
2015-07-30,0.1209885705130607
2015-07-31,-0.14634251773638182
2015-08-03,-0.10495258802828725
2015-08-04,-0.16506547471696661
2015-08-05,-0.2287379641914139
2015-08-06,0.010872901348409847
2015-08-07,0.14646801749434996
2015-08-10,-0.2705343996606643
2015-08-11,0.0734931009440809
2015-08-12,0.1496583027335805
2015-08-13,0.0005614973262045714
2015-08-14,-0.037699324896560395
2015-08-17,0.22809503051438546
2015-08-18,0.010743332702856215
2015-08-19,-0.11715664765248177
2015-08-20,-0.15214172917489147
2015-08-21,-0.12078593048742028
2015-08-24,0.026875344732486824
2015-08-25,0.057037415960245474
2015-08-26,0.32605097649785014
2015-08-27,0.1423378076062635
2015-08-28,0.13648756218905173
2015-08-31,-0.09277944680410219
2015-09-01,-0.14140112464854573
2015-09-02,-0.4142567958357446
2015-09-07,-0.11610032362459627
2015-09-08,-0.1415757575757551
2015-09-09,-0.10400234283483024
2015-09-10,-0.1040831945257318
2015-09-11,0.08827167596801401
2015-09-14,0.0800202491367
2015-09-15,0.09090909090908982
2015-09-16,0.03034188034188183
2015-09-17,0.15984130365321683
2015-09-18,0.0076125012045086884
2015-09-21,-0.07052165711383299
2015-09-22,0.097222222222218
2015-09-23,0.25344585091420124
2015-09-24,0.049575821845170814
2015-09-25,0.1489647239263752
2015-09-28,-0.011255411255414849
2015-09-29,-0.030211912943865896
2015-09-30,-0.31914633400598774
2015-10-08,0.17366459627329145
2015-10-09,0.12690727699530918
2015-10-12,0.14157509157509313
2015-10-13,-0.15365290855633157
2015-10-14,0.17830478700043734
2015-10-15,-0.41019305019304886
2015-10-16,-0.4885998607273633
2015-10-19,-0.0849924585218703
2015-10-20,0.019975932611314848
2015-10-21,-0.023715415019766265
2015-10-22,0.20019305019304934
2015-10-23,0.5303539312497882
2015-10-26,-0.019717999559376007
2015-10-27,0.16608187134502703
2015-10-28,-0.047872340425529084
2015-10-29,0.05989624900239363
2015-10-30,-0.4351862166276771
2015-11-02,0.12793343763333792
2015-11-03,-0.18662450700394467
2015-11-04,0.20710800921534345
2015-11-05,-0.07253361163975379
2015-11-06,0.17277486910994547
2015-11-09,-0.12728162808587748
2015-11-10,0.1504276931301815
2015-11-11,-0.20247891203305501
2015-11-12,-0.0679518221891125
2015-11-13,0.03658536585365759
2015-11-16,0.07396815079622812
2015-11-17,-0.09162748171368881
2015-11-18,0.4409040619566955
2015-11-19,0.1111032314493067
2015-11-20,0.015833988985054608
2015-11-23,0.1601081812035181
2015-11-24,0.20789627039626843
2015-11-25,-0.5661390795830168
2015-11-26,0.12247381518855745
2015-11-27,-0.13129259427533113
2015-11-30,-0.2944468242591794
2015-12-01,-0.25775073228543854
2015-12-02,0.15769506996127683
2015-12-03,-0.329430542618818
2015-12-04,0.15336185387120044
2015-12-07,0.07126674763082816
2015-12-08,0.11159688613159197
2015-12-09,0.038432960493539725
2015-12-10,0.13790968913542137
2015-12-11,-0.12541454036050473
2015-12-14,0.02777777777777501
2015-12-15,-0.13089430894308607
2015-12-16,-0.16819031012579266
2015-12-17,0.10057252446625592
2015-12-18,0.0685729847494531
2015-12-21,-0.06936416184971218
2015-12-22,-0.0018179063778243354
2015-12-23,0.2439888164026096
2015-12-24,-0.1566823899371095
2015-12-25,-0.15463336019338902
2015-12-28,0.10111019359574613
2015-12-29,0.360917343526037
2015-12-30,-0.1522287636669437
2015-12-31,0.12596153846154334
2016-01-04,0.4024184001352912
2016-01-05,-0.08052651955091314
2016-01-06,-0.4461538461538411
2016-01-07,0.07393772050927555
2016-01-08,0.10877772534213967
2016-01-11,-0.28147487951409667
2016-01-12,0.03791092258748836
2016-01-13,0.2780219780219737
2016-01-14,-0.020132107076257823
2016-01-15,-0.3072392638036814
2016-01-18,0.08747135217723863
2016-01-19,0.08309178743961054
2016-01-20,-0.13485737060866354
2016-01-21,-0.00502512562814249
2016-01-22,0.2572972972972981
2016-01-25,-0.2684729064039419
2016-01-26,-0.13970688479890467
2016-01-27,0.04802972457049155
2016-01-28,-0.03921568627451249
2016-01-29,-0.1925353925353938
2016-02-01,0.12937516204303717
2016-02-02,0.11587175935088208
2016-02-03,-0.060425101214569954
2016-02-04,0.2018173122907719
2016-02-05,0.05328005328005584
2016-02-15,0.34504143570605506
2016-02-16,-0.1398156682027722
2016-02-17,0.06013546202224982
2016-02-18,-0.32510162601625836
2016-02-19,0.17628640016699604
2016-02-22,-0.29053015751056616
2016-02-23,0.1380952380952444
2016-02-24,0.08925209309778549
2016-02-25,0.24389534883720665
2016-02-26,-0.032177820574546726
2016-02-29,-0.07952503209242431
2016-03-01,0.08774193548386816
2016-03-02,-0.10975941075255632
2016-03-03,0.07245080500894678
2016-03-04,-0.10215053763440875
2016-03-07,0.21768292682926565
2016-03-08,0.09892473118279699
2016-03-09,0.26647026173092386
2016-03-10,-0.1130787677550269
2016-03-11,-0.06682027649769491
2016-03-14,-0.1249999999999983
2016-03-15,-0.443209876543212
2016-03-16,-0.5178772522522527
2016-03-17,-0.2194907903464476
2016-03-18,0.3984264941142727
2016-03-21,-0.01945525291828808
2016-03-22,0.41622574955908553
2016-03-23,0.3050986842105267
2016-03-24,0.2894828979262072
2016-03-25,-0.4541133401237015
2016-03-28,-0.009765526302490914
2016-03-29,-0.3836067314328191
2016-03-30,-0.08012409071459173
2016-03-31,-0.20821712078953228
2016-04-01,0.023915573211353
2016-04-05,-0.04369588744588716
2016-04-06,0.21096539025214925
2016-04-07,-0.08434959349593565
2016-04-08,-0.10751131698073317
2016-04-11,0.599443597504407
2016-04-12,0.011612250872820189
2016-04-13,0.250915385481534
2016-04-14,0.3443919324612019
2016-04-15,0.34372810195013637
2016-04-18,-0.6213339759194787
2016-04-19,0.2085646897664466
2016-04-20,-0.39507101184410154
2016-04-21,-0.08180803984375218
2016-04-22,0.023482730054847523
2016-04-25,0.28038040486820176
2016-04-26,-0.16695392823955804
2016-04-27,0.13500133262260017
2016-04-28,-0.2356231083037225
2016-04-29,-0.36514043863024426
2016-05-03,-0.33565605291493505
2016-05-04,-0.09795340455657421
2016-05-05,-0.09955357142857271
2016-05-06,0.12056173820879516
2016-05-09,0.2910042775968883
2016-05-10,0.1312231628021093
2016-05-11,0.11340977068794078
2016-05-12,0.04095744680851543
2016-05-13,0.003909195539153497
2016-05-16,-0.1181486453271874
2016-05-17,-0.04396116226577148
2016-05-18,0.11103340464044247
2016-05-19,0.18755132512130915
2016-05-20,-0.1785229728145273
2016-05-23,0.10627610231144181
2016-05-24,0.11766224188790386
2016-05-25,-0.18371919342792653
2016-05-26,-0.20614035087719196
2016-05-27,0.17523940290100024
2016-05-30,-0.10790739200130088
2016-05-31,-0.03851246105918816
2016-06-01,0.1335268505079786
2016-06-02,0.016917293233084815
2016-06-03,-0.11574074074073842
2016-06-06,-0.049958444916427994
2016-06-07,0.03712357217029834
2016-06-08,-0.1376848546659849
2016-06-13,-0.04075630252100888
2016-06-14,0.2008728473696575
2016-06-15,0.01841426225662607
2016-06-16,-0.06458759372869535
2016-06-17,0.17025305560337664
2016-06-20,0.0530787753697959
2016-06-21,-0.16217247034592802
2016-06-22,0.08853484650080164
2016-06-23,0.06767401348178281
2016-06-24,0.048552576375906625
2016-06-27,0.17076023391812856
2016-06-28,0.26490138988078754
2016-06-29,0.06938051400076727
2016-06-30,-0.006642744243666888
2016-07-01,-0.19177860495225654
2016-07-04,-0.04379699248120092
2016-07-05,-0.10097681185237992
2016-07-06,-0.048049739376269496
2016-07-07,0.014775761197481967
2016-07-08,0.13180204333019438
2016-07-11,-0.23292466240227674
2016-07-12,-0.301460933888118
2016-07-13,-0.09258362608041912
2016-07-14,-0.11677499226245519
2016-07-15,-0.15806927441670118
2016-07-18,0.22105629059940549
2016-07-19,0.13142857142857234
2016-07-20,-0.07746785955943025
2016-07-21,0.12146709816612596
2016-07-22,0.11753058746614231
2016-07-25,-0.1993263751542101
2016-07-26,0.10020100502512541
2016-07-27,0.17171343406310943
2016-07-28,-0.08516397476622987
2016-07-29,-0.13336314847942785
2016-08-01,0.3416658715771416
2016-08-02,-0.08761479812857616
2016-08-03,-0.03925940498830502
2016-08-04,0.0683804839742921
2016-08-05,0.04375209942895482
2016-08-08,-0.4275909402882646
2016-08-09,0.05884236453202218
2016-08-10,-0.01789160927873614
2016-08-11,-0.03119624025000077
2016-08-12,0.03557466222573337
2016-08-15,0.17497621859831192
2016-08-16,-0.04925841542323555
2016-08-17,-0.04318128586420455
2016-08-18,-0.04449007715129099
2016-08-19,-0.021634453962380208
2016-08-22,0.31857216849846137
2016-08-23,0.06859907476389199
2016-08-24,-0.007678371150028188
2016-08-25,0.13872757775196992
2016-08-26,0.09671396564600468
2016-08-29,-0.49266055045871354
2016-08-30,-0.08190559440558916
2016-08-31,0.1016176602019842
2016-09-01,-0.19339536580915861
2016-09-02,-0.10953447846651754
2016-09-05,0.300768658566825
2016-09-06,0.11820953436806403
2016-09-07,-0.07620188195038445
2016-09-08,0.14486839420526557
2016-09-09,-0.005536130536129384
2016-09-12,-0.12618039726473995
2016-09-13,-0.04866826275624187
2016-09-14,0.05235800344233997
2016-09-19,0.04733727810650524
2016-09-20,0.10573122529644363
2016-09-21,0.02843498345714758
2016-09-22,-0.02866131823187213
2016-09-23,0.08037330669829419
2016-09-26,-0.23498381154404213
2016-09-27,-0.08206221474898356
2016-09-28,-0.07893412287194775
2016-09-29,0.2679251219128529
2016-09-30,-0.15698218122077628
2016-10-10,0.36384299540522175
2016-10-11,0.2501704478664678
2016-10-12,0.05808191808191963
2016-10-13,-0.3424743653666908
2016-10-14,0.13189565872493064
2016-10-17,-0.25358780333246345
2016-10-18,-0.3028421721181348
2016-10-19,0.16559155130583605
2016-10-20,0.09893992932862453
2016-10-21,-0.1291082022789362
2016-10-24,-0.06365977328838318
2016-10-25,0.20877171519451862
2016-10-26,-0.1660509459258146
2016-10-27,-0.051034644622068345
2016-10-28,0.1477031519083663
2016-10-31,0.37682397876610657
2016-11-01,-0.17789587461718626
2016-11-02,0.08071634696995303
2016-11-03,0.0885308037863021
2016-11-04,0.06308473670141804
2016-11-07,-0.2704815730601691
2016-11-08,0.07272283272283367
2016-11-09,-0.02173250736264755
2016-11-10,0.04420289855072264
2016-11-11,-0.08849883573555199
2016-11-14,0.11806577420474122
2016-11-15,0.05829195280859289
2016-11-16,-0.10547234245068937
2016-11-17,-0.09270833333333242
2016-11-18,-0.184919986259666
2016-11-21,-0.2184167595724452
2016-11-22,-0.16768766430956755
2016-11-23,-0.0026484289569996544
2016-11-24,-0.019106735159817204
2016-11-25,0.05341486508951665
2016-11-28,-0.07509491534340602
2016-11-29,0.07370748596200238
2016-11-30,0.09959951472142332
2016-12-01,-0.09220539934310633
2016-12-02,0.19997970815781288
2016-12-05,0.25013570621738584
2016-12-06,0.06107089646029922
2016-12-07,0.09424065513209248
2016-12-08,0.18316714199561027
2016-12-09,-0.09290924778414023
2016-12-12,-0.03493656843760152
2016-12-13,-0.10686701240566873
2016-12-14,-0.12344505459312828
2016-12-15,-0.11783715034982983
2016-12-16,-0.1380540904500055
2016-12-19,0.017214598818371417
2016-12-20,0.13022541071321497
2016-12-21,-0.1246543926956294
2016-12-22,0.0029510395707577908
2016-12-23,0.10328379061729383
2016-12-26,-0.19717439091408576
2016-12-27,0.09314501853956843
2016-12-28,0.13849970371709375
2016-12-29,0.08943440517317777
2016-12-30,0.1185077333040311
2017-01-03,0.19137937716799255
2017-01-04,-0.2747582051688618
2017-01-05,-0.10731023969180897
2017-01-06,-0.07976086002632773
2017-01-09,-0.2361544472287347
2017-01-10,-0.11179258733207334
2017-01-11,0.12079234532064967
2017-01-12,0.23896301575892293
2017-01-13,-0.0383948928408557
2017-01-16,0.27346964533636353
2017-01-17,0.026759034528181028
2017-01-18,-0.05453521500033295
2017-01-19,-0.22426702314080488
2017-01-20,0.10537285780453576
2017-01-23,-0.2796135909393743
2017-01-24,-0.09892517730036864
2017-01-25,0.2717880289744553
2017-01-26,-0.0066073664269761245
2017-02-03,0.12847198448020364
2017-02-06,0.009490522073175689
2017-02-07,0.12886001388767043
2017-02-08,-0.4368397085610199
2017-02-09,0.20227550469405808
2017-02-10,-0.30628322202535196
2017-02-13,0.318644006246148
2017-02-14,0.14179279793267816
2017-02-15,0.27704678362573176
2017-02-16,-0.06780253997130958
2017-02-17,0.1924676998798809
2017-02-20,-0.3094566098945704
2017-02-21,-0.04359309157813733
2017-02-22,-0.10118921464735545
2017-02-23,-0.038475708035923734
2017-02-24,-0.13112852063951597
2017-02-27,0.14728272827282857
2017-02-28,-0.19532484431638464
2017-03-01,0.0927188199105139
2017-03-02,-0.11475739305196506
2017-03-03,0.0633778776386773
2017-03-06,-0.11598694495488526
2017-03-07,-0.06886512513297213
2017-03-08,0.037511081560280955
2017-03-09,0.18148949815616622
2017-03-10,0.04022937085688634
2017-03-13,0.31721085743359617
2017-03-14,0.24945183402156762
2017-03-15,-0.10292819529418494
2017-03-16,-0.1288770882046378
2017-03-17,-0.014830823259268116
2017-03-20,-0.4076795356195001
2017-03-21,-0.04103432028963957
2017-03-22,-0.07578438117703769
2017-03-23,0.007788566698286849
2017-03-24,-0.03786821755969239
2017-03-27,0.22519993080597556
2017-03-28,-0.09243498817966911
2017-03-29,0.11275306196633532
2017-03-30,-0.012028361610533132
2017-03-31,0.07048511047070108
2017-04-05,-0.0711064010173799
2017-04-06,-0.012949697548551582
2017-04-07,0.10153129126584676
2017-04-10,0.17192800499977795
2017-04-11,0.005591054192043442
2017-04-12,-0.07381411445213945
2017-04-13,0.14627189701191073
2017-04-14,-0.11394547352861346
2017-04-17,-0.1810189140906877
2017-04-18,-0.09293079778178559
2017-04-19,0.11949241599946105
2017-04-20,-0.09334635405273083
2017-04-21,-0.14521174610649584
2017-04-24,0.015329768270945225
2017-04-25,-0.03887502803319269
2017-04-26,-0.10970013958189918
2017-04-27,-0.1395113023692932
2017-04-28,0.03538686131386974
2017-05-02,0.017091792469199753
2017-05-03,0.1207471999788931
2017-05-04,0.21535059661224412
2017-05-05,0.24561699477024074
2017-05-08,0.09600000000000052
2017-05-09,-0.043620050831367024
2017-05-10,0.026763867940338533
2017-05-11,-0.2739071557902084
2017-05-12,-0.1426840167845733
2017-05-15,0.12499999999999581
2017-05-16,0.11018838908112118
2017-05-17,-0.16934594168636669
2017-05-18,0.1730545876887322
2017-05-19,0.4226125799830981
2017-05-22,-0.13598901098900837
2017-05-23,3.469446951953614e-17
2017-05-24,0.20744680851063768
2017-05-25,-0.01380262249827513
2017-05-26,-0.5446757292551685
2017-05-31,0.2602887308769659
2017-06-01,-0.07359242650722447
2017-06-02,-0.09182595449855005
2017-06-05,-0.10017798118484506
2017-06-06,0.20265255634964352
2017-06-07,-0.5235313983749524
2017-06-08,0.12686785176962065
2017-06-09,-0.13089959635693219
2017-06-12,0.06298317768569571
2017-06-13,-0.15540877367896183
2017-06-14,0.41653937079469017
2017-06-15,-0.1246558966428669
2017-06-16,0.31889355497828253
2017-06-19,0.052511326355254455
2017-06-20,0.04150908157071284
2017-06-21,-0.16021814006888724
2017-06-22,0.06037067739195304
2017-06-23,-0.3472318339100349
2017-06-26,-0.1563993839630351
2017-06-27,0.12364661413287192
2017-06-28,-0.026533996683251113
2017-06-29,-0.02568271247142944
2017-06-30,0.1807692307692331
2017-07-03,0.18562464494138153
2017-07-04,0.012311901504786768
2017-07-05,0.1098039215686295
2017-07-06,0.004518000665809818
2017-07-07,-0.036829836829837495
2017-07-10,-0.12104113578449224
2017-07-11,-0.04608467590857697
2017-07-12,-0.13454186706129076
2017-07-13,-0.10010777648814448
2017-07-14,0.03569023569023304
2017-07-17,0.16498508510264975
2017-07-18,-0.01594398170831465
2017-07-19,-0.01441889623652659
2017-07-20,0.22117117117117086
2017-07-21,0.08492145396170432
2017-07-24,-0.14452438049560318
2017-07-25,-0.08486305361305213
2017-07-26,0.4200498843044754
2017-07-27,-0.28251748251748066
2017-07-28,-0.18030450824886557
2017-07-31,-0.092147279244053
2017-08-01,0.16091586393738427
2017-08-02,-0.6265720549209652
2017-08-03,0.20570588831458017
2017-08-04,0.07809910366987687
2017-08-07,0.3368179947518243
2017-08-08,0.010724075302508823
2017-08-09,0.296114414727964
2017-08-10,-0.06013467180588337
2017-08-11,0.04845502376037465
2017-08-14,-0.33815097262439126
2017-08-15,-0.21129761411953224
2017-08-16,-0.05599095793784029
2017-08-17,0.24797383493108602
2017-08-18,-0.2571753251292138
2017-08-21,0.19840924625613537
2017-08-22,0.19717030114226347
2017-08-23,0.11818181818181817
2017-08-24,-0.45104783234681883
2017-08-25,0.3113171510921265
2017-08-28,-0.10332532361832365
2017-08-29,0.07792397660819037
2017-08-30,-0.10487906588823954
2017-08-31,0.20351232691657928
2017-09-01,-0.10220367523244436
2017-09-04,0.16527264475134498
2017-09-05,-0.25725853094274326
2017-09-06,0.18175897610148103
2017-09-07,0.09751422581611341
2017-09-08,0.024206959304696136
2017-09-11,-0.24916715218333196
2017-09-12,0.26638878363016005
2017-09-13,-0.11065805867028992
2017-09-14,-0.1209471614441691
2017-09-15,-0.03694581280788241
2017-09-18,0.1318479160692363
2017-09-19,-0.33831685555823166
2017-09-20,-0.13738469953506838
2017-09-21,0.2682993817029612
2017-09-22,-0.05352798053528088
2017-09-25,-0.029905546023623407
2017-09-26,0.19212746016869647
2017-09-27,0.08257286654499309
2017-09-28,-0.30419184290030177
2017-09-29,0.15352798053528194
2017-10-09,-0.015106073589362593
2017-10-10,0.11822542601966365
2017-10-11,0.12063595369810688
2017-10-12,-0.02238612836438829
2017-10-13,-0.10452488687782971
2017-10-16,-0.0073232323232334355
2017-10-17,-0.10289367872915309
2017-10-18,-0.18431869952371022
2017-10-19,0.08240473878622538
2017-10-20,0.15626618041016668
2017-10-23,0.07251619870410413
2017-10-24,-0.11017710811525248
2017-10-25,0.05706388206388116
2017-10-26,-0.08085194375517045
2017-10-27,-0.2881049298959751
2017-10-30,-0.15277935659884034
2017-10-31,0.006104709925206037
2017-11-01,0.05539582135326878
2017-11-02,0.22126436781609235
2017-11-03,-0.02424242424242351
2017-11-06,0.2063461903857125
2017-11-07,0.07843137254902034
2017-11-08,-0.0841064992442744
2017-11-09,-0.23515325670498
2017-11-10,0.21060606060606063
2017-11-13,0.01613308472514069
2017-11-14,-0.05573770491803293
2017-11-15,0.2258765938069214
2017-11-16,0.06754863171777087
2017-11-17,0.0631498470948019
2017-11-20,-0.30952380952380854
2017-11-21,0.24281253485000462
2017-11-22,-0.3076747055077984
2017-11-23,0.026351331368236905
2017-11-24,-0.2764831804281364
2017-11-27,0.6823475329451442
2017-11-28,-0.32878605987849546
2017-11-29,0.22476323094912734
2017-11-30,0.24687526773220425
2017-12-01,0.2923655913978507
2017-12-04,-0.5737133100252086
2017-12-05,0.4201076664721366
2017-12-06,-0.09071173488770916
2017-12-07,-0.13516140020438222
2017-12-08,-0.16530986058817537
2017-12-11,0.04504208872506411
2017-12-12,-0.35629056475380283
2017-12-13,-0.01682431496694434
2017-12-14,-0.2844334232116916
2017-12-15,-0.0026038543442475637
2017-12-18,-0.018660286003975117
2017-12-19,-0.057464987793909406
2017-12-20,0.05545240549248725
2017-12-21,0.1081405802521823
2017-12-22,0.022325165477178166
2017-12-25,0.09769570707070796
2017-12-26,0.12565037815802169
2017-12-27,-0.02207187454321596
2017-12-28,0.006610911987257315
2017-12-29,-0.010935117543977867
2018-01-02,-0.005068351358102602
2018-01-03,-0.01759501640213383
2018-01-04,-0.09026487788097516
2018-01-05,0.06509260394946341
2018-01-08,0.19415807560137271
2018-01-09,-0.10351750722775589
2018-01-10,0.030788074823704287
2018-01-11,0.021637426900584678
2018-01-12,-0.04056698725117238
2018-01-15,-0.3498727735368961
2018-01-16,0.3111724723874247
2018-01-17,-0.0034843205574943744
2018-01-18,0.07811194653299884
2018-01-19,0.12132352941176446
2018-01-22,0.21371458144650096
2018-01-23,-0.4403590752582379
2018-01-24,-0.012295081967211529
2018-01-25,-0.005958880603997782
2018-01-26,-0.07639555822328756
2018-01-29,-0.0021683936046097
2018-01-30,0.16193535018648808
2018-01-31,0.11433589829374323
2018-02-01,-0.03141232518826201
2018-02-02,-0.10966702470462161
2018-02-05,0.009316822794028734
2018-02-06,-0.00488950977901801
2018-02-07,-0.21128451380552146
2018-02-08,-0.004053109713485641
2018-02-09,0.1207345286292667
2018-02-12,0.009512907555062393
2018-02-13,-0.00922696890438636
2018-02-14,0.16137639890079422
2018-02-22,0.02337242903280634
2018-02-23,-0.023715074163504605
2018-02-26,0.0023797382287986807
2018-02-27,0.08817615899160564
2018-02-28,-0.1471740237358538
2018-03-01,0.11878316672837194
2018-03-02,0.020744467534361394
2018-03-05,-0.2255495495495527
2018-03-06,-0.05804408517021343
2018-03-07,0.20395221340315997
2018-03-08,-0.11435909980430503
2018-03-09,0.08993452766386265
2018-03-12,0.23600000000000304
2018-03-13,-0.01831837332844828
2018-03-14,-0.15596971461852072
2018-03-15,-0.08711787184009376
2018-03-16,-0.24458754740834526
2018-03-19,0.1524352331606192
2018-03-20,0.06337687469762932
2018-03-21,0.06789215686274494
2018-03-22,0.13125052490131806
2018-03-23,0.5531215393133979
2018-03-26,-0.24257221946199065
2018-03-27,0.03933072577140473
2018-03-28,-0.04205349248452668
2018-03-29,-0.06661135999115061
2018-03-30,-0.6812121986540569
2018-04-02,-0.02604278897952874
2018-04-03,-0.025289211729892618
2018-04-04,0.08228886144126954
2018-04-09,0.21139186212006097
2018-04-10,0.20942645942645743
2018-04-11,0.011593788019752312
2018-04-12,-0.028666483163590578
2018-04-13,-0.05670444775811204
2018-04-16,-0.4215274185319118
2018-04-17,0.0902890897774282
2018-04-18,0.06030169460991254
2018-04-19,-0.10423639550199662
2018-04-20,0.13582266135588683
2018-04-23,0.2769643804377948
2018-04-24,0.09517263654033076
2018-04-25,-0.019163983210834803
2018-04-26,0.05169784763356756
2018-04-27,-0.2990316812308116
2018-05-02,-0.06186237951171222
2018-05-03,-0.2929068337628659
2018-05-04,0.07598713596569748
2018-05-07,0.08983167009344409
2018-05-08,0.15423647041208569
2018-05-09,0.05025035765378942
2018-05-10,0.16005772005772123
2018-05-11,-0.1618245743893444
2018-05-14,0.0007104290991737441
2018-05-15,0.10273913605236933
2018-05-16,0.051950354609929764
2018-05-17,0.004444444444443903
2018-05-18,0.04648415786548194
2018-05-21,-0.1343854615016734
2018-05-22,-0.022575285565938866
2018-05-23,-0.27956743449973653
2018-05-24,0.0050761421319790966
2018-05-25,0.2549227685414438
2018-05-28,0.07286585365853758
2018-05-29,-0.26964838255977464
2018-05-30,0.23830643416554778
2018-05-31,0.11930196732075982
2018-06-01,-0.30061678734244734
2018-06-04,0.05618932038835088
2018-06-05,0.29176724560887113
2018-06-06,-0.13286449551867852
2018-06-07,-0.03221221083522989
2018-06-08,-0.04652552182517389
2018-06-11,0.05874970400189158
2018-06-12,-0.09767441860465376
2018-06-13,0.12475626218689145
2018-06-14,-0.2616574240412371
2018-06-15,0.15032721949538835
2018-06-19,-0.047162642480694766
2018-06-20,-0.009523809523806282
2018-06-21,0.07113682777399585
2018-06-22,0.14362945645821112
2018-06-25,-0.019730901210040504
2018-06-26,-0.09083193746510178
2018-06-27,-0.054992319508449815
2018-06-28,-0.13016294050776867
2018-06-29,0.15086206896551685
2018-07-02,0.1288692232055089
2018-07-03,-0.09487922705314147
2018-07-04,0.30997067448680177
2018-07-05,-0.014418755168816811
2018-07-06,-0.14379699248120317
2018-07-09,-0.2317241379310354
2018-07-10,0.2377309199477492
2018-07-11,-0.39661733615221795
2018-07-12,0.0657267606572645
2018-07-13,0.08047100129177591
2018-07-16,0.11557844867331035
2018-07-17,-0.1854854377505767
2018-07-18,0.06187707641196
2018-07-19,-0.08554928820843313
2018-07-20,-0.11837503973840778
2018-07-23,-0.008298755186720732
2018-07-24,0.22573028401808112
2018-07-25,0.21309523809523728
2018-07-26,0.006646726487206864
2018-07-27,-0.05391843809871355
2018-07-30,0.20398009950248816
2018-07-31,-0.2384500745156476
2018-08-01,-0.07835497835497711
2018-08-02,0.27280766396462625
2018-08-03,0.42157353263078906
2018-08-06,-0.0233871075887421
2018-08-07,0.17081776670817655
2018-08-08,0.028541226215642646
2018-08-09,-0.2938573705984497
2018-08-10,-0.34858018778551686
2018-08-13,-0.37494358658799143
2018-08-14,0.13944585210778998
2018-08-15,-0.1182529281686405
2018-08-16,0.2893733709875186
2018-08-17,0.04310057673602057
2018-08-20,0.4919912480317771
2018-08-21,-0.3158580244103739
2018-08-22,0.2439475589752315
2018-08-23,-0.24530562170744163
2018-08-24,-0.07389550518632323
2018-08-27,-0.49255590759481993
2018-08-28,0.10878419825788352
2018-08-29,-0.39206475256343454
2018-08-30,-0.14158936729890517
2018-08-31,0.117014403015211
2018-09-03,0.26320793716411744
2018-09-04,-0.09447248257630483
2018-09-05,0.13764798192745042
2018-09-06,0.0714705217980549
2018-09-07,0.043892198749317254
2018-09-10,-0.16617628081042707
2018-09-11,0.11151729401839951
2018-09-12,0.2399115533443904
2018-09-13,0.13514676113360496
2018-09-14,-0.24420968706398366
2018-09-17,0.11143373338495421
2018-09-18,-0.08280144902535772
2018-09-19,-0.33490269930948025
2018-09-20,-0.10547374137490365
2018-09-21,0.17645912026318852
2018-09-25,-0.05148116998411601
2018-09-26,0.207597799628157
2018-09-27,0.03481068182615764
2018-09-28,0.18611645392551007
2018-10-08,0.18398775910086937
2018-10-09,0.15391041592605895
2018-10-10,-0.23957221021960193
2018-10-11,0.21591693330823752
2018-10-12,-0.002462578464509216
2018-10-15,-0.2964778434738382
2018-10-16,-0.06899951567148725
2018-10-17,0.06408282505279694
2018-10-18,-0.15559525384852868
2018-10-19,-0.29244443502765016
2018-10-22,0.06831065759636817
2018-10-23,-0.3132688176131727
2018-10-24,0.15650265650266315
2018-10-25,0.3437007990969303
2018-10-26,0.1580371343087138
2018-10-29,0.3181111111111134
2018-10-30,0.34431769927462497
2018-10-31,-0.16370656370656783
2018-11-01,-0.3342136854741896
2018-11-02,0.018767642071159114
2018-11-05,-0.5328825526137132
2018-11-06,0.05229040150290601
2018-11-07,0.12033613445378166
2018-11-08,-0.08636747802569161
2018-11-09,-0.020620500252215943
2018-11-12,0.32969327288172023
2018-11-13,-0.3092182315049772
2018-11-14,0.06186657903384908
2018-11-15,0.056404984553727056
2018-11-16,0.11450118872851503
2018-11-19,-0.14773391900118243
2018-11-20,0.25158078682945884
2018-11-21,-0.24708922884143547
2018-11-22,0.19103991413095078
2018-11-23,-0.06052380203862002
2018-11-26,0.005693339161851427
2018-11-27,-0.08430961123739632
2018-11-28,-0.017130291368883138
2018-11-29,-0.17682594228985996
2018-11-30,-0.007767621897668636
2018-12-03,0.365364282822915
2018-12-04,0.23890063424947172
2018-12-05,0.12405624876212917
2018-12-06,0.09074689307247431
2018-12-07,-0.04186733303043921
2018-12-10,-0.3805897078044368
2018-12-11,-0.3832519300456908
2018-12-12,-0.05658916336534208
2018-12-13,-0.06379850276723632
2018-12-14,-0.1027307127714514
2018-12-17,-0.13990011275265968
2018-12-18,0.13670440932075972
2018-12-19,0.040401353213278465
2018-12-20,0.008661577481385588
2018-12-21,0.16904765608494826
2018-12-24,0.22309545846758516
2018-12-25,0.1031071287815443
2018-12-26,-0.06357854585738455
2018-12-27,0.20275138595934428
2018-12-28,-0.16378006537541961
2019-01-02,-0.08039549187368947
2019-01-03,-0.20025024577710154
2019-01-04,0.12373077497386722
2019-01-07,-0.4107416299601091
2019-01-08,0.12636097152428805
2019-01-09,0.12429488649392137
2019-01-10,0.024463887459254277
2019-01-11,-0.15447884593454198
2019-01-14,0.2706100146307979
2019-01-15,-0.02984234234234253
2019-01-16,-0.1289424860853406
2019-01-17,0.0968083919205455
2019-01-18,0.18400293524124162
2019-01-21,0.2070612668743461
2019-01-22,0.16615186615186733
2019-01-23,0.057463524130188064
2019-01-24,-0.04212144967738072
2019-01-25,-0.02889200561009836
2019-01-28,-0.28712737127370935
2019-01-29,-0.23039126478617078
2019-01-30,0.08864706631029845
2019-01-31,0.07536231884058023
2019-02-01,-0.08252934793331426
2019-02-11,-0.04509136784157953
2019-02-12,0.08699411211066652
2019-02-13,-0.041796260702428964
2019-02-14,0.07265394757251473
2019-02-15,0.14763198722949988
2019-02-18,0.1504374800494374
2019-02-19,-0.08254177326342226
2019-02-20,-0.1567729529090839
2019-02-21,-0.1585103796976043
2019-02-22,-0.3457376883405766
2019-02-25,-0.21185673376568806
2019-02-26,0.3057628934406155
2019-02-27,0.20038617454685287
2019-02-28,-0.0865144243447082
2019-03-01,0.5817542063847458
2019-03-04,0.27531967451322464
2019-03-05,-0.3569668246445482
2019-03-06,-0.08126088470916117
2019-03-07,0.33669253680356165
2019-03-08,-0.5451133217105932
2019-03-11,-0.2835335335335346
2019-03-12,0.22256410256410608
2019-03-13,-0.10602033625289523
2019-03-14,-0.357972473984556
2019-03-15,0.31750859560962585
2019-03-18,0.32019810508182545
2019-03-19,-0.18256410256410432
2019-03-20,0.18270017815012896
2019-03-21,0.038105891126022806
2019-03-22,-0.22663598158895146
2019-03-25,-0.26783271448113943
2019-03-26,0.00018779342722692605
2019-03-27,-0.04399585921324871
2019-03-28,0.3982378417694335
2019-03-29,0.16044164960514545
2019-04-01,0.13753299153596185
2019-04-02,0.11128073804130248
2019-04-03,-0.11368038740920396
2019-04-04,-0.4682881773399026
2019-04-08,-0.06085972850678589
2019-04-09,-0.07303151526978122
2019-04-10,-0.05024787419153313
2019-04-11,0.12102830265185194
2019-04-12,0.31594036697247607
2019-04-15,-0.0229927039670673
2019-04-16,-0.021235306344149434
2019-04-17,-0.01951443131092761
2019-04-18,0.09159128235220852
2019-04-19,-0.24019868656839555
2019-04-22,-0.02153218291075956
2019-04-23,0.00622029132913722
2019-04-24,0.07750946030843975
2019-04-25,-0.3186157474600888
2019-04-26,0.41811670109880744
2019-04-29,-0.03522123893805463
2019-04-30,0.06512493354598343
2019-05-06,0.09822507201932947
2019-05-07,0.20479559748427817
2019-05-08,-0.49003185089064216
2019-05-09,0.02022123893805288
2019-05-10,0.03804966962861773
2019-05-13,-0.2182488391019185
2019-05-14,0.2154304029304029
2019-05-15,0.14811791383219908
2019-05-16,0.16559907834101484
2019-05-17,-0.10156095633274315
2019-05-20,0.3132642211589553
2019-05-21,-0.33590786437761483
2019-05-22,0.1343697848045666
2019-05-23,0.008105957630208022
2019-05-24,0.22757534922816403
2019-05-27,-0.39136024993991614
2019-05-28,0.0931294701334205
2019-05-29,-0.05946996695393002
2019-05-30,-0.13763248076617485
2019-05-31,-0.27974276527331127
2019-06-03,0.3315659800926376
2019-06-04,0.006514657980457442
2019-06-05,-0.06388413959569476
2019-06-06,-0.021953058349701977
2019-06-10,0.06676506246376067
2019-06-11,-0.2511601640189554
2019-06-12,0.00740740740740726
2019-06-13,0.11645164200649558
2019-06-14,-0.01972555746140569
2019-06-17,0.10027616193665875
2019-06-18,-0.019474679457614275
2019-06-19,-0.0186433624635861
2019-06-20,-0.17145721925133678
2019-06-21,0.0976430976430957
2019-06-24,-0.10458269329237127
2019-06-25,0.1726617696534699
2019-06-26,-0.06212311830289644
2019-06-27,0.15454545454545396
2019-06-28,0.04823428079242282
2019-07-01,0.0900793650793659
2019-07-02,-0.009842380298244566
2019-07-03,0.14387189387189656
2019-07-04,-0.09296407185628672
2019-07-05,-0.22246643978067726
2019-07-08,-0.04642857142857187
2019-07-09,-0.0012421760995663111
2019-07-10,-0.030645710878270283
2019-07-11,-0.07788257351112528
2019-07-12,0.2114000689476837
2019-07-15,-0.07565789473684219
2019-07-16,-0.14545477409051713
2019-07-17,-0.15227021040974492
2019-07-18,0.15261520431937814
2019-07-19,0.04562976374733857
2019-07-22,0.16790881724606885
2019-07-23,0.06833702029431887
2019-07-24,0.13980036104916768
2019-07-25,-0.11343522561863084
2019-07-26,-0.23997605349998852
2019-07-29,-0.20871678596304297
2019-07-30,-0.11375921375921584
2019-07-31,0.019477739726024446
2019-08-01,0.056666666666663146
2019-08-02,0.19476820842782952
2019-08-05,0.44979919678714825
2019-08-06,0.12380050505050631
2019-08-07,0.001905487804879355
2019-08-08,0.08637873754152936
2019-08-09,-0.144963257108956
2019-08-12,-0.5175438596491202
2019-08-13,0.0075044802867365555
2019-08-14,-0.09697325888921465
2019-08-15,-0.14545046749933283
2019-08-16,0.05637763740766347
2019-08-19,0.13128601875514406
2019-08-20,-0.0005329136542238833
2019-08-21,0.12569813674155939
2019-08-22,-0.040756912580987445
2019-08-23,-0.009405731951660926
2019-08-26,0.11512546449844337
2019-08-27,0.046050205139258386
2019-08-28,-0.17192596651558972
2019-08-29,0.18513669941083138
2019-08-30,0.014630861527160775
2019-09-02,0.05674177433973268
2019-09-03,-0.12041569128183191
2019-09-04,0.0054375500109106745
2019-09-05,0.026319850104703335
2019-09-06,0.012917724872557275
2019-09-09,-0.1731093979441985
2019-09-10,0.03562385098338221
2019-09-11,0.0935492608931178
2019-09-12,-0.3389006342494678
2019-09-16,0.1840511936992404
2019-09-17,0.19773102310231105
2019-09-18,0.3599176154242255
2019-09-19,0.011773659235385127
2019-09-20,0.3012277111955549
2019-09-23,-0.2002113420218422
2019-09-24,-0.2617461746174625
2019-09-25,-0.46900522158254254
2019-09-26,0.15233482951413532
2019-09-27,-0.03271787052076766
2019-09-30,0.11758660896029949
2019-10-08,0.10325644504748942
2019-10-09,0.11099656357388368
2019-10-10,-0.18748347622464964
2019-10-11,-0.018872896149661766
2019-10-14,-0.23998556105610613
2019-10-15,0.03297591465057475
2019-10-16,0.16453900709219818
2019-10-17,-0.10344827586206602
2019-10-18,-0.13664993153811603
2019-10-21,0.20695564516128837
2019-10-22,-0.07444151895985479
2019-10-23,-0.2547116498544809
2019-10-24,0.12680250783698976
2019-10-25,0.2500323206205572
2019-10-28,-0.2120228762369859
2019-10-29,0.005465051517680793
2019-10-30,0.06009134194927246
2019-10-31,-0.04100378787879195
2019-11-01,-0.27088174146997634
2019-11-04,0.08944223107569768
2019-11-05,0.1627680311890859
2019-11-06,0.15217203059604786
2019-11-07,0.12884963768116134
2019-11-08,0.25951324458787156
2019-11-11,0.2402654867256627
2019-11-12,-0.10812463314419717
2019-11-13,-0.18505369274599998
2019-11-14,-0.1005880256592993
2019-11-15,-0.19875827474199184
2019-11-18,-0.38222977243994927
2019-11-19,0.2670007599252366
2019-11-20,0.09629629629629373
2019-11-21,0.0038488952245179136
2019-11-22,0.09621422642462882
2019-11-25,0.3757249694749701
2019-11-26,-0.4006821309611638
2019-11-27,-0.016597510373440833
2019-11-28,0.0254448725004582
2019-11-29,-0.10447868923454784
2019-12-02,-0.31439131439131296
2019-12-03,0.09369446886515365
2019-12-04,0.08111363940570107
2019-12-05,-0.03624856156501672
2019-12-06,0.15443949989404798
2019-12-09,0.15933876460192006
2019-12-10,-0.06605615134353629
2019-12-11,-0.0489720875814801
2019-12-12,0.12229437229437352
2019-12-13,-0.13692226102021873
2019-12-16,-0.10882944277081656
2019-12-17,0.1793936864515568
2019-12-18,0.037863741080182034
2019-12-19,-0.27779718981417256
2019-12-20,0.11430771709419808
2019-12-23,0.10616297546619047
2019-12-24,-0.10244881571610727
2019-12-25,-0.14194944919762703
2019-12-26,0.17065433267131247
2019-12-27,-0.03203747072599743
2019-12-30,0.024520131086146698
2019-12-31,0.15372295664920538
2020-01-02,0.036408965244865296
2020-01-03,0.13500000000000267
2020-01-06,0.1458527375708022
2020-01-07,-0.03919816138917706
2020-01-08,0.05143303490957013
2020-01-09,0.3283231776122776
2020-01-10,-0.20216417910447942
2020-01-13,-0.09099559471365756
2020-01-14,0.04336273179556879
2020-01-15,-0.26468094127623465
2020-01-16,-0.4437162493863519
2020-01-17,0.17552331223141276
2020-01-20,-0.19490502793296072
2020-01-21,-0.09931235542035097
2020-01-22,0.06157232704402572
2020-01-23,0.18117765032898098
2020-02-03,-0.20600223077003227
2020-02-04,0.16394980405236487
2020-02-05,0.06250713421455495
2020-02-06,-0.07877934272300391
2020-02-07,-0.048945994780163024
2020-02-10,0.12609838219594466
2020-02-11,-0.1635744203881782
2020-02-12,9.687106460952791e-05
2020-02-13,0.10211267605633688
2020-02-14,0.0043206663196216355
2020-02-17,-0.11977948546608962
2020-02-18,0.12252964426877455
2020-02-19,-0.16374666123409712
2020-02-20,-0.005882352941180392
2020-02-21,0.019139131800812434
2020-02-24,0.34282120690126516
2020-02-25,0.17703349282296893
2020-02-26,0.2351595375250224
2020-02-27,-0.01650570676031101
2020-02-28,0.14542210578616604
2020-03-02,-0.2514970059880217
2020-03-03,-0.1837674995569761
2020-03-04,-0.2012953010886031
2020-03-05,0.03765523527401249
2020-03-06,-0.27268553062044487
2020-03-09,-0.27510917030567694
2020-03-10,0.5067340067340049
2020-03-11,0.2443945272615889
2020-03-12,0.13721509393102158
2020-03-13,0.30525159051474904
2020-03-16,0.4043967692502674
2020-03-17,-0.7967289719626147
2020-03-18,-0.032862346395549843
2020-03-19,-0.17967260182982453
2020-03-20,-0.2624271380793129
2020-03-23,-0.12241474671091471
2020-03-24,0.39229211189435736
2020-03-25,-0.1588578052390262
2020-03-26,-0.058902382905507984
2020-03-27,0.19772256728778545
2020-03-30,0.009574516187376859
2020-03-31,-0.08585440206766334
2020-04-01,-0.0017074047447878937
2020-04-02,0.3215875957778659
2020-04-03,-0.19260949635679336
2020-04-07,-0.0802771556550969
2020-04-08,-0.06815029630563563
2020-04-09,0.17124226348364277
2020-04-10,-0.3814576134653313
2020-04-13,0.24031922678269277
2020-04-14,0.2203907322444494
2020-04-15,0.10426141175947268
2020-04-16,-0.1187657623435591
2020-04-17,0.1126055898604495
2020-04-20,-0.25278594879339894
2020-04-21,-0.14789042477919276
2020-04-22,-0.080203807472642
2020-04-23,-0.053893605301995176
2020-04-24,0.04601537090690706
2020-04-27,0.025501943005180633
2020-04-28,-0.045958655824433446
2020-04-29,0.08015860204205172
2020-04-30,0.09261757036237747
2020-05-06,0.059237196988500024
2020-05-07,0.15129573170731714
2020-05-08,-0.059302773497689525
2020-05-11,-0.1338249623527336
2020-05-12,-0.11650992685475452
2020-05-13,-0.1775558021950921
2020-05-14,-0.16599773592672545
2020-05-15,0.06403276955602602
2020-05-18,0.18420416061925712
2020-05-19,0.05989110707804119
2020-05-20,0.15971443141254477
2020-05-21,0.06291247430487741
2020-05-22,0.2396065976846646
2020-05-25,-0.1764458169567671
2020-05-26,-0.04908103592314322
2020-05-27,-0.0669295905347407
2020-05-28,0.02121887774061785
2020-05-29,-0.4482765283252194
2020-06-01,0.11497405172777667
2020-06-02,0.0921566019331391
2020-06-03,-0.0365750129698627
2020-06-04,0.02603669263634087
2020-06-05,0.19009170653907495
2020-06-08,-0.11851441625420113
2020-06-09,0.02245590973819698
2020-06-10,-0.12036077130416784
2020-06-11,0.06599229287090573
2020-06-12,0.1490384615384599
2020-06-15,0.24306800411915508
2020-06-16,0.03770739064856736
2020-06-17,0.2667500962649201
2020-06-18,-0.15775193798449644
2020-06-19,-0.0878518466458136
2020-06-22,-0.2885889026206569
2020-06-23,-0.13406593406593434
2020-06-24,-0.21815089672232274
2020-06-29,0.15717722534081813
2020-06-30,-0.08648337227539099
2020-07-01,0.11556013038257004
2020-07-02,0.1620379620379621
2020-07-03,0.17817414652857563
2020-07-06,-0.07078257278546368
2020-07-07,0.20069347604869414
2020-07-08,0.0506352087114351
2020-07-09,-0.22164637393063769
2020-07-10,0.040739124108831466
2020-07-13,0.014201962567013848
2020-07-14,-0.22119913053979096
2020-07-15,0.09875111507582221
2020-07-16,0.12670151779175312
2020-07-17,-0.09277504105090312
2020-07-20,-0.02617801047120655
2020-07-21,0.0773309323729513
2020-07-22,-0.2855932203389811
2020-07-23,0.07240269242024873
2020-07-24,0.08203041336474619
2020-07-27,-0.09499999999999892
2020-07-28,0.04170729065106606
2020-07-29,0.24189189189189164
2020-07-30,-0.16651135701805325
2020-07-31,-0.11938895417156267
2020-08-03,0.2234916201117332
2020-08-04,-0.056752912860346894
2020-08-05,-0.12266112266112258
2020-08-06,0.13177746346063307
2020-08-07,-0.13928473928473892
2020-08-10,-0.11019893718490552
2020-08-11,-0.0012746783660400537
2020-08-12,0.10530339225991209
2020-08-13,-0.12276355628957056
2020-08-14,0.1779671717171697
2020-08-17,-0.17519814941572356
2020-08-18,0.14755353906858787
2020-08-19,-0.30763617398200394
2020-08-20,0.18662763236973234
2020-08-21,0.00531069364162174
2020-08-24,0.17098997353115133
2020-08-25,-0.2366253953560098
2020-08-26,0.3362766156659229
2020-08-27,-0.26975650499417264
2020-08-28,0.014080331999406366
2020-08-31,0.10258215962440942
2020-09-01,0.49067164179103706
2020-09-02,-0.13049700754618548
2020-09-03,0.1751273138792306
2020-09-04,0.15667941634792276
2020-09-07,-0.13535825545171135
2020-09-08,-0.479957356076755
2020-09-09,0.3068922968447054
2020-09-10,0.07138136153337912
2020-09-11,-0.32903858870709657
2020-09-14,0.045840910052015967
2020-09-15,0.31252359974826904
2020-09-16,-0.4303051865907682
2020-09-17,-0.08823529411764776
2020-09-18,0.20732420732420967
2020-09-21,-0.039394219226153465
2020-09-22,-0.23956019951214078
2020-09-23,0.1636663286004058
2020-09-24,0.042553191489362326
2020-09-25,-0.10958565244279758
2020-09-28,0.020828588946307132
2020-09-29,-0.06080534552488297
2020-09-30,0.12924906030397315
2020-10-09,-0.07989758982961145
2020-10-12,0.17397959183673456
2020-10-13,-0.05456070248137554
2020-10-14,-0.006306075365288058
2020-10-15,-0.25479270739934434
2020-10-16,0.07795353539608627
2020-10-19,-0.1347560975609749
2020-10-20,0.0016420361247954235
2020-10-21,0.5826605390634663
2020-10-22,0.08464058464058558
2020-10-23,-0.04420625935799584
2020-10-26,0.035026855683720354
2020-10-27,0.08658849649621625
2020-10-28,-0.734361939258843
2020-10-29,0.09646517865695928
2020-10-30,0.16171678042181678
2020-11-02,-0.0953814592297566
2020-11-03,0.005365526492287942
2020-11-04,0.26771089271089166
2020-11-05,-0.09480894015861505
2020-11-06,-0.30097680097680213
2020-11-09,0.06560619660250787
2020-11-10,-0.06571859513035919
2020-11-11,0.14449797514313564
2020-11-12,0.042315789473683335
2020-11-13,0.2924634420697434
2020-11-16,0.1277921757373803
2020-11-17,0.027245888974727912
2020-11-18,-0.22156013755272969
2020-11-19,0.09438961038960836
2020-11-20,-0.30457705944651814
2020-11-23,-0.0921458027207664
2020-11-24,-0.02928056965133518
2020-11-25,0.038664487025618026
2020-11-26,-0.046785370106921256
2020-11-27,0.20480464727710912
2020-11-30,-0.19886338749944965
2020-12-01,0.10758669967080839
2020-12-02,0.01683590382220379
2020-12-03,-0.13452622609829004
2020-12-04,-0.01929953589815349
2020-12-07,0.21216596343178154
2020-12-08,-0.11582126580913091
2020-12-09,0.04318309427798421
2020-12-10,0.02127659574468138
2020-12-11,0.2791671413922794
2020-12-14,-0.052260496704937015
2020-12-15,0.0681919828497382
2020-12-16,-0.044878913688527935
2020-12-17,0.0026268399606873133
2020-12-18,-0.4987347673893782
2020-12-21,0.03995890940335037
2020-12-22,0.05014220940037995
2020-12-23,0.18393580165052822
2020-12-24,0.19919246315371192
2020-12-25,0.16308987862564567
2020-12-28,0.14461259079903277
2020-12-29,-0.145520953479433
2020-12-30,-0.2619358854652999
2020-12-31,-0.28198160535117067
2021-01-04,-0.009968205983527018
2021-01-05,-0.4346351041023453
2021-01-06,0.04011154011154157
2021-01-07,0.11328976034858679
2021-01-08,0.29519230769230775
2021-01-11,0.03591160220994249
2021-01-12,0.4162954977446139
2021-01-13,0.006897006897007611
2021-01-14,-0.008113590263694613
2021-01-15,-0.24493006993006833
2021-01-18,0.021604938271607095
2021-01-19,-0.2732194669618
2021-01-20,-0.008517837869373464
2021-01-21,0.023227969348661268
2021-01-22,-0.024481391092129504
2021-01-25,0.012102926896932216
2021-01-26,0.14741232102981855
2021-01-27,-0.09872462726783139
2021-01-28,-0.14583333333333626
2021-01-29,0.24241970278043973
2021-02-01,-0.14351178673716453
2021-02-02,-0.03260869565217515
2021-02-03,0.2347322049617449
2021-02-04,0.14654418197725502
2021-02-05,-0.2600658609451382
2021-02-08,0.1444359562006599
2021-02-09,-0.07949790794978902
2021-02-10,0.02651181417701433
2021-02-18,0.028058992625920966
2021-02-19,0.2634640485784016
2021-02-22,0.1156947627535878
2021-02-23,0.19029336249524065
2021-02-24,-0.24264124622181016
2021-02-25,0.027159494581591503
2021-02-26,-0.0742585772436539
2021-03-01,-0.03840465626640019
2021-03-02,-0.12611274119753008
2021-03-03,0.19274225632281916
2021-03-04,-0.18192944854018622
2021-03-05,-0.06530032467532126
2021-03-08,-0.205463343791828
2021-03-09,-0.009252737917944905
2021-03-10,0.012756787013712426
2021-03-11,0.1276415268301677
2021-03-12,-0.09872337092732153
2021-03-15,0.04499751335221783
2021-03-16,-0.021348342776915764
2021-03-17,-0.32221608588477624
2021-03-18,-0.08398268398268355
2021-03-19,0.3464912280701772
2021-03-22,-0.048599167822468606
2021-03-23,0.03642469646086073
2021-03-24,0.17875997334745486
2021-03-25,0.040996531062755186
2021-03-26,-0.5533333333333361
2021-03-29,0.07321941216678111
2021-03-30,0.09282700421941614
2021-03-31,0.1075419600133056
2021-04-01,-0.06932685053231241
2021-04-02,0.5727397260274006
2021-04-06,0.07788027950844992
2021-04-07,-0.16524459613197534
2021-04-08,-0.12444279971068085
2021-04-09,0.18183172002977777
2021-04-12,-0.13465461964441997
2021-04-13,-0.0945818345323738
2021-04-14,0.10749317833176467
2021-04-15,0.1393499726039969
2021-04-16,-0.09880537624567409
2021-04-19,-0.3903592531754264
2021-04-20,0.0639454899226056
2021-04-21,0.07169434905831377
2021-04-22,-0.13695075300949172
2021-04-23,-0.03319637968057272
2021-04-26,0.44334694372731587
2021-04-27,0.0024859616902970193
2021-04-28,-0.10985488094364099
2021-04-29,0.030537109816147927
2021-04-30,0.04884667571234561
2021-05-06,-0.16551724137931217
2021-05-07,-0.0071729112402317795
2021-05-10,0.049163982205858464
2021-05-11,0.0896965155488933
2021-05-12,0.22727272727272768
2021-05-13,0.13821733821733762
2021-05-14,0.21621494447581452
2021-05-17,0.05543917402364183
2021-05-18,-0.07339722405816321
2021-05-19,-0.36690140845070396
2021-05-20,-0.2162609320504058
2021-05-21,-0.4105241605241619
2021-05-24,-0.15349994971336617
2021-05-25,-0.01465826014425266
2021-05-26,0.2924569640062607
2021-05-27,-0.0008894034364125628
2021-05-28,0.18369170773980636
2021-05-31,-0.016059381416419195
2021-06-01,-0.019170682126184054
2021-06-02,-0.29188665175242423
2021-06-03,-0.016706946471727796
2021-06-04,-0.06266084080729975
2021-06-07,0.14400877969179265
2021-06-08,0.04476801233529365
2021-06-09,-0.04227105434076772
2021-06-10,-0.02242892384842661
2021-06-11,0.005174844078859937
2021-06-15,-0.0776264047961873
2021-06-16,-0.07203985573690078
2021-06-17,0.142537893509528
2021-06-18,0.20605072700006571
2021-06-21,0.027411141134896476
2021-06-22,0.09761858177041528
2021-06-23,0.20923849415927048
2021-06-24,0.022106553100613872
2021-06-25,-0.1342281056566779
2021-06-28,0.14821266968326202
2021-06-29,-0.2777229960146289
2021-06-30,-0.13181520620966736
2021-07-01,-0.006042296072506148
2021-07-02,-0.05597597597597467
2021-07-05,-0.17687848383500793
2021-07-06,0.22942476953239063
2021-07-07,0.02692766295707385
2021-07-08,0.04240282685512354
2021-07-09,0.1681355932203386
2021-07-12,-0.036502776649058724
2021-07-13,-0.058645754630954956
2021-07-14,-0.14845511375281678
2021-07-15,0.04353467314487782
2021-07-16,0.02337519814656605
2021-07-19,0.18107854701630094
2021-07-20,0.08852515297776396
2021-07-21,0.12740451899968114
2021-07-22,-0.09137228260869726
2021-07-23,-0.16069111923575652
2021-07-26,-0.131207454525163
2021-07-27,-0.14864435220347932
2021-07-28,-0.06484512717199975
2021-07-29,-0.07619787045252836
2021-07-30,0.18992106860959226
2021-08-02,0.14774593222869373
2021-08-03,0.1858601728201094
2021-08-04,0.021645021645024024
2021-08-05,0.08976273436203606
2021-08-06,-0.2805256869772996
2021-08-09,-0.1291396103896158
2021-08-10,-0.12755615152530872
2021-08-11,0.03683883977043406
2021-08-12,-0.004914647217210291
2021-08-13,0.03172488152219871
2021-08-16,-0.06544231546015213
2021-08-17,-0.046758182049432766
2021-08-18,0.009081762373184655
2021-08-19,0.028859814843944308
2021-08-20,0.13078733744163396
2021-08-23,0.43234046360830203
2021-08-24,0.22564458227341147
2021-08-25,-0.050614641279464995
2021-08-26,-0.005180383401873396
2021-08-27,-0.0012987012987027806
2021-08-30,-0.5952343952343933
2021-08-31,-0.30520021773891703
2021-09-01,0.26486719930900693
2021-09-02,-0.03571839493743757
2021-09-03,-0.05703688003391226
2021-09-06,0.2378554778554763
2021-09-07,0.4281099167355738
2021-09-08,-0.3188879082082972
2021-09-09,0.0670245876128231
2021-09-10,0.21060830860534085
2021-09-13,0.181571194762683
2021-09-14,-0.3811364994194649
2021-09-15,0.25424144356183204
2021-09-16,-0.05475278233898875
2021-09-17,-0.12517182130584104
2021-09-22,-0.1756137479541712
2021-09-23,0.21657592256503383
2021-09-24,-0.2217908094196757
2021-09-27,0.26166800320769784
2021-09-28,0.03350515463917465
2021-09-29,0.028160200250311906
2021-09-30,0.032960341021542605
2021-10-08,0.18468902231788764
2021-10-11,-0.25155695703586856
2021-10-12,-0.0406911928651061
2021-10-13,0.12587495056007747
2021-10-14,-0.20783318334602438
2021-10-15,-0.14944118150196667
2021-10-18,-0.025598449197179247
2021-10-19,-0.09824000794728233
2021-10-20,-0.21447150580748625
2021-10-21,0.09610602418316437
2021-10-22,0.06470110860728134
2021-10-25,-0.058428014562767666
2021-10-26,0.070930065094047
2021-10-27,0.1207566572851263
2021-10-28,-0.036969361387964896
2021-10-29,-0.17537173745540896
2021-11-01,0.04321918532277855
2021-11-02,0.08924296578370057
2021-11-03,-0.17623548366965996
2021-11-04,-0.11053072540596554
2021-11-05,0.16005366115587624
2021-11-08,0.04081789377278979
2021-11-09,-0.34041450428437714
2021-11-10,0.10032057927558666
2021-11-11,0.09758811246335149
2021-11-12,-0.027593447120330444
2021-11-15,-0.07581060126993511
2021-11-16,0.2564883084373071
2021-11-17,-0.09529392518268123
2021-11-18,-0.0319407346324132
2021-11-19,-0.0821774635145109
2021-11-22,0.0844218099262927
2021-11-23,-0.027882240607678924
2021-11-24,0.09412541983848763
2021-11-25,0.043818262309197414
2021-11-26,0.05845389867736266
2021-11-29,-0.08468114602587716
2021-11-30,-0.027110161287379336
2021-12-01,0.05769333363818632
2021-12-02,0.03210067154334917
2021-12-03,-0.09087231739715154
2021-12-06,0.023026315789473804
2021-12-07,0.08457174484572036
2021-12-08,-0.0702655994178652
2021-12-09,-0.0437250815512836
2021-12-10,0.14180065885373855
2021-12-13,0.11656619522374165
2021-12-14,-0.16270274813009672
2021-12-15,0.011368256124670715
2021-12-16,0.023761023339881775
2021-12-17,-0.11664307073359888
2021-12-20,-0.022774502152434144
2021-12-21,0.17587861794490378
2021-12-22,0.009335677622741664
2021-12-23,-0.15244655197126075
2021-12-24,0.16955315749871788
2021-12-27,-0.10082963676775912
2021-12-28,-0.0850843971192603
2021-12-29,-0.07950798047750908
2021-12-30,0.14521745518659712
2021-12-31,-0.1387503842081904
2022-01-04,0.004844961240311495
2022-01-05,-0.025142525672747128
2022-01-06,0.17562326869806005
2022-01-07,0.04873115478727588
2022-01-10,0.08859480944587467
2022-01-11,-0.005811078140454319
2022-01-12,0.03747694808239334
2022-01-13,-0.0779212181396896
2022-01-14,0.10447006472492058
2022-01-17,-0.10449064449064524
2022-01-18,0.15472412161871354
2022-01-19,0.2187698781621565
2022-01-20,-0.038756840643631024
2022-01-21,-0.2300755033557041
2022-01-24,0.1762632197414804
2022-01-25,-0.22707208487259517
2022-01-26,-0.27873101446270254
2022-01-27,0.05374412821221154
2022-01-28,0.17278383668903674
2022-02-07,-0.15845868534926857
2022-02-08,0.1647134886096327
2022-02-09,0.0645336610033307
2022-02-10,-0.009286188070819164
2022-02-11,-0.0942189968404413
2022-02-14,0.12759322185460165
2022-02-15,-0.09959237573462865
2022-02-16,-0.050782285865818524
2022-02-17,0.04928410213006064
2022-02-18,-0.05323818175848038
2022-02-21,-0.22588844110643086
2022-02-22,0.14302368350508665
2022-02-23,0.0346131471785952
2022-02-24,-0.1040552584670234
2022-02-25,0.25520275588011354
2022-02-28,0.3864841783531091
2022-03-01,-0.10887983598263931
2022-03-02,0.16025538547619755
2022-03-03,0.2002346850115104
2022-03-04,-0.28195716676503063
2022-03-07,-0.011508868022949675
2022-03-08,0.1302546252145702
2022-03-09,-0.12437044836360428
2022-03-10,-0.11441882876063927
2022-03-11,0.07525325615050615
2022-03-14,-0.40607015236551514
2022-03-15,-0.1983182161753586
2022-03-16,-0.10928215137714128
2022-03-17,-0.24175305630571878
2022-03-18,-0.09799999999999995
2022-03-21,0.15698014546032335
2022-03-22,0.056878306878307305
2022-03-23,0.024082011400292827
2022-03-24,0.2692469159723583
2022-03-25,0.19682352941176512
2022-03-28,-0.048490862560952516
2022-03-29,-0.009728622631846685
2022-03-30,0.18564222662582977
2022-03-31,0.0350744810214528
2022-04-01,-0.1962894163513373
2022-04-06,0.03178692171435808
2022-04-07,0.07967690156888763
2022-04-08,-0.13486513486513255
2022-04-11,-0.24688380147674455
2022-04-12,0.15145046277504656
2022-04-13,-0.019659695517041713
2022-04-14,-0.12725014323372252
2022-04-15,-0.005241666335953903
2022-04-18,0.28065364373375823
2022-04-19,-0.12183464961736232
2022-04-20,0.07921704852146515
2022-04-21,0.09438122937604573
2022-04-22,0.06716250411886088
2022-04-25,-0.06812647119445586
2022-04-26,0.11773130893628217
2022-04-27,0.11732858661814322
2022-04-28,0.00659509609012701
2022-04-29,-0.10137941456957873
2022-05-05,-0.20694619303361575
2022-05-06,-0.06195852984038541
2022-05-09,-0.15756895197424353
2022-05-10,0.08034089725983261
2022-05-11,0.11373361681513625
2022-05-12,0.09457383256965464
2022-05-13,0.005305285656649413
2022-05-16,-0.12134918870860194
2022-05-17,-0.18221641663038343
2022-05-18,-0.05188754380375958
2022-05-19,-0.042932429888950296
2022-05-20,0.07955681915591918
2022-05-23,0.26775274872619914
2022-05-24,0.18418792764342737
2022-05-25,-0.06271558918437534
2022-05-26,0.17057196592543222
2022-05-27,-0.19456466961135374
2022-05-30,-0.20151032448377515
2022-05-31,-0.10865005959835253
2022-06-01,0.11244019138755604
2022-06-02,-0.17262510602204983
2022-06-06,0.16737256465194886
2022-06-07,0.04559689922480593
2022-06-08,0.014409221902014775
2022-06-09,-0.07059565080365413
2022-06-10,0.040379403794035255
2022-06-13,0.011915282053274426
2022-06-14,0.09251387620318999
2022-06-15,0.10511363636363877
2022-06-16,-0.03859119806659091
2022-06-17,0.1274755765268841
2022-06-20,-0.014686828530270486
2022-06-21,-0.027212224703357477
2022-06-22,-0.16805069930070027
2022-06-23,0.1361572599726283
2022-06-24,0.07724230590539807
2022-06-27,-0.048785373401906376
2022-06-28,-0.058231884057971674
2022-06-29,-0.016817538289930475
2022-06-30,-0.17293532338308176
2022-07-01,-0.24231950844854266
2022-07-04,-0.05018551790859104
2022-07-05,-0.003495750708216158
2022-07-06,0.2338243686688547
2022-07-07,0.2671368597816954
2022-07-08,0.038268955650932496
2022-07-11,0.21570029441807437
2022-07-12,0.06813140962294414
2022-07-13,-0.23213668194000156
2022-07-14,-0.278642236125782
2022-07-15,0.05632563894366314
2022-07-18,-0.2597732789469746
2022-07-19,0.001918796530818126
2022-07-20,0.2249863457777606
2022-07-21,0.10690482537989716
2022-07-22,-0.019508683941672995
2022-07-25,0.06903768596418919
2022-07-26,-0.10249436960863731
2022-07-27,-0.30409482991287773
2022-07-28,0.20874469510833343
2022-07-29,-0.05202043446244523
2022-08-01,0.06206389104251368
2022-08-02,-0.020401099661794056
2022-08-03,0.22467539863325736
2022-08-04,-0.37240331666561455
2022-08-05,0.06864774541101333
2022-08-08,0.002362137372436856
2022-08-09,0.1534080379535721
2022-08-10,-0.012637157107231213
2022-08-11,0.14031591011012393
2022-08-12,-0.07118182063530501
2022-08-15,-0.146643059085589
2022-08-16,-0.0712595541913062
2022-08-17,-0.056219960283421765
2022-08-18,-0.031052641509297183
2022-08-19,0.12909899922566448
2022-08-22,0.1459860062566794
2022-08-23,-0.0038074699373824806
2022-08-24,-0.21331679565282657
2022-08-25,0.06963027531625944
2022-08-26,-0.03228346141633919
2022-08-29,-0.085215523348378
2022-08-30,-0.05208333333332997
2022-08-31,0.2769449753145433
2022-09-01,-0.06902517599331694
2022-09-02,-0.06310451453308569
2022-09-05,0.07510348905972986
2022-09-06,0.13999542124541808
2022-09-07,-0.08584008584008684
2022-09-08,0.08620689655172052
2022-09-09,0.045757575757576774
2022-09-13,-0.061816172407443123
2022-09-14,-0.1459325657277855
2022-09-15,0.0634240960327915
2022-09-16,0.03171933197164756
2022-09-19,0.07156862745098025
2022-09-20,0.07838330133412033
2022-09-21,0.017558050070032978
2022-09-22,-0.012746638728827604
2022-09-23,0.06869527011147838
2022-09-26,-0.21743426052591547
2022-09-27,0.04404701437342563
2022-09-28,0.02676379760868078
2022-09-29,0.08955823293172473
2022-09-30,-0.2219620373207289
2022-10-10,0.2381907920213464
2022-10-11,-0.08554305586946657
2022-10-12,0.0284769552601389
2022-10-13,-0.21618122977346144
2022-10-14,0.07089216987837202
2022-10-17,-0.08707401739390012
2022-10-18,-0.09941967314621289
2022-10-19,-0.04462907139181155
2022-10-20,0.0656684092606425
2022-10-21,0.06075849399969163
2022-10-24,-0.12252756431674043
2022-10-25,0.16289362475575755
2022-10-26,0.045825187163227254
2022-10-27,0.06214804063860622
2022-10-28,-0.15467773038041643
2022-10-31,0.18308398290168568
2022-11-01,0.04374495560936188
2022-11-02,0.02425544416290241
2022-11-03,-0.05040133430626494
2022-11-04,0.18918778831701133
2022-11-07,-0.13744804879365116
2022-11-08,-0.27650705711647255
2022-11-09,-0.016818513820013883
2022-11-10,0.09399487235041318
2022-11-11,-0.0028765330026223473
2022-11-14,-0.010181985375911709
2022-11-15,0.22023000083941613
2022-11-16,-0.11878709378081104
2022-11-17,-0.004802773079411224
2022-11-18,-0.034303344530448414
2022-11-21,0.2519374165608411
2022-11-22,-0.06785530853327364
2022-11-23,0.1669806608149583
2022-11-24,-0.12239219092769699
2022-11-25,-0.13947714327442812
2022-11-28,-0.1867816091954019
2022-11-29,0.0977488384268059
2022-11-30,-0.07912373526408675
2022-12-01,0.04772378159475081
2022-12-02,0.05430397815428627
2022-12-05,-0.034574468085107064
2022-12-06,-0.14724890179435834
2022-12-07,0.05781465498064731
2022-12-08,-0.09664959453692235
2022-12-09,0.04011234336742008
2022-12-12,-0.0537536076246714
2022-12-13,-0.014174459282981874
2022-12-14,-0.2012392542145812
2022-12-15,0.2099280804025535
2022-12-16,-0.001762266974661472
2022-12-19,0.11550867163659918
2022-12-20,0.20400815550349305
2022-12-21,0.150386332522785
2022-12-22,-0.09171671430386039
2022-12-23,0.04628623140753756
2022-12-26,-0.1629421853307948
2022-12-27,-0.12862600805357405
2022-12-28,0.004418067564633002
2022-12-29,-0.15244755244755234
2022-12-30,0.070227832512319
2023-01-03,0.26025958137184846
2023-01-04,-0.04590859332238653
2023-01-05,-0.04537043782326622
2023-01-06,0.22113870381586592
2023-01-09,-0.21706168831169265
2023-01-10,-0.1651483984719416
2023-01-11,-0.0015133171912853974
2023-01-12,0.11325831288603176
2023-01-13,-0.09941356702796705
2023-01-16,0.058646034816252246
2023-01-17,0.18797183507549725
2023-01-18,0.05897579634637112
2023-01-19,-0.036865157993537706
2023-01-20,0.07291617695453714
2023-01-30,0.14255319148935774
2023-01-31,-0.29295249653259625
2023-02-01,0.0680786463860399
2023-02-02,0.07112334620757903
2023-02-03,-0.07534910435437914
2023-02-06,-0.2064938665188144
2023-02-07,0.215228137558236
2023-02-08,-0.06854503943544907
2023-02-09,-0.30395928556784363
2023-02-10,0.11278635035007886
2023-02-13,0.1768970455899302
2023-02-14,-0.18273575572845818
2023-02-15,-0.024000789221491202
2023-02-16,0.19795221843003669
2023-02-17,-0.2490792061505498
2023-02-20,-0.10594885494705446
2023-02-21,0.16495215763398202
2023-02-22,-0.038537168805371516
2023-02-23,0.15183246073298545
2023-02-24,0.20091673032850033
2023-02-27,-0.029764222366427825
2023-02-28,-0.009757396736238502
2023-03-01,0.08153482515629536
2023-03-02,-0.27025351336456915
2023-03-03,-0.045454545454550944
2023-03-06,0.034739346744537006
2023-03-07,-0.05751999229213037
2023-03-08,0.09799732350385461
2023-03-09,0.09972946384653543
2023-03-10,0.10476190476191005
2023-03-13,0.09517069823297528
2023-03-14,0.06424440533065519
2023-03-15,-0.20181419700474337
2023-03-16,0.23810087148546638
2023-03-17,-0.11514252759927676
2023-03-20,-0.07782734506872588
2023-03-21,-0.07725023869456094
2023-03-22,0.004472271914130327
2023-03-23,-0.40988547317661006
2023-03-24,-0.038638985005768976
2023-03-27,0.02263715665777645
2023-03-28,0.05411077653070655
2023-03-29,0.1419230769230778
2023-03-30,0.15291750503018112
2023-03-31,0.049019607843138566
2023-04-03,0.14118682423937168
2023-04-04,-0.1490452809601733
2023-04-06,0.06121359223300872
2023-04-07,0.054800064756352226
2023-04-10,0.008474576271185799
2023-04-11,-0.23877843820454486
2023-04-12,0.21599684791173895
2023-04-13,-0.2636582962441427
2023-04-14,0.02541716505532213
2023-04-17,-0.06565008595965972
2023-04-18,-0.05536923289495552
2023-04-19,-0.2012954009961851
2023-04-20,0.38576685166214086
2023-04-21,-0.03190585619362212
2023-04-24,0.18483508415655944
2023-04-25,0.20912696240185072
2023-04-26,0.22425836395915028
2023-04-27,-0.18457712773068508
2023-04-28,-0.018243324876162037
2023-05-04,-0.17294259333600787
2023-05-05,0.03749347453203227
2023-05-08,-0.10116706634692244
2023-05-09,-0.1523975021898267
2023-05-10,0.0269458896224046
2023-05-11,0.018565461616014984
2023-05-12,-0.1262652096411714
2023-05-15,-0.06277558598282952
2023-05-16,-0.00033056857795260575
2023-05-17,0.01775404940729613
2023-05-18,0.06259199671378954
2023-05-19,0.10970206264324156
2023-05-22,0.40438709677419615
2023-05-23,0.23647567621618773
2023-05-24,-0.02692652597596888
2023-05-25,0.004838028731501805
2023-05-26,-0.006456461224188401
2023-05-29,-0.5400909090909091
2023-05-30,-0.22548705433809038
2023-05-31,-0.01934622045837441
2023-06-01,-0.08034661453484877
2023-06-02,-0.10754065277292707
2023-06-05,0.243107302533531
2023-06-06,0.09037832989815324
2023-06-07,0.006005340133223963
2023-06-08,0.051904084991773305
2023-06-09,-0.1197691197691195
2023-06-12,0.00884074941452042
2023-06-13,0.004338507097963157
2023-06-14,0.0030581039755367364
2023-06-15,-0.08792783338715161
2023-06-16,0.11592796290305264
2023-06-19,-0.22652872957301007
2023-06-20,-0.15707328521974107
2023-06-21,-0.09183673469387675
2023-06-26,0.0756578947368431
2023-06-27,0.22098044703906472
2023-06-28,0.1207568947727406
2023-06-29,0.2487252614294381
2023-06-30,0.1273922902494323
2023-07-03,-0.03862660944205854
2023-07-04,-0.2791432584269652
2023-07-05,0.12165853430765664
2023-07-06,-0.19928347514554423
2023-07-07,-0.015555555555554261
2023-07-10,0.12195994277538974
2023-07-11,0.1525735294117613
2023-07-12,-0.1435729021935883
2023-07-13,0.14090909090909237
2023-07-14,0.15748917748917415
2023-07-17,0.17401960784314058
2023-07-18,0.014275885792916963
2023-07-19,0.1061505857146158
2023-07-20,-0.05000000000000169
2023-07-21,-0.23738501082250896
2023-07-24,-0.45125875835098717
2023-07-25,-0.15557364200880147
2023-07-26,-0.03883088918143831
2023-07-27,-0.037174721189590525
2023-07-28,0.03286880630630848
2023-07-31,0.20184232511102387
2023-08-01,0.13365532916632558
2023-08-02,-0.06367041198501813
2023-08-03,0.04511122912609784
2023-08-04,0.01915301127899415
2023-08-07,0.035714285714280786
2023-08-08,-0.1922323998073357
2023-08-09,0.17041889305358587
2023-08-10,-0.016638870219633436
2023-08-11,0.005478439277913652
2023-08-14,-0.008521917291542676
2023-08-15,0.17112648541505723
2023-08-16,-0.0923413075537084
2023-08-17,0.05155950514026898
2023-08-18,0.060614754552308546
2023-08-21,0.010178567006449528
2023-08-22,-0.03317116320212104
2023-08-23,-0.10885433195810845
2023-08-24,0.014965986394557214
2023-08-25,-0.15468220059022947
2023-08-28,-0.12004053945110615
2023-08-29,0.030019052155270814
2023-08-30,0.2517505292297677
2023-08-31,-0.15107071767613695
2023-09-01,0.21348429910378372
2023-09-04,0.07473309608541
2023-09-05,0.014346764346767078
2023-09-06,-0.3141842513930778
2023-09-07,0.3083013518652954
2023-09-08,-0.19076758928011256
2023-09-11,-0.019108280254775692
2023-09-12,-0.132178932178933
2023-09-13,0.2672473867595842
2023-09-14,-0.33006973788175165
2023-09-15,0.1639990202655936
2023-09-18,0.19460496899649637
2023-09-19,0.121895006402051
2023-09-20,-0.14517954722872956
2023-09-21,0.0981620418566222
2023-09-22,-0.19310985043836898
2023-09-25,-0.26785337663980946
2023-09-26,-0.04852977514208173
2023-09-27,-0.1048204527712731
2023-09-28,-0.003722199102970017
2023-10-09,0.24151260504201738
2023-10-10,0.09604672479845684
2023-10-11,0.028573271413826463
2023-10-12,0.19759740259740566
2023-10-13,-0.02037949971207753
2023-10-16,-0.17424265079697462
2023-10-17,-0.04797047970479613
2023-10-18,-0.022612423347716
2023-10-19,-0.0068607954545468475
2023-10-20,0.04095563139931848
2023-10-23,0.06510748381505257
2023-10-24,-0.056077980134639493
2023-10-25,0.03548739405313424
2023-10-26,-0.13641476167315156
2023-10-27,0.10970464135021214
2023-10-30,-0.10176364121055805
2023-10-31,0.14953875080792114
2023-11-01,-0.06296688247012423
2023-11-02,0.08188605232355774
2023-11-03,-0.10970464135021214
2023-11-06,0.02770893305214206
2023-11-07,-0.13392609058071847
2023-11-08,0.14554398148148293
2023-11-09,-0.041721944416095294
2023-11-10,-0.043478260869566035
2023-11-13,0.1445344129554585
2023-11-14,0.07234906849698733
2023-11-15,-0.19016348984968046
2023-11-16,0.0741865841309825
2023-11-17,0.04347826086956484
2023-11-20,-0.04713656387664731
2023-11-21,0.1839448113696893
2023-11-22,0.08011057979676964
2023-11-23,0.024402219276284172
2023-11-24,-0.03378378378378065
2023-11-27,-0.12629000954992153
2023-11-28,-0.31117075866424493
2023-11-29,-0.0008145363408510013
2023-11-30,0.01395796819983116
2023-12-01,0.03378378378378184
2023-12-04,0.1881806717872297
2023-12-05,0.15800499445061134
2023-12-06,0.022436506428525512
2023-12-07,-0.12628772489185358
2023-12-08,-0.017451303733278106
2023-12-11,-0.112324938345261
2023-12-12,0.08626529679824063
2023-12-13,0.0351112458138153
2023-12-14,-0.02097056400218862
2023-12-15,0.006813005860937721
2023-12-18,-0.13862987686127284
2023-12-19,-0.3038177742207473
2023-12-20,-0.027255051578765142
2023-12-21,0.042065390749604054
2023-12-22,0.16167996453900724
2023-12-25,0.23122334128026706
2023-12-26,0.20743458729124564
2023-12-27,-0.08738214558736315
2023-12-28,0.021569405848881076
2023-12-29,-0.2743896842878136
2024-01-02,-0.13019850383137807
2024-01-03,0.028193870523418776
2024-01-04,0.006199027926523215
2024-01-05,0.02469107126266181
2024-01-08,0.10240560924418435
2024-01-09,-0.06642839867787706
2024-01-10,0.3921130952380902
2024-01-11,0.12610971524287584
2024-01-12,-0.00428429505754334
2024-01-15,0.086327023761578
2024-01-16,0.1160447112878656
2024-01-17,-0.6598881545500743
2024-01-18,-0.07546296296295846
2024-01-19,-0.016324314541664445
2024-01-22,0.009381739755568982
2024-01-23,-0.07530999843039232
2024-01-24,0.2266870963490197
2024-01-25,-0.13955641688199974
2024-01-26,-0.06600101112235472
2024-01-29,-0.18002951303491715
2024-01-30,0.09354930377948148
2024-01-31,-0.014357712142523314
2024-02-01,0.21515378844710908
2024-02-02,0.09474855945521983
2024-02-05,0.017027863777085164
2024-02-06,0.10925574530887977
2024-02-07,0.284524064935994
2024-02-08,-0.03971774193548124
2024-02-19,0.05815469670890931
2024-02-20,0.176235294117646
2024-02-21,-0.1345825426944997
2024-02-22,-0.4224710297331855
2024-02-23,-0.08319805194805158
2024-02-26,-0.11878076261637585
2024-02-27,-0.07378199052132417
2024-02-28,0.006665750412315987
2024-02-29,0.14310942177671537
2024-03-01,0.06129384634057414
2024-03-04,0.10134449518011013
2024-03-05,-0.1359571399134582
2024-03-06,-0.0585731470343272
2024-03-07,-0.0690766696115163
2024-03-08,0.035851945720469326
2024-03-11,-0.1188688688688696
2024-03-12,0.37888198757764247
2024-03-13,-0.050900090009005174
2024-03-14,0.2085296951076619
2024-03-15,-0.04966202582727854
2024-03-18,0.07647557871773172
2024-03-19,-0.38433583959900075
2024-03-20,0.19093193238921913
2024-03-21,-0.1806740122631498
2024-03-22,-0.0003900832177505739
2024-03-25,-0.06632396368806452
2024-03-26,0.07617257429287745
2024-03-27,-0.10623007510671446
2024-03-28,0.09308934982050408
2024-03-29,-0.021323641539165546
2024-04-01,0.08691319171255771
2024-04-02,0.07163896486429606
2024-04-03,-0.08015640273704557
2024-04-08,-0.038043478260874994
2024-04-09,0.020622454915644583
2024-04-10,-0.02625097615185863
2024-04-11,-0.11402515010762797
2024-04-12,0.09373311723392415
2024-04-15,0.06584225089992435
2024-04-16,0.002844519802051381
2024-04-17,-0.14477363579662578
2024-04-18,0.2225181096148927
2024-04-19,0.2854112677928092
2024-04-22,-0.06584225089992234
2024-04-23,0.13056491703204406
2024-04-24,0.1361110252522165
2024-04-25,-0.16927215877857757
2024-04-26,-0.4974403150381466
2024-04-29,-0.05820105820105696
2024-04-30,-0.33010107228977226
2024-05-06,-0.03626618007640886
2024-05-07,0.07639252662824954
2024-05-08,0.31410012581560404
2024-05-09,-0.024077422811599226
2024-05-10,0.36776443239054396
2024-05-13,0.2826068839069913
2024-05-14,0.11471151216844638
2024-05-15,-0.14178035079674162
2024-05-16,0.13334231079988995
2024-05-17,-0.14122574340360033
2024-05-20,-0.3295366840517325
2024-05-21,-0.24068698597000476
2024-05-22,0.06505425998614393
2024-05-23,-0.05563003983289178
2024-05-24,-0.10227314935185776
2024-05-27,-0.00947830019861505
2024-05-28,0.0027870680044628643
2024-05-29,-0.06983568075116858
2024-05-30,0.12878981253012867
2024-05-31,0.13323027016068112
2024-06-03,0.30970800448021957
2024-06-04,0.02285395763656331
2024-06-05,0.0736301369862985
2024-06-06,-0.24369262903314026
2024-06-07,-0.10549987506594125
2024-06-11,-0.4473531122745764
2024-06-12,0.11852433281004271
2024-06-13,0.032552658712625436
2024-06-14,0.08310539018503219
2024-06-17,0.018804715400906245
2024-06-18,0.13131313131312689
2024-06-19,-0.004421768707476445
2024-06-20,-0.22778143515471025
2024-06-21,0.17457501847746304
2024-06-24,0.024303683737644022
2024-06-25,0.3930673642903849
2024-06-26,-0.11077348066298576
2024-06-27,0.18091236494597968
2024-06-28,-0.14977207575544368
2024-07-01,0.04223057644110314
2024-07-02,-0.381254318579031
2024-07-03,0.042368572687524766
2024-07-04,-0.03014705882353226
2024-07-05,-0.02008487597863521
2024-07-08,-0.008943928448569612
2024-07-09,0.0026629241786275265
2024-07-10,0.14943939073407997
2024-07-11,0.1893292682926867
2024-07-12,0.010920181019219717
2024-07-15,-0.07376283846871771
2024-07-16,0.06532200990800295
2024-07-17,-0.0804726850058131
2024-07-18,-0.3479522629450891
2024-07-19,0.07878990473006589
2024-07-22,-0.019454123112669426
2024-07-23,-0.008496732026142954
2024-07-24,-0.15722846441947574
2024-07-25,0.2756006065927016
2024-07-26,-0.06482127288579116
2024-07-29,0.33918201426912825
2024-07-30,0.06773618538323894
2024-07-31,0.2087074829931995
2024-08-01,-0.15540353786622285
2024-08-02,-0.02738958470665352
2024-08-05,-0.36806843949701207
2024-08-06,-0.1263406327487812
2024-08-07,-0.2596165739022915
2024-08-08,0.05812017053024222
2024-08-09,0.0770034843205594
2024-08-12,0.14390480143905032
2024-08-13,0.25468287873808926
2024-08-14,0.18215097330389574
2024-08-15,0.1338941228445114
2024-08-16,0.037837109246762486
2024-08-19,-0.08624778175016559
2024-08-20,-0.18543557026140417
2024-08-21,-0.03362498948378924
2024-08-22,-0.26894224872736555
2024-08-23,-0.21681990655417124
2024-08-26,0.06860560657374108
2024-08-27,-0.16750560620918747
2024-08-28,-0.03380736910148999
2024-08-29,0.10546582157704124
2024-08-30,0.0826905399464492
2024-09-02,0.06647116324536002
2024-09-03,0.2720588235294149
2024-09-04,0.2643336529242578
2024-09-05,0.19821223552567577
2024-09-06,0.10016408646642952
2024-09-09,-0.13248847926267782
2024-09-10,0.010893246187362648
2024-09-11,-0.18800370671983568
2024-09-12,-0.13533834586466548
2024-09-13,-0.06229317429724443
2024-09-18,0.035714285714290236
2024-09-19,-0.08276606646171855
2024-09-20,-0.13771990759438216
2024-09-23,-0.10083065754571861
2024-09-24,0.23116053260985567
2024-09-25,0.007547169811319174
2024-09-26,-0.1473109206377381
2024-09-27,0.10852060852060674
2024-09-30,0.2901320616287539
2024-10-08,-0.20175549982539967
2024-10-09,0.0026917380385068756
2024-10-10,0.1776495596720288
2024-10-11,-0.0235042735042729
2024-10-14,-0.3866499791405873
2024-10-15,-0.15725168316300722
2024-10-16,-0.06001266350593678
2024-10-17,-0.0350064350064339
2024-10-18,-0.013479511143060365
2024-10-21,0.12787723785166458
2024-10-22,0.12351035520074162
2024-10-23,-0.02636837632358681
2024-10-24,-0.09597069597069582
2024-10-25,0.014853137516685246
2024-10-28,0.12595520421606607
2024-10-29,0.10829828756768758
2024-10-30,0.12690355329949418
2024-10-31,0.17837235228539372
2024-11-01,0.07926065162907399
2024-11-04,-0.21267217630853447
2024-11-05,-0.20522021996179193
2024-11-06,-0.013724384282765893
2024-11-07,-0.10144927536231751
2024-11-08,-0.07160759040458357
2024-11-11,0.16209423191616518
2024-11-12,0.10204410478338982
2024-11-13,-0.10703703703703281
2024-11-14,-0.13978494623655907
2024-11-15,0.08520408163265615
2024-11-18,-0.01732198513546461
2024-11-19,0.1051738053491439
2024-11-20,0.03891191709844537
2024-11-21,0.11304697832212099
2024-11-22,-0.025549450549454136
2024-11-25,-0.07095458419578302
2024-11-26,-0.1505047698434785
2024-11-27,0.17062296662248472
2024-11-28,0.021635927098111067
2024-11-29,-0.12124542124541784
2024-12-02,-0.013363802030607608
2024-12-03,0.11274086856485743
2024-12-04,-0.1173126614987092
2024-12-05,0.015971606033717917
2024-12-06,0.0395368072787392
2024-12-09,0.16080417434008734
2024-12-10,-0.05352423858368855
2024-12-11,-0.10850158042213882
2024-12-12,-0.006059790416921103
2024-12-13,0.020482186073588867
2024-12-16,-0.2668864212834067
2024-12-17,0.007471607004737843
2024-12-18,0.014383933363316836
2024-12-19,0.0515282533685408
2024-12-20,0.11177587844253511
2024-12-23,0.48860359300058465
2024-12-24,-0.015711367459744073
2024-12-25,0.15945302852323853
2024-12-26,-0.11142277393172152
2024-12-27,-0.11345291479819757
2024-12-30,-0.4000000000000101
2024-12-31,-0.0006715014773034014
