date,FCT_Cr_Atr_Dfive
2014-08-08,
2014-08-11,
2014-08-12,
2014-08-13,
2014-08-14,
2014-08-15,
2014-08-18,
2014-08-19,
2014-08-20,
2014-08-21,
2014-08-22,0.2249410568767738
2014-08-25,0.010360410007711734
2014-08-26,0.09000285982759057
2014-08-27,0.16180072499265724
2014-08-28,0.19607401737877525
2014-08-29,0.007347915242653789
2014-09-01,-0.13953488372092185
2014-09-02,0.17398373983739793
2014-09-03,-0.37081612305940115
2014-09-04,-0.003592314118625574
2014-09-05,0.01149131767108873
2014-09-09,0.4019556025369929
2014-09-10,0.2965732087227432
2014-09-11,0.26984126984127504
2014-09-12,-0.001627742392076019
2014-09-15,0.21123595505618398
2014-09-16,-0.23741446725317938
2014-09-17,-0.7595768717264024
2014-09-18,0.03942997964212261
2014-09-19,0.38966193042625924
2014-09-22,-0.18882681564246256
2014-09-23,0.18725123269768085
2014-09-24,0.43393573251392903
2014-09-25,0.1576021951734399
2014-09-26,-0.4049932523616709
2014-09-29,-0.04366415908678008
2014-09-30,-0.23664137874165242
2014-10-08,-0.056072631759262366
2014-10-09,-0.33428707677635083
2014-10-10,-0.12710223835450776
2014-10-13,0.2824909747292397
2014-10-14,0.16477307340846795
2014-10-15,-0.13401366660672845
2014-10-16,0.04988662131519531
2014-10-17,0.34212893553223395
2014-10-20,-0.45146520146519964
2014-10-21,-0.28653810147912434
2014-10-22,0.13127544097693747
2014-10-23,0.08839840283939393
2014-10-24,-0.3721417069243148
2014-10-27,0.14302364302364134
2014-10-28,0.1719708952863009
2014-10-29,-0.17925736235595685
2014-10-30,-0.18164545775892496
2014-10-31,0.22364672364672306
2014-11-03,0.3639971139971159
2014-11-04,0.26891660552702545
2014-11-05,0.1906209987195907
2014-11-06,0.20823498557566292
2014-11-07,-0.12009419152276002
2014-11-10,-0.3611111111111116
2014-11-11,-0.44234459741343346
2014-11-12,-0.13711015262109894
2014-11-13,-0.12519201228878724
2014-11-14,0.038897610326177494
2014-11-17,-0.24801587301587497
2014-11-18,0.09155354449472125
2014-11-19,0.05172054223148258
2014-11-20,-0.002100840336130172
2014-11-21,-0.05250305250305778
2014-11-24,0.3912907268170484
2014-11-25,0.21546732837055732
2014-11-26,0.0720496894410033
2014-11-27,0.4901960784313728
2014-11-28,0.2913165266106539
2014-12-01,0.3221167673281476
2014-12-02,-0.08383345836459631
2014-12-03,-0.049127978383691574
2014-12-04,-0.5018939393939434
2014-12-05,-0.28924613323590387
2014-12-08,-0.7317538737929425
2014-12-09,0.1022433638712732
2014-12-10,0.3181497175141172
2014-12-11,0.03080550401979068
2014-12-12,0.18669288171946474
2014-12-15,0.3745493871665448
2014-12-16,-0.21256313131313032
2014-12-17,0.0072278911564706005
2014-12-18,0.21421558314047212
2014-12-19,-0.11574740207833584
2014-12-22,-0.07081339712918613
2014-12-23,0.05810185185184917
2014-12-24,-0.7794435309668932
2014-12-25,-0.1334780249593074
2014-12-26,0.005128205128206095
2014-12-29,0.09644268774703718
2014-12-30,0.11992234169653565
2014-12-31,0.886186228045728
2015-01-05,-0.320130222463372
2015-01-06,0.23607211928379948
2015-01-07,0.24509242384795413
2015-01-08,-0.21894613924974407
2015-01-09,-0.7305942995755064
2015-01-12,0.2938144329896899
2015-01-13,-0.5893484725601531
2015-01-14,-1.3233532934131733
2015-01-15,
2015-01-16,
2015-01-19,inf
2015-01-20,3.2399355877616864
2015-01-21,1.0674157303370775
2015-01-22,
2015-01-23,
2015-01-26,-inf
2015-01-27,-2.6473429951690934
2015-01-28,0.7848569969356518
2015-01-29,0.1472392638036809
2015-01-30,0.21390374331550782
2015-02-02,0.572501738928818
2015-02-03,-0.24871228844738782
2015-02-04,-0.8624768089053829
2015-02-05,-0.1953492294394209
2015-02-06,-0.34025753392922553
2015-02-09,-0.5204791203990226
2015-02-10,-0.1877956480605494
2015-02-11,-0.49628942486085326
2015-02-12,0.16653101826732575
2015-02-13,0.06753026120194996
2015-02-16,-0.17241735537189898
2015-02-17,-0.4131652661064398
2015-02-25,0.5064935064935069
2015-02-26,-1.1184210526315859
2015-02-27,
2015-03-02,inf
2015-03-03,3.377450980392159
2015-03-04,0.0
2015-03-05,1.0
2015-03-06,
2015-03-09,-inf
2015-03-10,-2.7766666666666726
2015-03-11,0.20547945205479598
2015-03-12,0.35795454545454575
2015-03-13,-0.7781961878196204
2015-03-16,-0.10035422762975897
2015-03-17,-0.16604166666666365
2015-03-18,-0.3990278391515709
2015-03-19,-0.7179545454545495
2015-03-20,-0.2370815899581672
2015-03-23,1.5220710838087088
2015-03-24,-0.002604166666669433
2015-03-25,0.1935483870967749
2015-03-26,0.4279611650485514
2015-03-27,0.6556818181818316
2015-03-30,-1.1530253741054182
2015-03-31,0.29913763661202347
2015-04-01,0.0
2015-04-02,-0.1917235412861712
2015-04-03,0.16204417051873754
2015-04-07,-0.6170307975783131
2015-04-08,0.3044588870566156
2015-04-09,0.0
2015-04-10,0.4767035527082111
2015-04-13,-0.3249464855949696
2015-04-14,0.34152097184601704
2015-04-15,-0.6480660400174116
2015-04-16,0.4444444444444445
2015-04-17,-0.3603853452050781
2015-04-20,-0.28277950310559313
2015-04-21,0.013440860215054563
2015-04-22,0.3543951968645327
2015-04-23,-0.7400742644958582
2015-04-24,-0.0947456122874063
2015-04-27,-0.17737804878048452
2015-04-28,0.6783625730994085
2015-04-29,-0.01705220490600258
2015-04-30,0.5876933121149056
2015-05-04,-0.028031349199233724
2015-05-05,0.15233567589912933
2015-05-06,-1.115029239766076
2015-05-07,-0.4999278395150821
2015-05-08,-1.292063492063492
2015-05-11,
2015-05-12,
2015-05-13,
2015-05-14,
2015-05-15,
2015-05-18,
2015-05-19,
2015-05-20,
2015-05-21,
2015-05-22,
2015-05-25,
2015-05-26,
2015-05-27,
2015-05-28,
2015-05-29,
2015-06-01,
2015-06-02,
2015-06-03,
2015-06-04,
2015-06-05,-inf
2015-06-08,0.0
2015-06-09,-1.3688172043010611
2015-06-10,0.0
2015-06-11,-5.9117647058824065
2015-06-12,
2015-06-15,
2015-06-16,
2015-06-17,
2015-06-18,
2015-06-19,
2015-06-23,
2015-06-24,
2015-06-25,
2015-06-26,
2015-06-29,
2015-06-30,
2015-07-01,
2015-07-02,
2015-07-03,
2015-07-06,
2015-07-07,
2015-07-08,
2015-07-09,-inf
2015-07-10,
2015-07-13,
2015-07-14,inf
2015-07-15,0.0
2015-07-16,1.0
2015-07-17,
2015-07-20,
2015-07-21,-inf
2015-07-22,
2015-07-23,
2015-07-24,
2015-07-27,
2015-07-28,
2015-07-29,
2015-07-30,
2015-07-31,
2015-08-03,
2015-08-04,
2015-08-05,
2015-08-06,-inf
2015-08-07,
2015-08-10,
2015-08-11,
2015-08-12,
2015-08-13,
2015-08-14,
2015-08-17,
2015-08-18,
2015-08-19,
2015-08-20,
2015-08-21,
2015-08-24,-inf
2015-08-25,1.1366120218579254
2015-08-26,0.0
2015-08-27,0.16112531969309551
2015-08-28,-1.2662912476103385
2015-08-31,0.5367088607594939
2015-09-01,-1.1661323170608777
2015-09-02,0.5665399239543722
2015-09-07,-0.08588260124649363
2015-09-08,0.40308370044052794
2015-09-09,0.15124153498871346
2015-09-10,-0.3626365675421455
2015-09-11,-1.0471850852446942
2015-09-14,-0.6590936501236211
2015-09-15,0.0
2015-09-16,-0.01691317677976184
2015-09-17,0.3921568627450977
2015-09-18,0.4806451612903221
2015-09-21,0.5838509316770192
2015-09-22,0.0
2015-09-23,-1.1343283582089516
2015-09-24,
2015-09-25,
2015-09-28,inf
2015-09-29,0.0
2015-09-30,1.0
2015-10-08,
2015-10-09,
2015-10-12,-inf
2015-10-13,0.0
2015-10-14,0.31451612903225956
2015-10-15,-0.6139351446099821
2015-10-16,-1.438952879581159
2015-10-19,-0.05485527544350763
2015-10-20,0.5341614906832264
2015-10-21,-0.2416416351051332
2015-10-22,-0.07743951846279047
2015-10-23,0.2644701209604605
2015-10-26,-0.15261120629481686
2015-10-27,-0.634880915143658
2015-10-28,-0.10887449392712825
2015-10-29,-0.09019024504814525
2015-10-30,0.4510116842405254
2015-11-02,0.14119555920037258
2015-11-03,0.18448905796828496
2015-11-04,0.07706280193236942
2015-11-05,-0.062154017964591315
2015-11-06,-0.8391890241420028
2015-11-09,-0.01905375278672316
2015-11-10,-0.33643867265376026
2015-11-11,0.058937198067632014
2015-11-12,0.2268358092023981
2015-11-13,0.4485860244480949
2015-11-16,0.03739234449761046
2015-11-17,0.39242059194093726
2015-11-18,-0.2471389645776558
2015-11-19,-0.2614829260196668
2015-11-20,-0.16817944705268678
2015-11-23,0.02167182662538441
2015-11-24,-0.18737060041407877
2015-11-25,0.3149961074347999
2015-11-26,0.08959365321296321
2015-11-27,-0.003758748811890922
2015-11-30,-0.14197560052960073
2015-12-01,-0.003750815394650213
2015-12-02,-0.32670190820010536
2015-12-03,-0.06131957842789727
2015-12-04,0.22491135250745903
2015-12-07,-0.01672776408472547
2015-12-08,0.034492225882897715
2015-12-09,0.1288018468880267
2015-12-10,-0.08164001671161368
2015-12-11,-0.4586918286827968
2015-12-14,0.0058785656299853994
2015-12-15,0.07114120302227275
2015-12-16,0.0006311537490524578
2015-12-17,0.18389648699383365
2015-12-18,0.4987708483037686
2015-12-21,0.4012837634084335
2015-12-22,0.12141210978420454
2015-12-23,0.09071444669821924
2015-12-24,0.08486489443168227
2015-12-25,-0.32830286103222334
2015-12-28,-0.6181499816251967
2015-12-29,-0.3330360817670475
2015-12-30,-0.10712087540089063
2015-12-31,-0.08847113875995699
2016-01-04,0.2501402614665835
2016-01-05,0.4575113325308643
2016-01-06,0.1764004119051137
2016-01-07,0.02703885068554938
2016-01-08,0.04706716936814983
2016-01-11,0.04502520534046159
2016-01-12,-0.07541908618138496
2016-01-13,-0.1009512686123779
2016-01-14,0.20465294867095968
2016-01-15,0.0032997855139391685
2016-01-18,-0.24075400276229006
2016-01-19,-0.14527134967364896
2016-01-20,0.11416932731476492
2016-01-21,-0.2671236059479544
2016-01-22,-0.2581088861877061
2016-01-25,-0.09735007968790693
2016-01-26,0.03257029185594172
2016-01-27,-0.06691152986266477
2016-01-28,0.16842948717948475
2016-01-29,0.1734693877551063
2016-02-01,0.12867846882521788
2016-02-02,-0.03372262089020034
2016-02-03,0.029551424530209466
2016-02-04,-0.23076923076922817
2016-02-05,-0.08982035928143907
2016-02-15,-0.002730883813307834
2016-02-16,0.21530225878051965
2016-02-17,-0.07629330802088458
2016-02-18,0.02333657903277986
2016-02-19,0.09701460388575214
2016-02-22,0.11917293233083066
2016-02-23,-0.26020137784844033
2016-02-24,0.16110549376474514
2016-02-25,0.3081726276442139
2016-02-26,0.06625208307930011
2016-02-29,-0.0612781954887254
2016-03-01,0.31232492997199457
2016-03-02,0.17239069540859908
2016-03-03,-0.1308724832214804
2016-03-04,0.08528383104654322
2016-03-07,-0.14664744051910508
2016-03-08,0.03648827952233169
2016-03-09,-0.32883351360346036
2016-03-10,0.27271173327096077
2016-03-11,-0.17284306195596422
2016-03-14,0.30116256268033664
2016-03-15,-0.3904291662218424
2016-03-16,0.12683287366812784
2016-03-17,-0.5644915375642127
2016-03-18,-0.06070006435524175
2016-03-21,-0.11331778920619993
2016-03-22,0.1873938658811303
2016-03-23,-0.04290595579648414
2016-03-24,0.3180661577608144
2016-03-25,0.03525252802060812
2016-03-28,-0.024721360414985336
2016-03-29,-0.11324087687345027
2016-03-30,-0.07728770254824346
2016-03-31,-0.22906197654941313
2016-04-01,0.2042663219133794
2016-04-05,-0.23239835425189995
2016-04-06,0.009774629226547142
2016-04-07,0.014355753025893161
2016-04-08,0.21864530988274578
2016-04-11,-0.32975442604225963
2016-04-12,0.07969227155273599
2016-04-13,0.21590071435272434
2016-04-14,0.24976755566430156
2016-04-15,0.05208333333333405
2016-04-18,0.35115965480043065
2016-04-19,0.210037579652523
2016-04-20,-0.1580545161053609
2016-04-21,-0.14963238774415485
2016-04-22,-0.17155870445344096
2016-04-25,-0.10967799009200335
2016-04-26,-0.12511028273953645
2016-04-27,-0.0363238754561264
2016-04-28,-0.1089807963354457
2016-04-29,0.46749411648016614
2016-05-03,-0.24345392870756877
2016-05-04,0.021770069617646506
2016-05-05,-0.04819910737931114
2016-05-06,0.05140014455887032
2016-05-09,-0.8183772468486455
2016-05-10,0.35054140693939695
2016-05-11,0.2289664544879118
2016-05-12,0.07983364468023595
2016-05-13,0.12916257021775962
2016-05-16,0.3235388325124514
2016-05-17,-0.32067770648285654
2016-05-18,-0.3784115021584824
2016-05-19,0.02290967713825203
2016-05-20,-0.34521526184196905
2016-05-23,0.06097196782671218
2016-05-24,0.0760217360528819
2016-05-25,-0.1456244118833191
2016-05-26,-0.07954950936663771
2016-05-27,0.09636874753153768
2016-05-30,-0.1483592880978912
2016-05-31,0.04190460194826773
2016-06-01,0.01851345189238668
2016-06-02,0.9781294452347132
2016-06-03,0.37934600610657115
2016-06-06,0.25733552032076296
2016-06-07,0.1532513877874718
2016-06-08,0.36996434937611217
2016-06-13,-1.1471346865537781
2016-06-14,-0.4561562925942766
2016-06-15,-0.22529689842039025
2016-06-16,-0.3683956185567013
2016-06-17,-0.1566790352504596
2016-06-20,-4.510193036055821e-05
2016-06-21,0.3786915038618768
2016-06-22,0.4184083271863034
2016-06-23,0.3745619158878483
2016-06-24,0.12679826028771682
2016-06-27,0.6051839464882934
2016-06-28,-0.18018726886457836
2016-06-29,-0.36260295418964394
2016-06-30,-0.1523820378390658
2016-07-01,0.008500303582270427
2016-07-04,-0.23899204244032016
2016-07-05,0.13238530556966321
2016-07-06,0.2536265078637975
2016-07-07,0.06181344256190487
2016-07-08,-0.04861952861952551
2016-07-11,-0.134384935191978
2016-07-12,-0.21308491273155883
2016-07-13,-0.1879622813474974
2016-07-14,-0.1476575362969621
2016-07-15,-0.08197628458498336
2016-07-18,-0.07727881818478935
2016-07-19,0.36052950793734834
2016-07-20,0.03915465018692304
2016-07-21,1.0866323715798143
2016-07-22,0.18845290547842986
2016-07-25,0.15988136754265847
2016-07-26,-0.16601285949722822
2016-07-27,-0.044066484139493836
2016-07-28,-1.2771645844649677
2016-07-29,-0.09980265229176818
2016-08-01,-0.1036583762751082
2016-08-02,-0.17789138167315963
2016-08-03,0.16686952398498306
2016-08-04,0.36834879406307963
2016-08-05,-0.03212851405622505
2016-08-08,-0.05293700776872923
2016-08-09,0.11776138796874165
2016-08-10,-0.27296991510623225
2016-08-11,-0.23068279808722464
2016-08-12,-0.1848341232227492
2016-08-15,0.14602813074402604
2016-08-16,-0.09927061997302145
2016-08-17,0.2964447560405641
2016-08-18,0.1436061625225809
2016-08-19,0.19463804479137642
2016-08-22,-0.22849401670806035
2016-08-23,-0.13522032060714312
2016-08-24,-0.5180759617143214
2016-08-25,0.4535358292127791
2016-08-26,0.07198046504847347
2016-08-29,0.4140810062389472
2016-08-30,0.508053371641828
2016-08-31,0.5007393519243167
2016-09-01,-0.5343648788596631
2016-09-02,-0.09731959074808073
2016-09-05,-0.34165530814671197
2016-09-06,-0.4718172278623787
2016-09-07,-0.2422347239642262
2016-09-08,0.3096667812583395
2016-09-09,0.04324301269521236
2016-09-12,0.14176143307090983
2016-09-13,0.17421668416181635
2016-09-14,0.0932587724355287
2016-09-19,-0.4031528113142478
2016-09-20,0.2901004106138496
2016-09-21,-0.0883015368309494
2016-09-22,-0.029159511261127313
2016-09-23,-0.032936140618954626
2016-09-26,0.39574238509587245
2016-09-27,-0.4414445828144462
2016-09-28,0.06437142536727514
2016-09-29,0.09668376068375906
2016-09-30,0.04001447839973789
2016-10-10,-0.3624101329692737
2016-10-11,0.15760663964485772
2016-10-12,0.04479112527371602
2016-10-13,-0.23970018975332025
2016-10-14,-0.08568078025253924
2016-10-17,0.4415513284184185
2016-10-18,-0.11389592656611526
2016-10-19,-0.10435774583618736
2016-10-20,0.16196465256323672
2016-10-21,0.17792031169594766
2016-10-24,-0.4187304853817811
2016-10-25,0.23182438473484196
2016-10-26,-0.005250305250302147
2016-10-27,0.2083080418981858
2016-10-28,-0.14471146525909678
2016-10-31,0.03571766486896136
2016-11-01,-0.32795507220539044
2016-11-02,0.05952380952380683
2016-11-03,-0.384274368062137
2016-11-04,0.06639403601188976
2016-11-07,0.4367315415508146
2016-11-08,0.2529794149512468
2016-11-09,-0.002150949825366552
2016-11-10,0.24350831496693814
2016-11-11,0.01713695391110298
2016-11-14,-0.38270223752151383
2016-11-15,0.05196581196581364
2016-11-16,-0.03777434797394792
2016-11-17,-0.17501280081925127
2016-11-18,-0.027448830650751453
2016-11-21,-0.05336617405582719
2016-11-22,-0.20933052926744053
2016-11-23,-0.1121945948866172
2016-11-24,0.12649679754942614
2016-11-25,-0.19659948674652358
2016-11-28,-0.07413793103448431
2016-11-29,-0.1173605574236492
2016-11-30,0.18513710378534182
2016-12-01,-0.04979848692828391
2016-12-02,0.3094414760810924
2016-12-05,0.24147926036981282
2016-12-06,0.2004903698452112
2016-12-07,-0.13745455213192626
2016-12-08,0.13522480159098962
2016-12-09,-0.11928400546821422
2016-12-12,-0.027109974424548426
2016-12-13,0.00947727807864334
2016-12-14,0.10603990513508285
2016-12-15,-0.0848097862615966
2016-12-16,-0.12171936502309928
2016-12-19,-0.11714027924691386
2016-12-20,-9.275077220607594e-05
2016-12-21,-0.11627942203930046
2016-12-22,-0.17270566954451821
2016-12-23,0.13285250669059204
2016-12-26,0.6384800904259487
2016-12-27,0.1510478680264404
2016-12-28,0.27368248645455706
2016-12-29,0.24377480201534615
2016-12-30,0.03228865392821374
2017-01-03,-0.5622267767009301
2017-01-04,-0.21972434096079566
2017-01-05,-0.27874921826141136
2017-01-06,-0.09728976857420514
2017-01-09,-0.059006211180123315
2017-01-10,-0.2004996198544618
2017-01-11,0.008786725767859188
2017-01-12,0.3475176352032229
2017-01-13,-0.02768287443630135
2017-01-16,-0.035587188612100376
2017-01-17,0.27326152049399277
2017-01-18,0.052927780355377575
2017-01-19,-0.5072829546295596
2017-01-20,-0.032562024763068534
2017-01-23,0.11214221253554595
2017-01-24,-0.30080360803608
2017-01-25,-0.036360732538330436
2017-01-26,0.32370396142949315
2017-02-03,0.10760488008444721
2017-02-06,-0.1752563226247446
2017-02-07,0.20625040025616714
2017-02-08,0.03416545189504322
2017-02-09,-0.12566493896201208
2017-02-10,-0.13773133681640484
2017-02-13,0.07856707051338237
2017-02-14,0.2649520350558537
2017-02-15,0.20473482132899956
2017-02-16,0.07204303904030249
2017-02-17,0.10195935157370398
2017-02-20,0.04196828932328764
2017-02-21,-0.07393747804706291
2017-02-22,-0.39424447612259245
2017-02-23,-0.004807062451501459
2017-02-24,-0.07454348289150096
2017-02-27,0.024785985484674304
2017-02-28,-0.5892867340528809
2017-03-01,0.22055646704949233
2017-03-02,-0.0908100726675649
2017-03-03,0.2659935560571343
2017-03-06,0.051419169066229335
2017-03-07,0.4246805069466529
2017-03-08,-0.03396226415094369
2017-03-09,0.3251921142196619
2017-03-10,-0.13212487783289498
2017-03-13,-0.10240602791334921
2017-03-14,0.17371553884711927
2017-03-15,0.2269372693726953
2017-03-16,-0.32588362401605153
2017-03-17,0.019932935916542882
2017-03-20,-0.004548492379165857
2017-03-21,-0.05966095899418797
2017-03-22,-0.2694339493195729
2017-03-23,0.14303233812687166
2017-03-24,-0.22223415365438617
2017-03-27,0.07448907509804586
2017-03-28,-0.2715928748912263
2017-03-29,-0.011336925273349521
2017-03-30,-0.13314123104883216
2017-03-31,0.23099082056022502
2017-04-05,-0.16089149624431742
2017-04-06,0.09090133526362938
2017-04-07,0.10646518416759425
2017-04-10,0.17120051085568416
2017-04-11,-0.2066403050068668
2017-04-12,0.20559809958429076
2017-04-13,0.1443485999863066
2017-04-14,0.08450247344092476
2017-04-17,-0.19980536231479123
2017-04-18,0.16770764632104354
2017-04-19,-0.15420196518538637
2017-04-20,-0.12673643557819317
2017-04-21,-0.34284742364759824
2017-04-24,0.07901363368367431
2017-04-25,0.020976857580851327
2017-04-26,0.02603250369707824
2017-04-27,0.04325131110946165
2017-04-28,0.1876628297430626
2017-05-02,0.09059020357665006
2017-05-03,-0.11234357224118402
2017-05-04,0.1426694040009946
2017-05-05,0.00026753187613818424
2017-05-08,0.03817438052553243
2017-05-09,-0.0711360796215305
2017-05-10,-0.05847090739682568
2017-05-11,-0.26692907667504484
2017-05-12,-0.1326890655105976
2017-05-15,-0.11682713571258536
2017-05-16,-0.17638610443457411
2017-05-17,0.42765709938385776
2017-05-18,0.0786914299148251
2017-05-19,0.17237948607134643
2017-05-22,0.1546097555006275
2017-05-23,0.29031630170316564
2017-05-24,-0.5055894869137705
2017-05-25,0.0814753484337733
2017-05-26,-0.10216276569349059
2017-05-31,0.13134587765126612
2017-06-01,-0.09642436149312603
2017-06-02,0.03105652807643372
2017-06-05,0.02854517488663637
2017-06-06,0.05097870106494578
2017-06-07,-0.3251334404825657
2017-06-08,-0.22504983998107658
2017-06-09,0.45128008268123126
2017-06-12,-0.06291833309157
2017-06-13,-0.0050072466685456354
2017-06-14,0.07607249159377788
2017-06-15,0.1709398503291614
2017-06-16,-0.46390470421966457
2017-06-19,-0.03287562904385424
2017-06-20,0.11715825319588917
2017-06-21,0.0481468048600176
2017-06-22,0.07183228624828383
2017-06-23,0.022335734945313393
2017-06-26,-0.05432910131939232
2017-06-27,-0.03783019639456324
2017-06-28,0.028496824415192915
2017-06-29,0.038172263572252854
2017-06-30,0.16145570830219538
2017-07-03,0.19231726699986482
2017-07-04,-0.12111520954324538
2017-07-05,0.008879268879266197
2017-07-06,-0.1379660204025172
2017-07-07,0.06378190002541073
2017-07-10,-0.12370363300884257
2017-07-11,-0.06250756933510924
2017-07-12,0.02444245409762734
2017-07-13,0.07939134411507835
2017-07-14,-0.22339873352018985
2017-07-17,0.4949462365591389
2017-07-18,0.2598224392973903
2017-07-19,-0.10979888692920645
2017-07-20,0.2539459152440751
2017-07-21,0.1675831369468443
2017-07-24,-0.5187301587301595
2017-07-25,-0.21585545211639728
2017-07-26,0.19707433518239287
2017-07-27,-0.47038992729826923
2017-07-28,-0.04872868857294763
2017-07-31,-0.09404761904761584
2017-08-01,0.11663395350122907
2017-08-02,-0.3048429023508131
2017-08-03,0.2920632349744467
2017-08-04,0.003952569169962014
2017-08-07,0.14055283890246956
2017-08-08,-0.16551696153221684
2017-08-09,0.27945553221288394
2017-08-10,-0.16200592918740506
2017-08-11,0.3928071791977533
2017-08-14,0.009554510284680717
2017-08-15,0.3204846446625109
2017-08-16,-0.06041580468786995
2017-08-17,0.1575772925587719
2017-08-18,-0.5724394281369345
2017-08-21,0.011291118245800055
2017-08-22,-0.22124202809316224
2017-08-23,-0.03597683932625692
2017-08-24,-0.1931135059399528
2017-08-25,0.13391796322489788
2017-08-28,0.19497212471608502
2017-08-29,0.02206914147212468
2017-08-30,-0.05525613430908191
2017-08-31,0.07353598832556625
2017-09-01,0.07044926804643756
2017-09-04,-0.2104893660954013
2017-09-05,-0.16122512437810635
2017-09-06,0.004624536527728769
2017-09-07,0.11917584390272873
2017-09-08,0.02409314266784657
2017-09-11,-0.07690233095742184
2017-09-12,0.192835365853656
2017-09-13,-0.012079399661100838
2017-09-14,-0.042301718918638924
2017-09-15,-0.1194163602941192
2017-09-18,0.14076090799802116
2017-09-19,0.01131882576311042
2017-09-20,0.041344537815124066
2017-09-21,0.10962111536824393
2017-09-22,0.1251336898395729
2017-09-25,-0.10398396889012501
2017-09-26,-0.07586471793255878
2017-09-27,-0.036586898718875306
2017-09-28,-0.4010533013822893
2017-09-29,-0.1804195804195813
2017-10-09,0.11635527690699977
2017-10-10,0.005516636041476626
2017-10-11,0.06270934769846771
2017-10-12,0.17454946996466358
2017-10-13,0.22506983632989147
2017-10-16,-0.3254308943089427
2017-10-17,-0.0136216834961767
2017-10-18,0.013605442176871835
2017-10-19,0.09052631578947323
2017-10-20,-0.11205744679016806
2017-10-23,0.4710812743306574
2017-10-24,0.030703643475583957
2017-10-25,-0.039404441021690904
2017-10-26,0.08266474112109648
2017-10-27,0.1991362461383255
2017-10-30,-0.2790333001319048
2017-10-31,0.047304535151420926
2017-11-01,0.007509479647310351
2017-11-02,-0.1691160040564459
2017-11-03,-0.43909618023281644
2017-11-06,0.1577051759007235
2017-11-07,-0.030892881099607375
2017-11-08,-0.03490552931369874
2017-11-09,0.14817070985774072
2017-11-10,0.3101133370955617
2017-11-13,-0.3030151950351963
2017-11-14,-0.10762293247964887
2017-11-15,0.4258903335217655
2017-11-16,-0.14167645578117116
2017-11-17,0.03982119422572158
2017-11-20,0.2811299408395581
2017-11-21,0.10996606586559933
2017-11-22,-0.5560990429895206
2017-11-23,0.059562272016675195
2017-11-24,-0.2650918635170646
2017-11-27,0.057567204503951114
2017-11-28,-0.01897944932162695
2017-11-29,0.15456862842152386
2017-11-30,-0.022461607275977055
2017-12-01,0.17664952285589017
2017-12-04,-0.08922292625166288
2017-12-05,1.0083414131154107
2017-12-06,0.4472165123719145
2017-12-07,0.19573825012593254
2017-12-08,0.21571972367122466
2017-12-11,0.03425457672652342
2017-12-12,-1.174571879033056
2017-12-13,-0.6858044714529152
2017-12-14,-0.16401525846729464
2017-12-15,-0.2870738873892168
2017-12-18,-0.10258235605124005
2017-12-19,0.15246221938673765
2017-12-20,0.2349535218643635
2017-12-21,-0.006343573762881267
2017-12-22,-0.05210664348893998
2017-12-25,0.08279575234259577
2017-12-26,-0.04667205630625519
2017-12-27,0.05566824507879003
2017-12-28,-0.1324448374627639
2017-12-29,0.029186330329960194
2018-01-02,-0.22433048535806044
2018-01-03,0.21177588287018395
2018-01-04,-0.03123935040394034
2018-01-05,0.022183406010800488
2018-01-08,0.046617601869929255
2018-01-09,0.05615763546798422
2018-01-10,-0.2716071114240421
2018-01-11,-0.051634506872884345
2018-01-12,0.251851006462475
2018-01-15,0.057988730072739914
2018-01-16,0.12291427301569023
2018-01-17,0.06350246537117507
2018-01-18,0.083601991076263
2018-01-19,-0.26270500231351074
2018-01-22,0.1623309580364209
2018-01-23,0.15771888006651077
2018-01-24,0.0875007258968747
2018-01-25,-0.10093874895436229
2018-01-26,0.07956603773585097
2018-01-29,-0.2373499308437043
2018-01-30,-0.2989110212586537
2018-01-31,-0.06311975124256215
2018-02-01,0.022393247269114326
2018-02-02,0.0005776566757504098
2018-02-05,0.14076236022223496
2018-02-06,0.0902014652014677
2018-02-07,0.11677903137039272
2018-02-08,0.05939944319236301
2018-02-09,0.025594333496242058
2018-02-12,-0.2907010976994582
2018-02-13,-0.03333333333333288
2018-02-14,-0.021371915393661803
2018-02-22,-0.0795020159181016
2018-02-23,0.04361179361179152
2018-02-26,0.35955010622942696
2018-02-27,0.08916430594900565
2018-02-28,-0.1049184659519784
2018-03-01,0.027920137164696768
2018-03-02,-0.07896450667535271
2018-03-05,-0.26715944001154684
2018-03-06,0.1032734164709251
2018-03-07,0.21946055581254173
2018-03-08,0.08889296187683154
2018-03-09,0.346971004221495
2018-03-12,0.15089276307226823
2018-03-13,-0.16099832848053833
2018-03-14,-0.2412814529860604
2018-03-15,-0.06888297872340467
2018-03-16,-0.5116403883963082
2018-03-19,-0.10778879890960064
2018-03-20,0.2622194981888846
2018-03-21,0.04538348571699463
2018-03-22,-0.03038172715894858
2018-03-23,0.4515803869646027
2018-03-26,0.07455906526278341
2018-03-27,-0.3880466472303162
2018-03-28,-0.030130609077980052
2018-03-29,0.010790679908330023
2018-03-30,-0.3963969465648868
2018-04-02,0.0716114185240774
2018-04-03,0.14592734454485387
2018-04-04,0.07207207207207272
2018-04-09,0.12921886373213287
2018-04-10,-0.013782531194295622
2018-04-11,-0.01783196567499333
2018-04-12,0.06297408836873235
2018-04-13,0.35040303461356387
2018-04-16,-0.11820210271537362
2018-04-17,0.4374296750843884
2018-04-18,-0.1262538818808892
2018-04-19,-0.034009090655585814
2018-04-20,-0.5198809066461826
2018-04-23,-0.02805348773090434
2018-04-24,-0.4038119378975825
2018-04-25,0.036732570782559704
2018-04-26,0.17849645663345717
2018-04-27,0.1701836479177099
2018-05-02,0.10421392278157127
2018-05-03,0.04108160146592428
2018-05-04,0.01965308991964744
2018-05-07,-0.2616709467020391
2018-05-08,-0.14240800442942486
2018-05-09,-0.09423620312643405
2018-05-10,0.04095482815232894
2018-05-11,0.021826473247629263
2018-05-14,0.028968604211320026
2018-05-15,0.13733608765942185
2018-05-16,0.5818545818545842
2018-05-17,0.11801242236025232
2018-05-18,0.06567413850786774
2018-05-21,0.14168042583602358
2018-05-22,-0.017124099355329145
2018-05-23,-0.7230375766961171
2018-05-24,-0.03357182168409549
2018-05-25,-0.09596010183214768
2018-05-28,-0.2746075196190678
2018-05-29,0.11316609977324743
2018-05-30,0.050078096840081215
2018-05-31,-0.060516960696368284
2018-06-01,0.05017962748024424
2018-06-04,0.23937117463657617
2018-06-05,-0.2337633564592148
2018-06-06,0.05614926247924479
2018-06-07,-0.050155964546985114
2018-06-08,0.10558380162339948
2018-06-11,-0.051928828663860165
2018-06-12,0.08649722457293155
2018-06-13,0.19111179167836057
2018-06-14,0.2528241470669502
2018-06-15,-0.30843426028251575
2018-06-19,0.2972163495419314
2018-06-20,0.12213885052976305
2018-06-21,-0.14651493598861978
2018-06-22,-0.31950537427818293
2018-06-25,0.2081674579013475
2018-06-26,-0.40686777481359876
2018-06-27,-0.2004356138267468
2018-06-28,0.00914679862048639
2018-06-29,0.16015944988635633
2018-07-02,-0.04359373751897078
2018-07-03,0.026251264886743217
2018-07-04,0.19375063756993804
2018-07-05,-0.017546893269438056
2018-07-06,0.018384953843497375
2018-07-09,-0.04347611284027876
2018-07-10,-0.03216989066442487
2018-07-11,0.007734818418469944
2018-07-12,0.2557666709213865
2018-07-13,-0.07665025388521121
2018-07-16,0.06010937475656099
2018-07-17,0.10708230076953394
2018-07-18,-0.2571982077931633
2018-07-19,-0.4408032423713365
2018-07-20,0.13885575530373534
2018-07-23,-0.030727762803236754
2018-07-24,0.24977804389568978
2018-07-25,0.19325359606238612
2018-07-26,0.213798175934094
2018-07-27,0.002223115375929785
2018-07-30,0.04757225735639889
2018-07-31,-0.3281853281853276
2018-08-01,0.03126934984520176
2018-08-02,0.0672761130861738
2018-08-03,0.02347047044650545
2018-08-06,0.41769220289723535
2018-08-07,0.17848367848367866
2018-08-08,0.07279846849982344
2018-08-09,-0.09052701899147973
2018-08-10,-0.1679683764225799
2018-08-13,-0.5729345655505506
2018-08-14,-0.22443842802149083
2018-08-15,-0.23366298045169973
2018-08-16,0.25718180565012033
2018-08-17,0.14464878762907182
2018-08-20,0.13983267480558523
2018-08-21,0.3449713747571475
2018-08-22,0.11047761389763384
2018-08-23,-0.294594864230432
2018-08-24,-0.17768742818650834
2018-08-27,-0.08940271687944212
2018-08-28,-0.3561992097331127
2018-08-29,0.003042736509027071
2018-08-30,-0.0049513725582890356
2018-08-31,0.08624820446106464
2018-09-03,-0.003286660026944277
2018-09-04,0.0021945511240202
2018-09-05,-0.060597014925375836
2018-09-06,0.026317597746171838
2018-09-07,-0.07779930003741424
2018-09-10,0.1545968882602468
2018-09-11,0.09162467002638905
2018-09-12,0.13639534883721147
2018-09-13,-0.03294077487625947
2018-09-14,0.06310227418732363
2018-09-17,-0.05676581483032509
2018-09-18,0.29877970456005715
2018-09-19,-0.15512806773122162
2018-09-20,0.12750762317444764
2018-09-21,0.039453790752657716
2018-09-25,-0.053653582286316115
2018-09-26,-0.41901306441155095
2018-09-27,0.09373271889401441
2018-09-28,0.05140265061248521
2018-10-08,0.06317576892153111
2018-10-09,-0.005092700994057842
2018-10-10,0.19623120235419472
2018-10-11,0.022352941176467155
2018-10-12,-0.056237393377216865
2018-10-15,-0.27709828461403996
2018-10-16,0.22086452932064748
2018-10-17,-0.051732770255559196
2018-10-18,-0.0034513393458046743
2018-10-19,-0.19498115571642755
2018-10-22,0.29688474561168654
2018-10-23,-0.23710582862459118
2018-10-24,0.012771964789898147
2018-10-25,-0.10606578093514415
2018-10-26,0.12624375917767833
2018-10-29,-0.08644713403600429
2018-10-30,0.015231987789788619
2018-10-31,-0.07037037037036784
2018-11-01,0.02800755259845343
2018-11-02,0.20315151515151803
2018-11-05,-0.14661135162873284
2018-11-06,0.11436994663002092
2018-11-07,0.11439749608763247
2018-11-08,0.14785227867994016
2018-11-09,-0.3337789661319104
2018-11-12,0.3187853605433787
2018-11-13,-0.12951807228915618
2018-11-14,0.08389310220296617
2018-11-15,-0.2437070938215123
2018-11-16,0.3768285091814492
2018-11-19,-0.3765277968513927
2018-11-20,-0.01062517787686014
2018-11-21,-0.09791395045632453
2018-11-22,0.3532434858464941
2018-11-23,-0.35865457294028624
2018-11-26,0.640456616873793
2018-11-27,0.5019931542546442
2018-11-28,-0.02759887005649756
2018-11-29,-0.2785335517365857
2018-11-30,0.12977615288539762
2018-12-03,-0.5640219262799113
2018-12-04,-0.7266494005820641
2018-12-05,-0.060677966101694195
2018-12-06,0.019485181007076212
2018-12-07,0.10093740913515478
2018-12-10,-0.06527713492247443
2018-12-11,0.23867484284006504
2018-12-12,0.06019851404689876
2018-12-13,0.09866756620003934
2018-12-14,-0.19328088061465754
2018-12-17,0.29274942859981984
2018-12-18,0.04405982143446969
2018-12-19,-0.06965008162395919
2018-12-20,-0.027038914739455775
2018-12-21,0.05831068840579937
2018-12-24,-0.26126442957390517
2018-12-25,0.07787537764566832
2018-12-26,0.05206001870764793
2018-12-27,0.05082947280269705
2018-12-28,0.07138164471349753
2019-01-02,0.1744632768361549
2019-01-03,-0.11538351184866463
2019-01-04,0.06979848693372251
2019-01-07,-0.29295132154218934
2019-01-08,-0.018243826829989082
2019-01-09,-0.15152416356877113
2019-01-10,0.04611175756975201
2019-01-11,-0.01311552658446316
2019-01-14,0.2763501742160236
2019-01-15,-0.015094339622639999
2019-01-16,0.11534095746189918
2019-01-17,0.023195507262520555
2019-01-18,-0.0037626991094926072
2019-01-21,-0.039678331565920856
2019-01-22,0.18021201413427385
2019-01-23,0.06504548155597548
2019-01-24,-0.0778349362558719
2019-01-25,-0.006041222459139926
2019-01-28,-0.02245534209639367
2019-01-29,-0.35992215906180725
2019-01-30,-0.06886227544910278
2019-01-31,0.1188942007898525
2019-02-01,-0.12380952380951836
2019-02-11,0.10820413436692207
2019-02-12,0.19971014492753494
2019-02-13,-0.055555555555555004
2019-02-14,-0.12235440840230977
2019-02-15,0.1369003690036887
2019-02-18,-0.12890470541716115
2019-02-19,-0.10695652173913632
2019-02-20,0.28571428571428353
2019-02-21,0.11389664025002517
2019-02-22,-0.11972245489325914
2019-02-25,-0.06581844582772639
2019-02-26,0.16359885750555828
2019-02-27,-0.4437180521926254
2019-02-28,-0.01281979977752827
2019-03-01,0.19070590331695275
2019-03-04,0.1809903172873346
2019-03-05,-0.15855359856505397
2019-03-06,0.18753701720118388
2019-03-07,-0.07696104237957624
2019-03-08,-0.05232826187182748
2019-03-11,-0.16880684858212858
2019-03-12,0.19932016968121616
2019-03-13,0.044138246861696796
2019-03-14,0.006139469180411319
2019-03-15,-0.0482026143790864
2019-03-18,-0.012513034410843726
2019-03-19,-0.2289626917431413
2019-03-20,0.03569571716384086
2019-03-21,-0.014780040887411541
2019-03-22,-0.13235294117646987
2019-03-25,0.2574109935945206
2019-03-26,0.23329291529533785
2019-03-27,-0.07706747314631071
2019-03-28,0.058713272543062765
2019-03-29,0.1328431372549054
2019-04-01,-0.24350829826094217
2019-04-02,-0.16776423503729246
2019-04-03,-0.0030599755202001117
2019-04-04,0.15476190476190146
2019-04-08,0.17748504807327609
2019-04-09,0.07981089747652416
2019-04-10,0.029896072344445555
2019-04-11,0.10172562553926301
2019-04-12,-0.2977642276422722
2019-04-15,-0.392345729187828
2019-04-16,-0.08499322590874112
2019-04-17,0.04483716622935352
2019-04-18,-0.1312237895539532
2019-04-19,0.35277243782289547
2019-04-22,0.3364095284876984
2019-04-23,0.08872719023979557
2019-04-24,-0.03299572972662437
2019-04-25,-0.0023430845960565674
2019-04-26,-0.4117778539761971
2019-04-29,-0.18127877708087967
2019-04-30,-0.10803331448582254
2019-05-06,0.3284634199311535
2019-05-07,0.0996508140180414
2019-05-08,0.24587986955919122
2019-05-09,0.0028301886792439293
2019-05-10,0.09849561715233682
2019-05-13,-0.43880033010467195
2019-05-14,-0.05488663307646589
2019-05-15,-0.019577797407655383
2019-05-16,0.09272472604432233
2019-05-17,0.05042505147107404
2019-05-20,0.14637053767489172
2019-05-21,-0.04814560439560324
2019-05-22,0.23019434760032198
2019-05-23,-0.0015969248597344499
2019-05-24,-0.017126224693986655
2019-05-27,-0.13953046288376386
2019-05-28,0.1689210118740316
2019-05-29,-0.508817685047189
2019-05-30,-0.0940711974110047
2019-05-31,-0.1427523128128578
2019-06-03,0.25401084623206743
2019-06-04,-0.19791752975944144
2019-06-05,0.2786233374468624
2019-06-06,0.13496943231441139
2019-06-10,0.12564652239009913
2019-06-11,-0.1778469684540247
2019-06-12,0.07829008146468423
2019-06-13,0.14148685539060515
2019-06-14,-0.08296943231440893
2019-06-17,0.14124221844934476
2019-06-18,0.001409072997145145
2019-06-19,0.04028228113675899
2019-06-20,-0.3140495867768642
2019-06-21,0.028070175438596374
2019-06-24,-0.3081611879528147
2019-06-25,0.11021148036253703
2019-06-26,0.12751817237797963
2019-06-27,0.2068764568764579
2019-06-28,-0.09393843891165359
2019-07-01,0.20124485866806274
2019-07-02,-0.08303951367780832
2019-07-03,-0.301897018970185
2019-07-04,-0.10622710622710685
2019-07-05,-0.011909514304720883
2019-07-08,0.14631603336423563
2019-07-09,-0.09395045287737562
2019-07-10,0.1944896115627815
2019-07-11,-0.03495709237758713
2019-07-12,0.2450781580059085
2019-07-15,-0.396242952265096
2019-07-16,0.1010385495511361
2019-07-17,0.052658303464757174
2019-07-18,0.07067137809187346
2019-07-19,-0.07572528865303824
2019-07-22,0.2893994709573082
2019-07-23,-0.025520975633986233
2019-07-24,-0.21365911618970845
2019-07-25,0.08833922261484109
2019-07-26,-0.244172494172498
2019-07-29,-0.07863406104554073
2019-07-30,0.029019562449355107
2019-07-31,0.09038075446444029
2019-08-01,-0.1343162341090936
2019-08-02,0.20480623793877067
2019-08-05,-0.14127986897136663
2019-08-06,0.0011864546428274093
2019-08-07,0.05710394474439873
2019-08-08,0.037608810657433635
2019-08-09,-0.06064765390676165
2019-08-12,0.09616696443072709
2019-08-13,-0.09206695778747756
2019-08-14,-0.02506265664160718
2019-08-15,0.08419758472307579
2019-08-16,-0.1149091990557525
2019-08-19,0.26094301293703065
2019-08-20,0.14519478777425798
2019-08-21,0.07887157944140413
2019-08-22,-0.08092471492360918
2019-08-23,0.13028924020421845
2019-08-26,-0.22794443173732376
2019-08-27,-0.06924152824166462
2019-08-28,-0.21855248159539958
2019-08-29,0.17176199770402142
2019-08-30,-0.006941222583068962
2019-09-02,-0.00687435082015539
2019-09-03,0.022085956153675975
2019-09-04,0.15547384300414296
2019-09-05,-0.33981154299176164
2019-09-06,-0.025641025641030255
2019-09-09,-0.04458261037208268
2019-09-10,-0.04696394686906489
2019-09-11,0.08892339544513572
2019-09-12,0.13468333786355835
2019-09-16,-0.03213675213674891
2019-09-17,-0.12156570671963188
2019-09-18,0.1458944281524876
2019-09-19,-0.28265306122448364
2019-09-20,0.33294006606889304
2019-09-23,0.11938915218535737
2019-09-24,0.1519541778975761
2019-09-25,-0.27272727272727004
2019-09-26,0.18458356315498373
2019-09-27,-0.36894661271374224
2019-09-30,-0.10758838590183231
2019-10-08,0.054001721170399364
2019-10-09,0.22885835095137239
2019-10-10,-0.02708578143360519
2019-10-11,-0.06289455225625266
2019-10-14,0.09056299875540039
2019-10-15,-0.042242139288867345
2019-10-16,-0.088172349835923
2019-10-17,0.10461956521739295
2019-10-18,0.057362637362630545
2019-10-21,0.17280531708668054
2019-10-22,0.006097560975610426
2019-10-23,-0.04792162263678562
2019-10-24,0.010075136612024513
2019-10-25,0.24831683168317942
2019-10-28,-0.336035372144434
2019-10-29,-0.014423076923078263
2019-10-30,0.24681433549029136
2019-10-31,-0.12035406223186118
2019-11-01,-0.29856893252351063
2019-11-04,0.19110783591254027
2019-11-05,0.10901767151767194
2019-11-06,-0.2257552945899818
2019-11-07,-0.10416072955257782
2019-11-08,0.26260504201680945
2019-11-11,-0.17203086768303438
2019-11-12,-0.16190228690228603
2019-11-13,0.04526748971193761
2019-11-14,0.4712051190899408
2019-11-15,-0.23158958239784955
2019-11-18,0.2944823538043874
2019-11-19,0.05666939443535259
2019-11-20,0.10394265232974514
2019-11-21,-0.4349310483331106
2019-11-22,0.09923664122137678
2019-11-25,-0.36512802019473356
2019-11-26,-0.006455719221677066
2019-11-27,-0.3082904784167043
2019-11-28,0.029770775672411473
2019-11-29,-0.01734104046242679
2019-12-02,0.5525657071339166
2019-12-03,0.15751954900891085
2019-12-04,0.2416612589227777
2019-12-05,-0.04607461571725925
2019-12-06,0.11734104046242759
2019-12-09,-0.6041711229946529
2019-12-10,-0.2993040365877967
2019-12-11,0.22379767827529198
2019-12-12,0.30776788261021043
2019-12-13,-0.08905109489051408
2019-12-16,0.2687495897604201
2019-12-17,0.20591369386448227
2019-12-18,-0.24664515597012268
2019-12-19,-0.3349823328284082
2019-12-20,-0.05299927785253053
2019-12-23,0.04673991272610735
2019-12-24,0.07570849311888922
2019-12-25,-0.21703830240787148
2019-12-26,0.18035322951733732
2019-12-27,0.007567614122354356
2019-12-30,-0.15319513019215272
2019-12-31,-0.32949473716279054
2020-01-02,0.261082985564752
2020-01-03,-0.09262035986382987
2020-01-06,0.16013720888246835
2020-01-07,0.017663344407523873
2020-01-08,0.19704231698824715
2020-01-09,-0.019294952023359707
2020-01-10,-0.002251825163561559
2020-01-13,-0.0714672581435534
2020-01-14,0.013823081938717965
2020-01-15,-0.004714339059002268
2020-01-16,-0.12214251554280244
2020-01-17,0.05309112806102558
2020-01-20,-0.006818771065591846
2020-01-21,0.03306250880570191
2020-01-22,0.08942307692307364
2020-01-23,0.07827566647759268
2020-02-03,0.657586001193079
2020-02-04,-0.027760577915378584
2020-02-05,0.15981003920702883
2020-02-06,-0.05849056603773237
2020-02-07,0.02321264770949251
2020-02-10,-1.016743661252209
2020-02-11,-0.17345399698341063
2020-02-12,-0.25987648714921574
2020-02-13,0.05198371672266447
2020-02-14,0.019900053542742224
2020-02-17,0.40613253091106694
2020-02-18,0.18108350793175937
2020-02-19,-0.0640495867768606
2020-02-20,-0.10452918672096426
2020-02-21,-0.029115744069011393
2020-02-24,0.18775720164609044
2020-02-25,-0.06812954739415338
2020-02-26,0.2443622269203708
2020-02-27,-0.013963963963960387
2020-02-28,-0.04693977935492943
2020-03-02,-0.40943287037036624
2020-03-03,-0.0011638814578097192
2020-03-04,0.13424087729248724
2020-03-05,0.03799999999999377
2020-03-06,0.03354540196645058
2020-03-09,0.2697535569105651
2020-03-10,0.08985019241342243
2020-03-11,-0.4616174582798376
2020-03-12,0.09533333333333222
2020-03-13,0.03396311291048659
2020-03-16,-0.06834665857031769
2020-03-17,-0.04379411764706463
2020-03-18,0.42537219542880017
2020-03-19,-0.0025252525252482116
2020-03-20,0.06354341401069918
2020-03-23,-0.13421049520634637
2020-03-24,0.19473817034700536
2020-03-25,-0.267477458586697
2020-03-26,0.18355973528387373
2020-03-27,0.2883602378929513
2020-03-30,0.1971950442345152
2020-03-31,-0.2899190373126245
2020-04-01,0.28322368421052374
2020-04-02,-0.33569840594106454
2020-04-03,-0.6329260104740178
2020-04-07,-0.13385951936053045
2020-04-08,0.09526249961868248
2020-04-09,-0.4164928326914844
2020-04-10,0.18561630413482177
2020-04-13,0.25128877404225686
2020-04-14,0.08044813967472708
2020-04-15,-0.010648224861078599
2020-04-16,0.4509502047988213
2020-04-17,-0.2667353608995086
2020-04-20,0.016986436587828384
2020-04-21,-0.05535638624801874
2020-04-22,0.051247443271846195
2020-04-23,-0.339376843647695
2020-04-24,0.1661170725819028
2020-04-27,0.05698992139653741
2020-04-28,-0.05641473791994984
2020-04-29,-0.04244371459850481
2020-04-30,0.05233488507419391
2020-05-06,-0.025459878798294595
2020-05-07,-0.21974202890778163
2020-05-08,0.07323344475350688
2020-05-11,0.055934608687030915
2020-05-12,0.09022064323111312
2020-05-13,-0.06901562797789447
2020-05-14,0.3269034068556751
2020-05-15,-0.08047291152396695
2020-05-18,-0.03561535417491251
2020-05-19,-0.06606097936556772
2020-05-20,0.09343434343434422
2020-05-21,-0.32595708530870676
2020-05-22,0.19162655095260464
2020-05-25,0.011297775689222661
2020-05-26,-0.033560527485552855
2020-05-27,-0.015314434669273335
2020-05-28,0.11768422609245148
2020-05-29,-0.2164864362840504
2020-06-01,-0.1749584611451941
2020-06-02,0.01654372076286497
2020-06-03,0.0251600821553706
2020-06-04,0.18812633906973694
2020-06-05,0.0780254637923055
2020-06-08,0.08644191505730947
2020-06-09,0.12125850340135746
2020-06-10,-0.06044659365666217
2020-06-11,-0.13156689801426902
2020-06-12,0.1595025246671553
2020-06-15,0.2871553766200955
2020-06-16,-0.061193568336422345
2020-06-17,0.07384912300618582
2020-06-18,-0.06423729778992858
2020-06-19,-0.2392297883923808
2020-06-22,-0.32702036038295607
2020-06-23,-0.0988011988011994
2020-06-24,-0.04788645147389491
2020-06-29,-0.029197752602009068
2020-06-30,0.1668365267019945
2020-07-01,-0.087843457484615
2020-07-02,0.11490461211650459
2020-07-03,-0.03130928762697806
2020-07-06,0.19213167402649933
2020-07-07,0.002052295530561493
2020-07-08,0.29799582066869235
2020-07-09,-0.08576218591525504
2020-07-10,0.16498302070723975
2020-07-13,-0.14946590795647888
2020-07-14,-0.11347735695562222
2020-07-15,-0.2201447740112933
2020-07-16,0.25791515344308114
2020-07-17,-0.2345226134567036
2020-07-20,0.035956920572309835
2020-07-21,-0.08503664013868092
2020-07-22,0.13796459006480513
2020-07-23,-0.35399630435004725
2020-07-24,0.21973112139608944
2020-07-27,-0.18375841664966772
2020-07-28,0.15732552653545298
2020-07-29,0.051232603301328825
2020-07-30,0.12608125503783857
2020-07-31,-0.23664122137404842
2020-08-03,0.38387779794313537
2020-08-04,0.15145977200892946
2020-08-05,-0.15195570681661233
2020-08-06,0.03913705893106958
2020-08-07,0.21067714123372758
2020-08-10,-0.22688832860594563
2020-08-11,-0.3138387484957905
2020-08-12,0.287558007741497
2020-08-13,-0.03317206068861392
2020-08-14,-0.14523363424743327
2020-08-17,0.01822604790419172
2020-08-18,0.26376811594202704
2020-08-19,-0.4043456543456577
2020-08-20,0.05372734026029198
2020-08-21,0.041164025742899596
2020-08-24,-0.22997295589845798
2020-08-25,-0.3586940112686572
2020-08-26,0.17775293747316898
2020-08-27,-0.14087105303000047
2020-08-28,0.060663459637215034
2020-08-31,0.524927775175567
2020-09-01,0.3301110805118148
2020-09-02,0.05673316465999383
2020-09-03,0.4032010193599625
2020-09-04,0.07361111111111503
2020-09-07,-0.38731593038822143
2020-09-08,-0.16568163908589445
2020-09-09,0.03399541634835946
2020-09-10,-0.4097724550898124
2020-09-11,-0.2496246246246201
2020-09-14,0.06650326797385431
2020-09-15,0.019829787234043036
2020-09-16,-0.281068304080861
2020-09-17,-0.052894211576857114
2020-09-18,0.28851351351350357
2020-09-21,0.1500426257459575
2020-09-22,0.09688461538461415
2020-09-23,0.40213217172006765
2020-09-24,0.1250000000000051
2020-09-25,-0.2606719367588858
2020-09-28,-0.10821256038647654
2020-09-29,-0.009406354515046483
2020-09-30,-0.2554794520547956
2020-10-09,0.11622807017544179
2020-10-12,0.4780188755343986
2020-10-13,-0.12669983416252417
2020-10-14,-0.09681159420290048
2020-10-15,-0.08380281690140334
2020-10-16,-0.037976037655112455
2020-10-19,-0.6418567426970749
2020-10-20,0.2179911254538142
2020-10-21,0.06304207119740987
2020-10-22,0.42226435536293655
2020-10-23,-0.13360029122680137
2020-10-26,0.21252633284718575
2020-10-27,-0.2016192403857606
2020-10-28,0.004784015759116314
2020-10-29,-0.4884615384615317
2020-10-30,0.20415778251600095
2020-11-02,0.09424153559051242
2020-11-03,0.09852239353891294
2020-11-04,-0.09696698042732362
2020-11-05,0.19999999999999676
2020-11-06,-0.17455858747994502
2020-11-09,0.14244073066459334
2020-11-10,0.03573717948718255
2020-11-11,0.20502324641197855
2020-11-12,-0.004366812227069995
2020-11-13,0.08934555489849033
2020-11-16,-0.05452712136098095
2020-11-17,-0.011671087533159201
2020-11-18,-0.17069716775599592
2020-11-19,-0.007306339523899776
2020-11-20,-0.03374084818345385
2020-11-23,-0.35921549852093837
2020-11-24,0.12258530420653597
2020-11-25,0.061722808781629564
2020-11-26,0.07417315175097086
2020-11-27,0.36055051942036737
2020-11-30,0.3543086222089821
2020-12-01,-0.2185205767937037
2020-12-02,0.03106819650937618
2020-12-03,-0.10238603988603837
2020-12-04,-0.12618756701493952
2020-12-07,0.04492937724949479
2020-12-08,0.04680816250204239
2020-12-09,0.059391113133151666
2020-12-10,0.11873219373219546
2020-12-11,-0.3771729891411009
2020-12-14,-0.29619034148879353
2020-12-15,0.0646471470271969
2020-12-16,-0.21178769660373803
2020-12-17,-0.16298435185254093
2020-12-18,0.12919733154416185
2020-12-21,0.3330976160068738
2020-12-22,0.29624417780285706
2020-12-23,0.17250192776657886
2020-12-24,0.1753544142226008
2020-12-25,-0.016371936821116956
2020-12-28,-0.2633373135726153
2020-12-29,-0.5711604681753049
2020-12-30,-0.09823034429599446
2020-12-31,-0.08659727857187263
2021-01-04,0.1291519874737559
2021-01-05,0.0768066888215658
2021-01-06,0.28349090066742655
2021-01-07,0.2686600084697918
2021-01-08,0.20018106235565664
2021-01-11,-0.046187663140541554
2021-01-12,-0.022050416361047542
2021-01-13,-0.04825482521257872
2021-01-14,-0.3705546216790592
2021-01-15,-0.19002895125553879
2021-01-18,-0.10958205025603447
2021-01-19,-0.005707908163264979
2021-01-20,-0.056427509103029586
2021-01-21,0.23204342273307757
2021-01-22,-0.15762819160160269
2021-01-25,0.05068289510359513
2021-01-26,0.08577955776173306
2021-01-27,-0.033286963434023195
2021-01-28,-0.20125382262996797
2021-01-29,0.10392271662763436
2021-02-01,-0.018516838300898036
2021-02-02,-0.12168940289447701
2021-02-03,0.10742927506946484
2021-02-04,0.25004170141784643
2021-02-05,-0.0027322404371611583
2021-02-08,0.011402614257903659
2021-02-09,0.09556019014335962
2021-02-10,0.13082208729085865
2021-02-18,-0.16654417638600263
2021-02-19,0.03269000598444566
2021-02-22,0.11723602484471952
2021-02-23,-0.13864858298739785
2021-02-24,-0.2212447915693484
2021-02-25,0.05435773269270944
2021-02-26,0.11882514553070558
2021-03-01,0.02876910520848988
2021-03-02,0.18142165882914105
2021-03-03,0.06659289473345587
2021-03-04,-0.13382676097912732
2021-03-05,0.025244682853382036
2021-03-08,-0.16630404840720295
2021-03-09,-0.0408233134025024
2021-03-10,0.03831643185443037
2021-03-11,0.10845339605998049
2021-03-12,-0.29305661417706064
2021-03-15,-0.03237574099407561
2021-03-16,-0.16542101081120142
2021-03-17,-0.1763672177240645
2021-03-18,0.009765307308004666
2021-03-19,0.21002418400231315
2021-03-22,0.10844721489651257
2021-03-23,0.11900840336134647
2021-03-24,0.1879514286699626
2021-03-25,-0.038572591678625284
2021-03-26,-0.14332287344944694
2021-03-29,-0.026654330778043783
2021-03-30,-0.010765957446810198
2021-03-31,-0.08859097505355845
2021-04-01,-0.04158745247148252
2021-04-02,0.041262135922330065
2021-04-06,-0.03184242657927172
2021-04-07,0.06431234919938347
2021-04-08,0.005070993914808478
2021-04-09,0.037247474747473995
2021-04-12,0.0033678756476706387
2021-04-13,-0.09471368638988238
2021-04-14,-0.011298713733998246
2021-04-15,0.08893557422969195
2021-04-16,0.2387356713199401
2021-04-19,0.10496558668063752
2021-04-20,0.09081677702248928
2021-04-21,-0.0848785405777939
2021-04-22,-0.09654543000263718
2021-04-23,-0.1968702598297833
2021-04-26,-0.015271261371371407
2021-04-27,0.1530254647006847
2021-04-28,-0.0003589124919082601
2021-04-29,0.09269613868011348
2021-04-30,0.04018224560821099
2021-05-06,0.010680601346324765
2021-05-07,-0.08330826690730783
2021-05-10,0.11341082768270488
2021-05-11,-0.08358913232279666
2021-05-12,-0.0348356723863838
2021-05-13,0.18923240430830948
2021-05-14,0.034886931752123054
2021-05-17,-0.11922650492402126
2021-05-18,0.08143941829905656
2021-05-19,-0.09011311497371033
2021-05-20,-0.3054752066115716
2021-05-21,-0.1483156028368784
2021-05-24,0.15049870382618527
2021-05-25,-0.0061049994355647785
2021-05-26,-0.005082030238079099
2021-05-27,-0.11997126436781455
2021-05-28,0.10329681287315004
2021-05-31,-0.08259923443972592
2021-06-01,-0.19363829213693914
2021-06-02,0.08701521331138523
2021-06-03,0.27567514786296043
2021-06-04,-0.10449606208267953
2021-06-07,-0.10747863247863287
2021-06-08,0.22867091868460065
2021-06-09,-0.004013902559055935
2021-06-10,-0.23440310980075502
2021-06-11,0.06286304066055455
2021-06-15,0.09266772040744696
2021-06-16,-0.16217908277028167
2021-06-17,-0.032042852722770424
2021-06-18,0.0627182136473835
2021-06-21,0.04098604098603988
2021-06-22,-0.05843283764315296
2021-06-23,0.07689379029084017
2021-06-24,-0.006131863186321831
2021-06-25,0.1545044044710915
2021-06-28,-0.07366817964643942
2021-06-29,0.0589987354693251
2021-06-30,-0.08807622971929191
2021-07-01,0.3971590909090942
2021-07-02,-0.1696306977489363
2021-07-05,0.010931168546707358
2021-07-06,-0.028958663423416884
2021-07-07,0.19546673165976206
2021-07-08,-0.49739077669902976
2021-07-09,0.14096106638175165
2021-07-12,0.10707299426550339
2021-07-13,0.05092355635605143
2021-07-14,0.23684671760283885
2021-07-15,0.08712453121166447
2021-07-16,0.04492495895168392
2021-07-19,-0.07180851063829805
2021-07-20,-0.00929665440232709
2021-07-21,-0.5145792310190428
2021-07-22,-0.01803200913275986
2021-07-23,-0.12502981110042188
2021-07-26,-0.0022573363431145324
2021-07-27,-0.033616788890623875
2021-07-28,0.2745573611447964
2021-07-29,0.013523150017614845
2021-07-30,0.08538267065042551
2021-08-02,0.016840669676446776
2021-08-03,0.038633428414801954
2021-08-04,-0.24826377620562182
2021-08-05,0.16866661403646935
2021-08-06,-0.13246351172047738
2021-08-09,0.07217465753424887
2021-08-10,-0.0856599313236572
2021-08-11,0.23227454615332394
2021-08-12,-0.21373881792257077
2021-08-13,0.061608698148962845
2021-08-16,-0.18884615792094478
2021-08-17,0.3312759212212025
2021-08-18,-0.21053242853296777
2021-08-19,0.11831409990112292
2021-08-20,0.024302468652184113
2021-08-23,0.15725590800593453
2021-08-24,-0.18680989825604133
2021-08-25,0.09949814446497733
2021-08-26,-0.06365403837607533
2021-08-27,0.054845135719860785
2021-08-30,0.022059981819709105
2021-08-31,-0.1822811490155804
2021-09-01,0.12810004203446834
2021-09-02,0.23903947744683274
2021-09-03,-0.020738898341406777
2021-09-06,-0.17083842113780828
2021-09-07,0.07179363548698087
2021-09-08,-0.1244556322986882
2021-09-09,-0.28737731698845903
2021-09-10,0.03731925449142984
2021-09-13,0.2515054352076323
2021-09-14,0.19478390461997
2021-09-15,0.16131953257191053
2021-09-16,0.3647750865051884
2021-09-17,-0.07750472589792241
2021-09-22,-0.2391447368421039
2021-09-23,-0.0926937008569657
2021-09-24,0.43962445175438825
2021-09-27,-0.28402298850574514
2021-09-28,0.16272360069244193
2021-09-29,0.561150744416874
2021-09-30,-0.026341723812261755
2021-10-08,-0.702863901326351
2021-10-11,0.03920070928258667
2021-10-12,-0.1797147511349187
2021-10-13,-0.6268218823354917
2021-10-14,-0.06486265277042902
2021-10-15,0.08772523605049384
2021-10-18,-0.044565293418771454
2021-10-19,0.12078176416088932
2021-10-20,-0.045229311795200705
2021-10-21,0.2783588797951954
2021-10-22,0.055901674972260985
2021-10-25,0.023194278756329345
2021-10-26,-0.18861551644214697
2021-10-27,0.2975926265845667
2021-10-28,-0.3230971659919022
2021-10-29,-0.09169721481017636
2021-11-01,-0.11088117419950524
2021-11-02,0.079915722556823
2021-11-03,-0.19572338062013156
2021-11-04,-0.1996420824295021
2021-11-05,0.07862400483431117
2021-11-08,0.03333820434884344
2021-11-09,-0.20557595285343166
2021-11-10,-0.004862502890854395
2021-11-11,0.23287866512391572
2021-11-12,-0.16274576542665983
2021-11-15,0.24336092861561925
2021-11-16,0.21616695120216148
2021-11-17,0.04203636200746902
2021-11-18,-0.07802178555837605
2021-11-19,0.14940618441643624
2021-11-22,-0.433335865958978
2021-11-23,0.32704874239684434
2021-11-24,0.03275456308595659
2021-11-25,0.11532536906894886
2021-11-26,0.1761239004719357
2021-11-29,0.37738611274039885
2021-11-30,-0.5423741664486827
2021-12-01,0.08268699905344437
2021-12-02,-0.0005464084022402281
2021-12-03,-0.3184898105846711
2021-12-06,-0.06528075107683487
2021-12-07,0.20274705414588395
2021-12-08,-0.05400088417330014
2021-12-09,-0.044938661384013964
2021-12-10,0.12324335884937215
2021-12-13,-0.1924147791406437
2021-12-14,-0.010110250996950908
2021-12-15,-0.018713956170701797
2021-12-16,-0.01599915236278806
2021-12-17,0.011010149317179706
2021-12-20,0.23552437795519843
2021-12-21,-0.015416405470039939
2021-12-22,0.09266120583668751
2021-12-23,0.05738624275839159
2021-12-24,0.09901329268023984
2021-12-27,-0.28785010672386696
2021-12-28,0.07078510914825309
2021-12-29,-0.14611037023336024
2021-12-30,0.06295175257960353
2021-12-31,-0.11978566647752315
2022-01-04,0.33763786024049763
2022-01-05,-0.1521439522391766
2022-01-06,0.04032164980185551
2022-01-07,-0.06069023569023551
2022-01-10,0.009756930309513075
2022-01-11,-0.3047006038242175
2022-01-12,0.19655610049905448
2022-01-13,0.07102879858920833
2022-01-14,-0.04512382204689993
2022-01-17,0.283031904393121
2022-01-18,0.10758257699747067
2022-01-19,-0.02960080736451641
2022-01-20,-0.2022437881928514
2022-01-21,0.33621780620446784
2022-01-24,-0.46255878894767977
2022-01-25,0.05706246896779858
2022-01-26,-0.13835842703767187
2022-01-27,0.1344802120560737
2022-01-28,-0.38777289447284186
2022-02-07,0.2258582818093089
2022-02-08,0.035639044943821155
2022-02-09,0.1491510700465906
2022-02-10,0.010222874899596902
2022-02-11,0.10309666410144736
2022-02-14,-0.030521179032325478
2022-02-15,-0.10355516194332219
2022-02-16,-0.11975987627771305
2022-02-17,0.0532018582619776
2022-02-18,-0.17787744877528
2022-02-21,0.04666925473984747
2022-02-22,0.11981147507463671
2022-02-23,0.12230230495549961
2022-02-24,0.028087669568738136
2022-02-25,0.3153651388945499
2022-02-28,0.030379770847558843
2022-03-01,-0.04615338443861609
2022-03-02,-0.07151666078460073
2022-03-03,-0.13167217231431344
2022-03-04,-0.26725200475200545
2022-03-07,-0.03051782932063267
2022-03-08,0.14740563295113732
2022-03-09,-0.00843703090585235
2022-03-10,0.2426854784308765
2022-03-11,0.06776965829559674
2022-03-14,-0.12161753916533727
2022-03-15,-0.21255631911891823
2022-03-16,0.04834939211286756
2022-03-17,-0.3205627264134937
2022-03-18,0.07535656479638016
2022-03-21,0.02774500630568172
2022-03-22,-0.13438302345798078
2022-03-23,-0.15649210329163296
2022-03-24,0.06765846361982007
2022-03-25,0.037306907607111056
2022-03-28,0.10034131936645371
2022-03-29,0.17156676994405093
2022-03-30,0.2076992004411386
2022-03-31,0.06294883465545607
2022-04-01,-0.2540892426283934
2022-04-06,0.03689226177943074
2022-04-07,0.21217244294167503
2022-04-08,-0.009756431308156996
2022-04-11,0.14726073495759676
2022-04-12,0.26759615782718227
2022-04-13,-0.21071332596816827
2022-04-14,-0.2549468728128783
2022-04-15,-0.155900134348409
2022-04-18,-0.03988030118099217
2022-04-19,0.032950188614584625
2022-04-20,0.15603330349598843
2022-04-21,-0.030351251535504956
2022-04-22,0.02871655791579575
2022-04-25,-0.09520329500100269
2022-04-26,-0.24401867781803324
2022-04-27,-0.012205169013650553
2022-04-28,0.06873007701110377
2022-04-29,0.06384972996299183
2022-05-05,-0.2512911368952482
2022-05-06,0.28011601034603906
2022-05-09,0.0019383601473184232
2022-05-10,0.16538461538461782
2022-05-11,0.007439524722931129
2022-05-12,0.3595685872779612
2022-05-13,-0.17487624142914085
2022-05-16,-0.042832349878518416
2022-05-17,-0.21459330143540745
2022-05-18,-0.06138107416879605
2022-05-19,-0.26744862155388427
2022-05-20,-0.10411515616562603
2022-05-23,0.16659310813104833
2022-05-24,-0.009124647282540616
2022-05-25,0.05130133894990124
2022-05-26,0.33959817351598365
2022-05-27,0.26281431775495834
2022-05-30,-0.2181733108740398
2022-05-31,0.06257588743660614
2022-06-01,0.04595740533164402
2022-06-02,-0.2755981735159829
2022-06-06,-0.20927906700794774
2022-06-07,0.07948717948717958
2022-06-08,0.011142061281342258
2022-06-09,-0.11384601538946248
2022-06-10,0.11100564971751413
2022-06-13,0.3744702409368601
2022-06-14,0.002570694087403181
2022-06-15,0.025641025641024506
2022-06-16,0.12750798722044737
2022-06-17,-0.0787501980041199
2022-06-20,-0.41642828289490247
2022-06-21,-0.03373216717522073
2022-06-22,0.06500224921277692
2022-06-23,-0.11825737265415401
2022-06-24,0.06686191917862591
2022-06-27,0.16876221633835603
2022-06-28,0.10335398645680222
2022-06-29,-0.17543130477899144
2022-06-30,0.0400829857331742
2022-07-01,0.07946138368673697
2022-07-04,-0.03459172732915705
2022-07-05,-0.15469251336898499
2022-07-06,0.31912045499330893
2022-07-07,0.021419420033564646
2022-07-08,-0.10534128181187379
2022-07-11,-0.021187484602117522
2022-07-12,0.23496636771300455
2022-07-13,-0.3354997402432183
2022-07-14,-0.013245033112583751
2022-07-15,0.101844778315367
2022-07-18,-0.05478178897194743
2022-07-19,-0.11614158138821787
2022-07-20,0.10322917084520147
2022-07-21,-0.04732510288065824
2022-07-22,-0.18808729067908156
2022-07-25,0.2803260947983571
2022-07-26,-0.11568986568986653
2022-07-27,0.08845538570920462
2022-07-28,0.07104051790042086
2022-07-29,0.15000375259554494
2022-08-01,-0.4100297870448589
2022-08-02,-0.005497305956018453
2022-08-03,-0.26846210353469524
2022-08-04,0.11043092644365225
2022-08-05,-0.08665462697721046
2022-08-08,0.15635626944504732
2022-08-09,0.15774868269719217
2022-08-10,0.16707529693799758
2022-08-11,-0.27975073706781045
2022-08-12,-0.08186391453168423
2022-08-15,0.17108381814263968
2022-08-16,-0.215281119382568
2022-08-17,0.26747333880229474
2022-08-18,0.23269148269148232
2022-08-19,0.20782185429286984
2022-08-22,-0.05553225400553262
2022-08-23,0.2877086655146416
2022-08-24,-0.3383640208297876
2022-08-25,-0.07043167393284833
2022-08-26,-0.14260642110179
2022-08-29,0.02631246787054123
2022-08-30,-0.23078392897825173
2022-08-31,0.014003237899088139
2022-09-01,0.025951103136490704
2022-09-02,0.14831721583192245
2022-09-05,-0.32511530608556194
2022-09-06,0.0458100288128607
2022-09-07,0.12970391200066234
2022-09-08,-0.15093984962406334
2022-09-09,0.14229870596692923
2022-09-13,0.209840697726162
2022-09-14,0.134289212667453
2022-09-15,-0.022227276486645256
2022-09-16,0.08136704119850308
2022-09-19,-0.45304439791931883
2022-09-20,0.015584842507918587
2022-09-21,-0.15067635365034446
2022-09-22,-0.08971962616822066
2022-09-23,0.026966292134831146
2022-09-26,0.26545216968518065
2022-09-27,0.034777269174944545
2022-09-28,0.07422901582193403
2022-09-29,-0.051190476190482344
2022-09-30,-0.046357615894040013
2022-10-10,-0.15369152046783474
2022-10-11,0.10623302253873204
2022-10-12,-0.06239950525665014
2022-10-13,0.28980257583461
2022-10-14,0.0792917476305676
2022-10-17,0.17720410628019118
2022-10-18,-0.2984404163107822
2022-10-19,0.12114076399790769
2022-10-20,-0.23920733773936664
2022-10-21,0.01722260807538411
2022-10-24,-0.1352368591823438
2022-10-25,0.1896153146835003
2022-10-26,-0.12013295346628776
2022-10-27,0.024788786482333673
2022-10-28,-0.06340177292449431
2022-10-31,0.17305419212661088
2022-11-01,-0.04423467905896196
2022-11-02,0.06767470834749424
2022-11-03,0.29446316803080796
2022-11-04,0.05795091546552438
2022-11-07,-0.19522038817340714
2022-11-08,-0.0353535353535345
2022-11-09,-0.1252400256027312
2022-11-10,-0.5244038428546834
2022-11-11,-0.07559391324097407
2022-11-14,0.24720038763863691
2022-11-15,0.07880870561283004
2022-11-16,0.1207087486157265
2022-11-17,0.24597513946609323
2022-11-18,-0.04805933753302083
2022-11-21,-0.13793397837223045
2022-11-22,0.18941196260783763
2022-11-23,-0.034219269102996816
2022-11-24,0.1836850304489479
2022-11-25,0.07647823261858364
2022-11-28,-0.14519094766619187
2022-11-29,-0.3565445853581439
2022-11-30,0.06966030711959503
2022-12-01,-0.4516908212560438
2022-12-02,0.03665716999050577
2022-12-05,0.3221094836756411
2022-12-06,0.13276836158192265
2022-12-07,-0.03123666179939061
2022-12-08,0.3653198653198669
2022-12-09,0.046307321849115436
2022-12-12,-0.2671150157474726
2022-12-13,-0.052307692307695504
2022-12-14,0.15768025078369477
2022-12-15,-0.10952010952010482
2022-12-16,0.003774306884199316
2022-12-19,0.2747995979207862
2022-12-20,0.07639698968146083
2022-12-21,-0.27989251433204027
2022-12-22,0.22317852662687487
2022-12-23,-0.15539077754822536
2022-12-26,-0.3106342000715828
2022-12-27,-0.07782761513077732
2022-12-28,0.09313606090892085
2022-12-29,-0.23593995874314921
2022-12-30,-0.003429013907829695
2023-01-03,0.0573802882380283
2023-01-04,0.12370916323806071
2023-01-05,-0.016860093517672023
2023-01-06,-0.06553909743773868
2023-01-09,0.13956560841086638
2023-01-10,-0.05161498708010261
2023-01-11,-0.1086805229004048
2023-01-12,-0.011758681857259753
2023-01-13,0.06208410708758769
2023-01-16,-0.03974472175342101
2023-01-17,0.345316082541763
2023-01-18,0.03305995990523053
2023-01-19,0.07048886516168984
2023-01-20,0.07929033485540218
2023-01-30,0.04051871556146972
2023-01-31,-0.3156146757085713
2023-02-01,0.15949587136027898
2023-02-02,-0.08290882967606977
2023-02-03,-0.14711998679650046
2023-02-06,-0.222123705490142
2023-02-07,-0.08741371829763976
2023-02-08,-0.3280885780885839
2023-02-09,0.2340504059896584
2023-02-10,0.19482718518863743
2023-02-13,0.1492420332243713
2023-02-14,0.2815495207667734
2023-02-15,0.1869408369408418
2023-02-16,-0.19434298697189445
2023-02-17,-0.06672106987565207
2023-02-20,0.010178618334648904
2023-02-21,-0.1711538461538443
2023-02-22,-0.07076292882744623
2023-02-23,-0.08962081848241672
2023-02-24,0.01958464773922553
2023-02-27,0.06236812570145357
2023-02-28,-0.05623523234444749
2023-03-01,0.21776033361953134
2023-03-02,0.01720188636874251
2023-03-03,-0.23027876631079686
2023-03-06,-0.12685805422647078
2023-03-07,0.10238907849829243
2023-03-08,-0.3886677801073205
2023-03-09,0.2665673124689387
2023-03-10,0.3722855690318816
2023-03-13,0.06571385359951389
2023-03-14,0.07725321888411718
2023-03-15,0.23295602636183993
2023-03-16,-0.24343434343433226
2023-03-17,-0.2130852340936328
2023-03-20,-0.03461337513061773
2023-03-21,-0.13975321888411618
2023-03-22,0.07696831720736554
2023-03-23,0.02471855115026905
2023-03-24,0.09759358288769389
2023-03-27,0.009026434558350706
2023-03-28,0.045108695652174416
2023-03-29,0.12701222081752714
2023-03-30,0.030837004405285588
2023-03-31,-0.2623210123210054
2023-04-03,0.04400386847195617
2023-04-04,0.008502415458934435
2023-04-06,-0.4590856780030952
2023-04-07,-0.05389221556886322
2023-04-10,0.2827467890758952
2023-04-11,0.023784355179700525
2023-04-12,0.15333333333333599
2023-04-13,0.20743175584483686
2023-04-14,0.17329327663152788
2023-04-17,-0.008724545021789848
2023-04-18,0.13358318690081764
2023-04-19,-0.12105079373367053
2023-04-20,0.037969445146383014
2023-04-21,0.04667667745323796
2023-04-24,-0.14048911052097585
2023-04-25,-0.28977223416263065
2023-04-26,-0.09948060723251353
2023-04-27,0.3900336007321597
2023-04-28,-0.34171513228360784
2023-05-04,0.14308028741018514
2023-05-05,0.1631886818950572
2023-05-08,0.18115909479724712
2023-05-09,-0.6365510581112375
2023-05-10,0.20681420420946756
2023-05-11,-0.13693314690352862
2023-05-12,-0.16714762617658063
2023-05-15,-0.2332772664806356
2023-05-16,0.37478635222888834
2023-05-17,-0.07921174493958077
2023-05-18,0.03611029624619272
2023-05-19,0.08559898045879158
2023-05-22,0.1694009797483423
2023-05-23,-0.19368825873769036
2023-05-24,0.0701320211944957
2023-05-25,-0.023379607883433004
2023-05-26,0.2046808466014571
2023-05-29,-0.04992947599736351
2023-05-30,0.027086375693720466
2023-05-31,0.03781074740470412
2023-06-01,0.011293449127948923
2023-06-02,-0.18112776835662395
2023-06-05,0.02675164247216906
2023-06-06,0.12369888113523998
2023-06-07,0.017961018357636235
2023-06-08,0.1026781286163023
2023-06-09,-0.04161498584740483
2023-06-12,-0.014300545899063155
2023-06-13,-0.12038675843985608
2023-06-14,-0.1512279258180902
2023-06-15,-0.14724334600760786
2023-06-16,-0.00345025876940816
2023-06-19,-0.0037174721189580065
2023-06-20,0.16870282604879797
2023-06-21,0.07335907335907259
2023-06-26,0.16743697478991734
2023-06-27,0.045703395703398327
2023-06-28,-0.07335907335907421
2023-06-29,-0.3154620853080543
2023-06-30,0.10256410256410166
2023-07-03,-0.1306449049003404
2023-07-04,0.03210133338971133
2023-07-05,0.1287858855291725
2023-07-06,0.15801454656082767
2023-07-07,0.01112980402122224
2023-07-10,0.03820793011042528
2023-07-11,0.07258515659089529
2023-07-12,-0.09359475110139638
2023-07-13,0.16837434232805465
2023-07-14,-0.3541120250522244
2023-07-17,0.16055045871560003
2023-07-18,-0.2075597037233894
2023-07-19,0.1797608592852827
2023-07-20,-0.2280361757105889
2023-07-21,0.3042479057009446
2023-07-24,-0.3365504587155983
2023-07-25,0.07759315399670123
2023-07-26,-0.32159292035398446
2023-07-27,0.1196350916997594
2023-07-28,-0.01649250912753302
2023-07-31,0.1534011299435001
2023-08-01,-0.011336214153434183
2023-08-02,0.7884337349397523
2023-08-03,0.025691970402838427
2023-08-04,-0.05797557597885386
2023-08-07,0.1229572929955652
2023-08-08,0.07629304663817671
2023-08-09,-0.8317041751913252
2023-08-10,-0.1654915161715851
2023-08-11,-0.05754352030947941
2023-08-14,0.11427572340239829
2023-08-15,-0.05992700443468029
2023-08-16,0.12862023449025584
2023-08-17,0.1684026499816012
2023-08-18,0.15401872805306793
2023-08-21,-0.3569266364600396
2023-08-22,0.005663205818664505
2023-08-23,0.13220889120732862
2023-08-24,-0.06361579596873693
2023-08-25,-0.2085641825985145
2023-08-28,0.1267484486677987
2023-08-29,0.04474896919719623
2023-08-30,-0.09909714698447608
2023-08-31,0.13020794698711657
2023-09-01,0.2052515445719305
2023-09-04,-0.0651734473384636
2023-09-05,-0.03607188703467132
2023-09-06,0.04676013641531319
2023-09-07,-0.0056830601092913435
2023-09-08,0.10944001386962299
2023-09-11,0.13689726407013747
2023-09-12,0.04876318975956428
2023-09-13,0.23320835925284358
2023-09-14,-0.22644257703081266
2023-09-15,-0.31108654276757663
2023-09-18,-0.12379543364388776
2023-09-19,0.14801580856477603
2023-09-20,-0.35347826564094575
2023-09-21,0.1882269636479146
2023-09-22,0.2840707106615362
2023-09-25,0.19150946367272353
2023-09-26,-0.19227224459538084
2023-09-27,0.1326614965122744
2023-09-28,-0.09467729972139022
2023-10-09,-0.2262119703610275
2023-10-10,-0.1777725653322039
2023-10-11,-0.12419036252661139
2023-10-12,0.019747846110094315
2023-10-13,-0.08949616539400487
2023-10-16,-0.0490026429430336
2023-10-17,-0.027317821174118184
2023-10-18,0.036416450544679985
2023-10-19,-0.11479700854701669
2023-10-20,0.1421618057710256
2023-10-23,0.06655031270128016
2023-10-24,0.018339438339452577
2023-10-25,0.16009642654566014
2023-10-26,0.10315018315018959
2023-10-27,0.06818181818181204
2023-10-30,0.045993688555959054
2023-10-31,0.20013953673071377
2023-11-01,-0.0691869949270728
2023-11-02,0.028558062774638744
2023-11-03,-0.1617492713801622
2023-11-06,0.11454458834512432
2023-11-07,-0.1540187955472172
2023-11-08,0.09573084547196375
2023-11-09,-0.03816339907258786
2023-11-10,0.02645097592561898
2023-11-13,0.0157076905753763
2023-11-14,-0.07900827917742456
2023-11-15,-0.10538172715895237
2023-11-16,-0.0357914890988796
2023-11-17,0.1265173037190106
2023-11-20,-0.24155267687289783
2023-11-21,0.20544932220127787
2023-11-22,-0.030060389174680548
2023-11-23,0.02380952380952772
2023-11-24,-0.22820581178352567
2023-11-27,-0.015977443609023326
2023-11-28,-0.2578527894983646
2023-11-29,-0.014075526060976062
2023-11-30,-0.017021720969095846
2023-12-01,0.19025674786043126
2023-12-04,0.2788461538461515
2023-12-05,0.43148148148147875
2023-12-06,-0.009034443817055406
2023-12-07,0.046783625730998604
2023-12-08,0.07576181157394674
2023-12-11,-0.23818350324374482
2023-12-12,-0.4192982456140283
2023-12-13,0.22229547102643607
2023-12-14,-0.01827485380117232
2023-12-15,-0.2911713233962955
2023-12-18,0.12600401606425965
2023-12-19,0.14096491228069719
2023-12-20,-0.23696239614112252
2023-12-21,0.08546704599336513
2023-12-22,0.1841850220264301
2023-12-25,-0.14846278317152856
2023-12-26,0.16347826086956938
2023-12-27,0.18598548833322148
2023-12-28,-0.04368191122165046
2023-12-29,0.034338697707369414
2024-01-02,0.13320931616715834
2024-01-03,-0.28383965592907096
2024-01-04,-0.17332910497802803
2024-01-05,-0.1360538783796115
2024-01-08,-0.19369193153821154
2024-01-09,-0.08355605680515588
2024-01-10,-0.06039618069807923
2024-01-11,-0.09481909918779471
2024-01-12,0.08111084887105498
2024-01-15,0.05792466240227205
2024-01-16,0.009065934065935824
2024-01-17,0.3878787878788057
2024-01-18,0.20343137254901134
2024-01-19,0.05754385964912698
2024-01-22,0.15604395604395904
2024-01-23,0.18992089470813045
2024-01-24,-0.31771127423302165
2024-01-25,-0.0347222222222127
2024-01-26,0.11862068965516949
2024-01-29,-0.1203296703296746
2024-01-30,-0.14184397163121132
2024-01-31,0.30846509376246517
2024-02-01,0.09509070907712894
2024-02-02,-0.25676817859249407
2024-02-05,-0.010999960574440623
2024-02-06,-0.1031135019406752
2024-02-07,-0.40769430875910195
2024-02-08,-0.10961091109733173
2024-02-19,0.07524672557854599
2024-02-20,0.1326517462887345
2024-02-21,0.2973581062572185
2024-02-22,0.19879518072289096
2024-02-23,-0.18030303030302977
2024-02-26,0.000512703657289601
2024-02-27,-0.15463979007634332
2024-02-28,-0.3253921453001424
2024-02-29,0.06262786997045182
2024-03-01,0.1878787878787876
2024-03-04,0.20988805970147256
2024-03-05,0.023589508121452274
2024-03-06,0.09177746224344718
2024-03-07,-0.11398082276522437
2024-03-08,-0.05217391304347893
2024-03-11,-0.352637614678879
2024-03-12,0.08906882591091891
2024-03-13,0.07094902610857134
2024-03-14,0.15941786550684536
2024-03-15,0.2743961352656973
2024-03-18,0.19544064498193084
2024-03-19,0.022220426632206067
2024-03-20,-0.06606170598911001
2024-03-21,-0.1448979591836746
2024-03-22,-0.19237147595356108
2024-03-25,-0.08827404479579315
2024-03-26,0.10305429864252938
2024-03-27,0.07395644283122374
2024-03-28,0.13779385171790795
2024-03-29,-0.09343456129755724
2024-04-01,0.12587224906065134
2024-04-02,-0.34842152067585674
2024-04-03,-0.03947368421053034
2024-04-08,-0.02451417364949543
2024-04-09,0.1425311834499512
2024-04-10,-0.1288768443239896
2024-04-11,0.21629296221142635
2024-04-12,0.21484048273389678
2024-04-15,-0.16490468333755964
2024-04-16,-0.15456867533797802
2024-04-17,0.12008115369160567
2024-04-18,0.10657595015319773
2024-04-19,-0.37061937720625726
2024-04-22,0.594482148126297
2024-04-23,0.17085940215501844
2024-04-24,0.6908944560644864
2024-04-25,-0.03601770543299365
2024-04-26,0.33147982905179924
2024-04-29,-0.39984101748807765
2024-04-30,0.0015827140104645587
2024-05-06,-0.9081027667984181
2024-05-07,-0.15930364797480598
2024-05-08,-0.13609697418339972
2024-05-09,-0.2668256491785935
2024-05-10,0.1012744288466818
2024-05-13,0.3075463280066876
2024-05-14,0.49009409152007377
2024-05-15,0.11808834729626949
2024-05-16,0.23394241417497424
2024-05-17,-0.2587956272002963
2024-05-20,-0.0674220201974981
2024-05-21,-0.49970664175769075
2024-05-22,-0.32653406951938835
2024-05-23,-0.03979782797935606
2024-05-24,0.09030879407162913
2024-05-27,-0.21931282115919315
2024-05-28,-0.04949694544616301
2024-05-29,0.2498574812950361
2024-05-30,-0.04201930655355825
2024-05-31,0.004443808427299061
2024-06-03,0.29316394754688563
2024-06-04,0.14114205189474036
2024-06-05,-0.12156871485966175
2024-06-06,-0.012355827192490293
2024-06-07,-0.08538488861598126
2024-06-11,-0.37335445720075155
2024-06-12,-0.22586808712695375
2024-06-13,0.4636934912594747
2024-06-14,0.04548025719038483
2024-06-17,0.010283644435337892
2024-06-18,0.34352221786411963
2024-06-19,0.2261017434676152
2024-06-20,-0.6946568893103925
2024-06-21,-0.08609359149649337
2024-06-24,0.010883118267919389
2024-06-25,-0.26445411390942053
2024-06-26,-0.030623020063358805
2024-06-27,0.3509387761141043
2024-06-28,0.09593864216869145
2024-07-01,0.013905749917228555
2024-07-02,0.08717401642610262
2024-07-03,-0.026132404181185075
2024-07-04,-0.18317909107935457
2024-07-05,-0.1342165167991761
2024-07-08,0.1479565911730546
2024-07-09,0.15972093174890395
2024-07-10,0.12221781343385434
2024-07-11,0.027458007109174357
2024-07-12,0.09172391928251006
2024-07-15,-0.21389271028979764
2024-07-16,-0.30327034160824334
2024-07-17,-0.06793786181422738
2024-07-18,0.07899974862028525
2024-07-19,0.18413253108206618
2024-07-22,0.020180777842399578
2024-07-23,0.27949982308247834
2024-07-24,-0.1824332617241553
2024-07-25,0.08513679051625261
2024-07-26,-0.21768707482993277
2024-07-29,0.12071115604988109
2024-07-30,0.05902642252278406
2024-07-31,0.07708643241856689
2024-08-01,-0.08783783783783759
2024-08-02,-0.016583287011303016
2024-08-05,-0.12938172285998303
2024-08-06,-0.22651121554143774
2024-08-07,0.0698822086964143
2024-08-08,0.012285012285010865
2024-08-09,0.20255184919345948
2024-08-12,0.10053681695472733
2024-08-13,0.02273264134950627
2024-08-14,0.07780165466852963
2024-08-15,-0.049322049322050185
2024-08-16,-0.07852045473404881
2024-08-19,-0.03388300433317384
2024-08-20,-0.012833086059631738
2024-08-21,-0.15563741992574634
2024-08-22,0.017943958278091785
2024-08-23,-0.37856385301640766
2024-08-26,-0.060253456221194046
2024-08-27,0.09577525728590737
2024-08-28,0.13739164439810125
2024-08-29,-0.06601330421978173
2024-08-30,0.3497425451253308
2024-09-02,0.08308270676691207
2024-09-03,-0.09670150136616161
2024-09-04,-0.044270678480113894
2024-09-05,0.04558069127912268
2024-09-06,-0.026892525600531708
2024-09-09,-0.05978059903857434
2024-09-10,0.189185353391998
2024-09-11,-0.050113721359769194
2024-09-12,0.09152569169960693
2024-09-13,0.16698743525950854
2024-09-18,0.06695763253139962
2024-09-19,0.05233690360272447
2024-09-20,0.1207363797775895
2024-09-23,-0.08968844221105533
2024-09-24,-0.23637681303299085
2024-09-25,0.07179133715446605
2024-09-26,-0.34838309659548183
2024-09-27,-0.16244171758487763
2024-09-30,0.21056979814325566
2024-10-08,0.6028464057712897
2024-10-09,-0.13723904733901876
2024-10-10,0.2041449435572596
2024-10-11,0.07620274812061492
2024-10-14,-0.24031873550830896
2024-10-15,-0.9900515931782332
2024-10-16,0.0017378351539226802
2024-10-17,0.20788918307048937
2024-10-18,0.02994117718697696
2024-10-21,-0.004213710766571593
2024-10-22,0.44912363414499157
2024-10-23,-0.056540245219488826
2024-10-24,-0.5845324003207228
2024-10-25,0.25931620177171855
2024-10-28,0.23757037285388627
2024-10-29,0.12643262777490277
2024-10-30,0.14564595728978813
2024-10-31,0.4085344441349947
2024-11-01,-0.34333759046401935
2024-11-04,-0.03105086145857361
2024-11-05,-0.18394648829431026
2024-11-06,-0.03902418400134571
2024-11-07,0.10925955350757946
2024-11-08,0.1140844160041368
2024-11-11,-0.24680871956009343
2024-11-12,0.05246620387285525
2024-11-13,-0.04059426658297119
2024-11-14,-0.2867271695972717
2024-11-15,-0.21129641829340273
2024-11-18,-0.02585497708309313
2024-11-19,0.035800621618503004
2024-11-20,-0.0028625235404913067
2024-11-21,0.07163430765947862
2024-11-22,0.15410947947660217
2024-11-25,0.25430012995948
2024-11-26,-0.07087552114353551
2024-11-27,0.08111111111111434
2024-11-28,0.024484689622310037
2024-11-29,-0.06628019323672413
2024-12-02,-0.17870581130672125
2024-12-03,0.22204968944099812
2024-12-04,-0.011038961038964103
2024-12-05,0.013474025974026891
2024-12-06,0.1681575246132272
2024-12-09,0.08143172616856073
2024-12-10,-0.19366576819407066
2024-12-11,-0.15773498532118835
2024-12-12,-0.009239130434785275
2024-12-13,-0.15482419127988822
2024-12-16,-0.12772133526850427
2024-12-17,-0.18596386143556204
2024-12-18,0.28735397123660916
2024-12-19,0.03141211870493181
2024-12-20,-0.022506355221257587
2024-12-23,0.034362279143493546
2024-12-24,0.23812242354391605
2024-12-25,-0.376127194687781
2024-12-26,0.09350161490445524
2024-12-27,0.015535931560180322
2024-12-30,0.16643597920194142
2024-12-31,-0.05114872952796877
