date,FCT_Demark_Atr_Dfive
2014-08-08,
2014-08-11,
2014-08-12,
2014-08-13,
2014-08-14,
2014-08-15,
2014-08-18,
2014-08-19,
2014-08-20,
2014-08-21,0.0
2014-08-22,0.0
2014-08-25,0.0
2014-08-26,0.0
2014-08-27,0.23437500000000416
2014-08-28,0.4838709677419325
2014-08-29,0.5
2014-09-01,0.31250000000001144
2014-09-02,0.5087719298245714
2014-09-03,0.1971830985915486
2014-09-04,0.19718309859154987
2014-09-05,0.20289855072463697
2014-09-09,0.5156249999999961
2014-09-10,0.6770833333333308
2014-09-11,0.9718309859154934
2014-09-12,0.9583333333333311
2014-09-15,0.9803921568627455
2014-09-16,0.9310344827586171
2014-09-17,0.3465346534653509
2014-09-18,0.37142857142856966
2014-09-19,0.5789473684210504
2014-09-22,0.479674796747961
2014-09-23,0.5973154362416083
2014-09-24,1.0
2014-09-25,1.0
2014-09-26,0.9298245614035094
2014-09-29,0.8595041322314082
2014-09-30,0.6727272727272755
2014-10-08,0.640000000000005
2014-10-09,0.1558441558441594
2014-10-10,0.11428571428571678
2014-10-13,0.42068965517241264
2014-10-14,0.5637583892617433
2014-10-15,0.44999999999999646
2014-10-16,0.49315068493150527
2014-10-17,0.7516339869281035
2014-10-20,0.41509433962264136
2014-10-21,0.24157303370786462
2014-10-22,0.31288343558282405
2014-10-23,0.36601307189542515
2014-10-24,0.089655172413794
2014-10-27,0.13131313131313213
2014-10-28,0.21666666666666723
2014-10-29,0.0704225352112639
2014-10-30,0.0
2014-10-31,0.07407407407407271
2014-11-03,0.47435897435897173
2014-11-04,0.6545454545454532
2014-11-05,0.8118811881188109
2014-11-06,1.0
2014-11-07,0.8461538461538505
2014-11-10,0.679012345679017
2014-11-11,0.25316455696202605
2014-11-12,0.12500000000000072
2014-11-13,0.0
2014-11-14,0.0
2014-11-17,0.0
2014-11-18,0.0
2014-11-19,0.0
2014-11-20,0.0
2014-11-21,0.0
2014-11-24,0.19230769230769418
2014-11-25,0.4799999999999963
2014-11-26,0.576923076923083
2014-11-27,0.8823529411764653
2014-11-28,1.0
2014-12-01,1.0
2014-12-02,1.0
2014-12-03,0.9905660377358511
2014-12-04,0.8241758241758246
2014-12-05,0.6395348837209309
2014-12-08,0.06024096385541925
2014-12-09,0.14285714285714504
2014-12-10,0.38399999999999934
2014-12-11,0.4067796610169491
2014-12-12,0.5258620689655152
2014-12-15,0.8961038961038957
2014-12-16,0.7272727272727277
2014-12-17,0.7640449438202278
2014-12-18,0.883928571428574
2014-12-19,0.8269230769230783
2014-12-22,0.7800000000000019
2014-12-23,0.8478260869565191
2014-12-24,0.2183098591549285
2014-12-25,0.02631578947368189
2014-12-26,0.027027027027024697
2014-12-29,0.10344827586206772
2014-12-30,0.19512195121951031
2014-12-31,0.9761904761904765
2015-01-05,0.5724637681159446
2015-01-06,0.6566265060240988
2015-01-07,0.7298578199052148
2015-01-08,0.6283185840707981
2015-01-09,0.3700440528634368
2015-01-12,0.49411764705882366
2015-01-13,0.28421052631578914
2015-01-14,0.0
2015-01-15,0.0
2015-01-16,0.0
2015-01-19,0.15058243346654154
2015-01-20,0.5214182454538537
2015-01-21,1.0
2015-01-22,1.0
2015-01-23,1.0
2015-01-26,0.7578947368421056
2015-01-27,0.48888888888888826
2015-01-28,0.7982456140350883
2015-01-29,0.8333333333333338
2015-01-30,0.8707865168539329
2015-02-02,1.0
2015-02-03,0.9639639639639638
2015-02-04,0.9266666666666653
2015-02-05,0.8214285714285681
2015-02-06,0.5555555555555537
2015-02-09,0.0
2015-02-10,0.0
2015-02-11,0.0
2015-02-12,0.04285714285714518
2015-02-13,0.050000000000002556
2015-02-16,0.055214723926383186
2015-02-17,0.05882352941176774
2015-02-25,0.12000000000000562
2015-02-26,0.0
2015-02-27,0.0
2015-03-02,0.3199999999999993
2015-03-03,0.8256880733944943
2015-03-04,0.8256880733944943
2015-03-05,1.0
2015-03-06,1.0
2015-03-09,0.992187500000003
2015-03-10,0.924242424242427
2015-03-11,0.9479166666666686
2015-03-12,0.9685534591194981
2015-03-13,0.7622950819672156
2015-03-16,0.6458333333333324
2015-03-17,0.5254237288135605
2015-03-18,0.3559322033898308
2015-03-19,0.0
2015-03-20,0.0
2015-03-23,0.35046728971962426
2015-03-24,0.37128712871286873
2015-03-25,0.43604651162790403
2015-03-26,0.6119402985074613
2015-03-27,0.8239436619718321
2015-03-30,0.7619047619047645
2015-03-31,1.0
2015-04-01,1.0
2015-04-02,0.7863247863247879
2015-04-03,0.8502994011976048
2015-04-07,0.46846846846846685
2015-04-08,0.5661764705882332
2015-04-09,0.5661764705882332
2015-04-10,0.7190332326283968
2015-04-13,0.6858108108108094
2015-04-14,0.9759615384615391
2015-04-15,0.5903083700440539
2015-04-16,0.7350427350427358
2015-04-17,0.6444444444444465
2015-04-20,0.4575645756457566
2015-04-21,0.4661654135338353
2015-04-22,0.7522935779816511
2015-04-23,0.19138755980861363
2015-04-24,0.170940170940172
2015-04-27,0.15503875968992403
2015-04-28,0.41711229946524075
2015-04-29,0.39779005524861916
2015-04-30,0.6961651917404141
2015-05-04,0.6483516483516486
2015-05-05,0.6880466472303196
2015-05-06,0.3351955307262571
2015-05-07,0.23115577889447225
2015-05-08,0.0
2015-05-11,0.0
2015-05-12,0.0
2015-05-13,0.0
2015-05-14,0.0
2015-05-15,
2015-05-18,
2015-05-19,
2015-05-20,
2015-05-21,
2015-05-22,
2015-05-25,
2015-05-26,
2015-05-27,
2015-05-28,
2015-05-29,1.0
2015-06-01,1.0
2015-06-02,1.0
2015-06-03,1.0
2015-06-04,1.0
2015-06-05,0.9253731343283583
2015-06-08,0.9253731343283583
2015-06-09,0.8308457711442802
2015-06-10,0.8308457711442802
2015-06-11,0.0
2015-06-12,0.0
2015-06-15,0.0
2015-06-16,0.0
2015-06-17,0.0
2015-06-18,
2015-06-19,
2015-06-23,
2015-06-24,
2015-06-25,
2015-06-26,
2015-06-29,
2015-06-30,
2015-07-01,
2015-07-02,1.0
2015-07-03,1.0
2015-07-06,1.0
2015-07-07,1.0
2015-07-08,1.0
2015-07-09,0.0
2015-07-10,0.0
2015-07-13,0.0
2015-07-14,0.324503311258277
2015-07-15,0.324503311258277
2015-07-16,1.0
2015-07-17,1.0
2015-07-20,1.0
2015-07-21,0.0
2015-07-22,0.0
2015-07-23,0.0
2015-07-24,0.0
2015-07-27,0.0
2015-07-28,
2015-07-29,
2015-07-30,1.0
2015-07-31,1.0
2015-08-03,1.0
2015-08-04,1.0
2015-08-05,1.0
2015-08-06,0.0
2015-08-07,0.0
2015-08-10,0.0
2015-08-11,0.0
2015-08-12,0.0
2015-08-13,
2015-08-14,
2015-08-17,1.0
2015-08-18,1.0
2015-08-19,1.0
2015-08-20,1.0
2015-08-21,1.0
2015-08-24,0.46329113924050613
2015-08-25,0.648424543946932
2015-08-26,0.648424543946932
2015-08-27,0.6816816816816819
2015-08-28,0.4069069069069075
2015-08-31,0.596916299559472
2015-09-01,0.24803149606299324
2015-09-02,0.5260545905707203
2015-09-07,0.48517520215633464
2015-09-08,0.957446808510638
2015-09-09,0.9686274509803919
2015-09-10,0.5525727069351232
2015-09-11,0.21923937360178983
2015-09-14,0.13137254901960793
2015-09-15,0.13137254901960793
2015-09-16,0.01991150442477824
2015-09-17,0.03571428571428477
2015-09-18,0.0873786407766967
2015-09-21,1.0
2015-09-22,1.0
2015-09-23,0.0
2015-09-24,0.0
2015-09-25,0.0
2015-09-28,0.2692307692307694
2015-09-29,0.2692307692307694
2015-09-30,1.0
2015-10-08,1.0
2015-10-09,1.0
2015-10-12,1.0
2015-10-13,1.0
2015-10-14,1.0
2015-10-15,1.0
2015-10-16,0.6752136752136767
2015-10-19,0.663716814159295
2015-10-20,0.8090452261306541
2015-10-21,0.7865168539325855
2015-10-22,0.7828571428571428
2015-10-23,1.0
2015-10-26,0.8268156424581009
2015-10-27,0.5123966942148745
2015-10-28,0.3928571428571373
2015-10-29,0.22727272727272566
2015-10-30,0.6494845360824736
2015-11-02,0.7921348314606719
2015-11-03,0.950549450549448
2015-11-04,1.0
2015-11-05,0.8831775700934582
2015-11-06,0.2909090909090903
2015-11-09,0.26066350710900393
2015-11-10,0.09199999999999954
2015-11-11,0.10629921259842383
2015-11-12,0.24626865671641648
2015-11-13,0.5847953216374271
2015-11-16,0.6120218579234993
2015-11-17,1.0
2015-11-18,0.7157894736842116
2015-11-19,0.5388888888888909
2015-11-20,0.3987341772151921
2015-11-23,0.4135802469135798
2015-11-24,0.1679389312977089
2015-11-25,0.5564516129032259
2015-11-26,0.71875
2015-11-27,0.6969696969696945
2015-11-30,0.4895833333333316
2015-12-01,0.48453608247422636
2015-12-02,0.0
2015-12-03,0.0
2015-12-04,0.2954545454545457
2015-12-07,0.2932330827067683
2015-12-08,0.31967213114754295
2015-12-09,0.4588235294117708
2015-12-10,0.3786407766990306
2015-12-11,0.0
2015-12-14,0.0
2015-12-15,0.06306306306306204
2015-12-16,0.06481481481481367
2015-12-17,0.14999999999999894
2015-12-18,0.7499999999999988
2015-12-21,0.9603960396039599
2015-12-22,0.9699248120300749
2015-12-23,1.0
2015-12-24,1.0
2015-12-25,0.8089887640449442
2015-12-28,0.43842364532019734
2015-12-29,0.2564102564102564
2015-12-30,0.18220224846534516
2015-12-31,0.034350569998491225
2016-01-04,0.1937235860084483
2016-01-05,0.6085883646702249
2016-01-06,0.8940560857869349
2016-01-07,0.9388592214224909
2016-01-08,0.9482052122602861
2016-01-11,0.9588273615635188
2016-01-12,0.9565121655840586
2016-01-13,0.7499999999999999
2016-01-14,0.8481012658227842
2016-01-15,0.8571428571428562
2016-01-18,0.7034482758620668
2016-01-19,0.5620437956204365
2016-01-20,0.707317073170731
2016-01-21,0.37373737373737526
2016-01-22,0.0813008130081311
2016-01-25,0.07092198581560409
2016-01-26,0.07812500000000126
2016-01-27,0.0
2016-01-28,0.1465517241379277
2016-01-29,0.2615384615384632
2016-02-01,0.5151515151515123
2016-02-02,0.42500000000000254
2016-02-03,0.5000000000000068
2016-02-04,1.031461805775063e-14
2016-02-05,0.0
2016-02-15,0.0
2016-02-16,0.3333333333333356
2016-02-17,0.2823529411764713
2016-02-18,0.31578947368420995
2016-02-19,0.4032258064516095
2016-02-22,0.5352112676056334
2016-02-23,0.22580645161290247
2016-02-24,0.42372881355931746
2016-02-25,0.7794117647058783
2016-02-26,0.8124999999999964
2016-02-29,0.7945205479452002
2016-03-01,1.0
2016-03-02,1.0
2016-03-03,1.0
2016-03-04,1.0
2016-03-07,0.8009478672985781
2016-03-08,0.8319999999999994
2016-03-09,0.6696832579185517
2016-03-10,0.7767584097859334
2016-03-11,0.7183098591549316
2016-03-14,0.8858858858858877
2016-03-15,0.6426426426426439
2016-03-16,0.7308868501529059
2016-03-17,0.3547400611620789
2016-03-18,0.33142857142857046
2016-03-21,0.18181818181818304
2016-03-22,0.31696428571428736
2016-03-23,0.24257425742574615
2016-03-24,0.7368421052631603
2016-03-25,0.8235294117647085
2016-03-28,0.8125000000000014
2016-03-29,0.5514018691588799
2016-03-30,0.41791044776119235
2016-03-31,0.13375796178343838
2016-04-01,0.39487179487179297
2016-04-05,0.2267206477732785
2016-04-06,0.2382978723404247
2016-04-07,0.2522522522522518
2016-04-08,0.41621621621621524
2016-04-11,0.11666666666666593
2016-04-12,0.15671641791044666
2016-04-13,0.37908496732025926
2016-04-14,0.5851063829787226
2016-04-15,0.6231884057971012
2016-04-18,0.8789237668161431
2016-04-19,1.0
2016-04-20,1.0
2016-04-21,1.0
2016-04-22,0.8535031847133759
2016-04-25,0.8174603174603171
2016-04-26,0.637362637362641
2016-04-27,0.5327102803738349
2016-04-28,0.3076923076923107
2016-04-29,0.795053003533573
2016-05-03,0.5345638290406368
2016-05-04,0.5515428691583887
2016-05-05,0.5116350564446801
2016-05-06,0.5478478023973843
2016-05-09,0.0031103445712034267
2016-05-10,0.1835814786662338
2016-05-11,0.3542851257128559
2016-05-12,0.3999601328430614
2016-05-13,0.485308873364759
2016-05-16,0.834999999999998
2016-05-17,0.5728155339805802
2016-05-18,0.24456521739130269
2016-05-19,0.2698412698412689
2016-05-20,0.028169014084507317
2016-05-23,0.03260869565217432
2016-05-24,0.041958041958042584
2016-05-25,0.03870967741935525
2016-05-26,0.0
2016-05-27,0.0
2016-05-30,0.0
2016-05-31,0.0
2016-06-01,0.0
2016-06-02,0.4963503649635026
2016-06-03,0.6732026143790842
2016-06-06,0.8000000000000012
2016-06-07,0.8390804597701166
2016-06-08,1.0
2016-06-13,0.6428571428571432
2016-06-14,0.40506329113924083
2016-06-15,0.29374999999999823
2016-06-16,0.1280487804878036
2016-06-17,0.0
2016-06-20,0.0
2016-06-21,0.13636363636363377
2016-06-22,0.3870967741935508
2016-06-23,0.6538461538461572
2016-06-24,0.7375000000000002
2016-06-27,1.0
2016-06-28,0.9795918367346966
2016-06-29,0.8275862068965533
2016-06-30,0.7702702702702752
2016-07-01,0.7820512820512866
2016-07-04,0.679245283018872
2016-07-05,0.8000000000000023
2016-07-06,0.9803921568627478
2016-07-07,1.0
2016-07-08,1.0
2016-07-11,1.0
2016-07-12,0.7011494252873547
2016-07-13,0.42857142857142616
2016-07-14,0.13114754098360834
2016-07-15,0.014925373134326304
2016-07-18,0.0
2016-07-19,0.49090909090908835
2016-07-20,0.534482758620687
2016-07-21,0.9173789173789161
2016-07-22,0.9606879606879607
2016-07-25,1.0
2016-07-26,1.0
2016-07-27,0.980219780219781
2016-07-28,0.46851385390428296
2016-07-29,0.3866279069767446
2016-08-01,0.2715231788079471
2016-08-02,0.05839416058394188
2016-08-03,0.26112759643916905
2016-08-04,0.7359550561797742
2016-08-05,0.7098765432098753
2016-08-08,0.5927835051546393
2016-08-09,0.770949720670392
2016-08-10,0.3793103448275849
2016-08-11,0.1116504854368929
2016-08-12,0.08098591549295756
2016-08-15,0.18215613382899587
2016-08-16,0.09737827715355814
2016-08-17,0.3358778625954217
2016-08-18,0.4631578947368447
2016-08-19,0.7931034482758667
2016-08-22,0.43137254901961103
2016-08-23,0.3316582914572867
2016-08-24,0.0171673819742485
2016-08-25,0.27795527156549527
2016-08-26,0.317220543806647
2016-08-29,0.526162790697674
2016-08-30,0.7557251908396952
2016-08-31,1.0
2016-09-01,0.8550857335813937
2016-09-02,0.8245534222575425
2016-09-05,0.6641341254754047
2016-09-06,0.31310660423934894
2016-09-07,0.0
2016-09-08,0.34252939744970345
2016-09-09,0.3878413783083305
2016-09-12,0.5338538094521965
2016-09-13,0.8000000000000004
2016-09-14,1.0
2016-09-19,0.3769230769230793
2016-09-20,0.6553191489361702
2016-09-21,0.5784753363228694
2016-09-22,0.5500000000000002
2016-09-23,0.5155555555555557
2016-09-26,0.883817427385893
2016-09-27,0.5025906735751284
2016-09-28,0.580808080808079
2016-09-29,0.669491525423726
2016-09-30,0.7118644067796575
2016-10-10,0.32126696832578666
2016-10-11,0.5147928994082811
2016-10-12,0.5706806282722511
2016-10-13,0.2882096069869002
2016-10-14,0.2248995983935771
2016-10-17,0.6159169550173037
2016-10-18,0.5126582278481024
2016-10-19,0.4250871080139373
2016-10-20,0.5999999999999979
2016-10-21,0.7692307692307646
2016-10-24,0.3222222222222129
2016-10-25,0.6220095693779859
2016-10-26,0.6103286384976531
2016-10-27,0.7438271604938292
2016-10-28,0.6404109589041141
2016-10-31,0.6678571428571531
2016-11-01,0.37337662337662836
2016-11-02,0.42207792207792494
2016-11-03,0.05474452554744432
2016-11-04,0.10566037735848885
2016-11-07,0.4872521246458902
2016-11-08,0.7263513513513518
2016-11-09,0.7290969899665565
2016-11-10,1.0
2016-11-11,1.0
2016-11-14,0.8493975903614412
2016-11-15,0.8809523809523779
2016-11-16,0.8434343434343342
2016-11-17,0.5309734513274287
2016-11-18,0.4903846153846141
2016-11-21,0.4163265306122471
2016-11-22,0.07177033492823076
2016-11-23,0.054945054945055916
2016-11-24,0.13679245283018332
2016-11-25,0.048442906574389724
2016-11-28,0.046979865771807364
2016-11-29,0.04388714733541888
2016-11-30,0.12313432835821053
2016-12-01,0.07279693486590717
2016-12-02,0.28571428571429197
2016-12-05,0.524096385542172
2016-12-06,0.9263157894736921
2016-12-07,0.6699029126213579
2016-12-08,0.7999999999999967
2016-12-09,0.7299999999999975
2016-12-12,0.7096774193548409
2016-12-13,0.7216494845360839
2016-12-14,1.0
2016-12-15,1.0
2016-12-16,0.52087776299424
2016-12-19,0.2981248389310914
2016-12-20,0.29442695949047953
2016-12-21,0.13678710536878744
2016-12-22,0.028213055532214964
2016-12-23,0.10337505163616666
2016-12-26,0.6963174795807727
2016-12-27,0.7617060896416014
2016-12-28,0.8795728565540009
2016-12-29,1.0
2016-12-30,1.0
2017-01-03,1.0
2017-01-04,0.834745762711862
2017-01-05,0.5175879396984916
2017-01-06,0.3239436619718355
2017-01-09,0.07692307692309061
2017-01-10,0.004761904761903773
2017-01-11,0.005154639175256683
2017-01-12,0.4687499999999985
2017-01-13,0.4407407407407413
2017-01-16,0.4103448275862067
2017-01-17,0.7387387387387406
2017-01-18,0.8267326732673282
2017-01-19,0.20960698689956256
2017-01-20,0.19999999999999757
2017-01-23,0.3174603174603159
2017-01-24,0.11475409836065577
2017-01-25,0.10223642172523993
2017-01-26,0.30051813471502375
2017-02-03,0.4108108108108111
2017-02-06,0.23036649214659646
2017-02-07,0.45360824742268435
2017-02-08,0.5172413793103489
2017-02-09,0.2435897435897474
2017-02-10,0.011235955056177667
2017-02-13,0.017543859649119975
2017-02-14,0.5905511811023655
2017-02-15,0.7425742574257463
2017-02-16,0.8205128205128248
2017-02-17,0.9651162790697717
2017-02-20,1.0
2017-02-21,1.0
2017-02-22,0.5164319248826299
2017-02-23,0.5118483412322279
2017-02-24,0.43776824034334766
2017-02-27,0.46090534979423775
2017-02-28,0.08163265306122237
2017-03-01,0.14859437751003662
2017-03-02,0.11111111111110858
2017-03-03,0.28421052631578797
2017-03-06,0.30847457627118646
2017-03-07,0.8275862068965525
2017-03-08,0.813084112149531
2017-03-09,0.9999999999999979
2017-03-10,0.9999999999999976
2017-03-13,0.9838709677419311
2017-03-14,0.9902439024390217
2017-03-15,0.9939024390243897
2017-03-16,0.8247422680412363
2017-03-17,0.8391167192429014
2017-03-20,0.8286604361370719
2017-03-21,0.8286604361370716
2017-03-22,0.6217391304347828
2017-03-23,0.8354978354978374
2017-03-24,0.49635036496350576
2017-03-27,0.5769230769230804
2017-03-28,0.2865853658536628
2017-03-29,0.2857142857142897
2017-03-30,0.13924050632911739
2017-03-31,0.3653136531365333
2017-04-05,0.1936619718309837
2017-04-06,0.26190476190475975
2017-04-07,0.4019607843137182
2017-04-10,0.622222222222216
2017-04-11,0.36480686695278486
2017-04-12,0.6127659574468126
2017-04-13,0.7595419847328264
2017-04-14,0.8055555555555585
2017-04-17,0.6074394442319364
2017-04-18,0.782111421493704
2017-04-19,0.6513334345427865
2017-04-20,0.5159699962576692
2017-04-21,0.13940349042061198
2017-04-24,0.17519113017608146
2017-04-25,0.17913119819595025
2017-04-26,0.19658999669390403
2017-04-27,0.2394582504457892
2017-04-28,0.6400000000000041
2017-05-02,0.8181818181818209
2017-05-03,0.5595238095238083
2017-05-04,0.8137931034482767
2017-05-05,0.8150684931506855
2017-05-08,0.8859060402684545
2017-05-09,0.8468468468468439
2017-05-10,0.6184210526315771
2017-05-11,0.13772455089819674
2017-05-12,0.075555555555552
2017-05-15,0.015624999999997717
2017-05-16,0.0
2017-05-17,0.30526315789473646
2017-05-18,0.3591331269349847
2017-05-19,0.4892857142857151
2017-05-22,0.6221374045801554
2017-05-23,0.8835341365461867
2017-05-24,0.4705882352941201
2017-05-25,0.5600000000000013
2017-05-26,0.44827586206896936
2017-05-31,0.5658914728682154
2017-06-01,0.47417840375586434
2017-06-02,0.5179487179487205
2017-06-05,0.5480769230769241
2017-06-06,0.6162162162162171
2017-06-07,0.1964285714285696
2017-06-08,0.08823529411764566
2017-06-09,0.4575645756457559
2017-06-12,0.4007782101167326
2017-06-13,0.3976833976833986
2017-06-14,0.46818181818181853
2017-06-15,0.6866666666666643
2017-06-16,0.0
2017-06-19,0.0
2017-06-20,0.23776223776223612
2017-06-21,0.27868852459016286
2017-06-22,0.3870967741935479
2017-06-23,0.4285714285714285
2017-06-26,0.37500000000000006
2017-06-27,0.29824561403509053
2017-06-28,0.33913043478261384
2017-06-29,0.39200000000000634
2017-06-30,0.6559139784946295
2017-07-03,1.0
2017-07-04,0.7977528089887623
2017-07-05,0.8064516129032223
2017-07-06,0.5666666666666615
2017-07-07,0.6517857142857095
2017-07-10,0.4526315789473648
2017-07-11,0.367521367521365
2017-07-12,0.40322580645161193
2017-07-13,0.518181818181816
2017-07-14,0.19491525423728567
2017-07-17,0.6625514403292178
2017-07-18,0.8432835820895533
2017-07-19,0.7446808510638332
2017-07-20,0.8222222222222249
2017-07-21,0.9230769230769253
2017-07-24,0.7681660899653986
2017-07-25,0.5946969696969696
2017-07-26,0.7516129032258038
2017-07-27,0.33993399339933944
2017-07-28,0.2733812949640266
2017-07-31,0.2389937106918234
2017-08-01,0.3244147157190624
2017-08-02,0.07046979865771665
2017-08-03,0.2701421800947852
2017-08-04,0.2727272727272722
2017-08-07,0.41605839416058066
2017-08-08,0.22085889570552147
2017-08-09,0.5937499999999987
2017-08-10,0.33898305084745395
2017-08-11,0.7042446169673054
2017-08-14,0.7140459568616556
2017-08-15,0.913986083533688
2017-08-16,0.911779706513953
2017-08-17,0.9959939599008962
2017-08-18,0.6039641069923009
2017-08-21,0.6125279356255626
2017-08-22,0.4130200003540979
2017-08-23,0.34952448095766
2017-08-24,0.06666666666666936
2017-08-25,0.13084112149533395
2017-08-28,0.5441176470588271
2017-08-29,0.5786802030456867
2017-08-30,0.49528301886792686
2017-08-31,0.6213017751479327
2017-09-01,0.7484276729559721
2017-09-04,0.2786885245901319
2017-09-05,0.09459459459458969
2017-09-06,0.0992907801418395
2017-09-07,0.33928571428571724
2017-09-08,0.37988826815643123
2017-09-11,0.3090909090909185
2017-09-12,0.5810810810810901
2017-09-13,0.5548387096774245
2017-09-14,0.492647058823528
2017-09-15,0.28571428571427965
2017-09-18,0.5348837209302303
2017-09-19,0.5555555555555574
2017-09-20,0.6578947368421005
2017-09-21,0.7745664739884361
2017-09-22,0.9823529411764654
2017-09-25,0.8092485549132927
2017-09-26,0.6987951807228853
2017-09-27,0.6170212765957457
2017-09-28,0.1363636363636365
2017-09-29,0.0
2017-10-09,0.10038610038609905
2017-10-10,0.10358565737051692
2017-10-11,0.14529914529914206
2017-10-12,0.2741935483870906
2017-10-13,0.6635514018691552
2017-10-16,0.2419354838709661
2017-10-17,0.23936170212765837
2017-10-18,0.24736842105263207
2017-10-19,0.31764705882352895
2017-10-20,0.12408759124087419
2017-10-23,0.8469387755102096
2017-10-24,0.9325842696629227
2017-10-25,0.9012345679012387
2017-10-26,0.9292035398230123
2017-10-27,0.9783783783783777
2017-10-30,0.7666666666666709
2017-10-31,0.802395209580845
2017-11-01,0.813253012048198
2017-11-02,0.6114649681528724
2017-11-03,0.10362694300518432
2017-11-06,0.26424870466321293
2017-11-07,0.2022471910112338
2017-11-08,0.18518518518518362
2017-11-09,0.3439153439153411
2017-11-10,0.8787878787878757
2017-11-13,0.36601307189542454
2017-11-14,0.288888888888888
2017-11-15,0.5886524822695027
2017-11-16,0.4945454545454541
2017-11-17,0.5206896551724132
2017-11-20,0.7702127659574448
2017-11-21,0.8904761904761896
2017-11-22,0.4294117647058784
2017-11-23,0.49999999999999534
2017-11-24,0.2114285714285643
2017-11-27,0.2580645161290301
2017-11-28,0.23076923076922978
2017-11-29,0.3783783783783777
2017-11-30,0.35042735042735396
2017-12-01,0.785714285714312
2017-12-04,0.5862068965517628
2017-12-05,0.9744245524296711
2017-12-06,0.9900990099009914
2017-12-07,1.0
2017-12-08,1.0
2017-12-11,1.0
2017-12-12,0.7621899059024811
2017-12-13,0.484335309060119
2017-12-14,0.3964321110009911
2017-12-15,0.15558343789209556
2017-12-18,0.016853932584268358
2017-12-19,0.026548672566369627
2017-12-20,0.09090909090908494
2017-12-21,0.03999999999999966
2017-12-22,0.030303030303029953
2017-12-25,0.2683271698934068
2017-12-26,0.22209008121144183
2017-12-27,0.34238353325969423
2017-12-28,0.22826750397040718
2017-12-29,0.26048672980361964
2018-01-02,0.0935445949688281
2018-01-03,0.2910172424776474
2018-01-04,0.23919483197657493
2018-01-05,0.26716020004326674
2018-01-08,0.3038461538461548
2018-01-09,0.3674418604651208
2018-01-10,0.03535353535353847
2018-01-11,0.0
2018-01-12,0.27000000000000834
2018-01-15,0.329787234042562
2018-01-16,0.4852941176470679
2018-01-17,0.6111111111111109
2018-01-18,0.7567567567567527
2018-01-19,0.2830188679245199
2018-01-22,0.5421686746987869
2018-01-23,0.677966101694909
2018-01-24,0.7792792792792745
2018-01-25,0.6623931623931598
2018-01-26,0.7635467980295567
2018-01-29,0.5370370370370404
2018-01-30,0.08783783783783664
2018-01-31,0.0
2018-02-01,0.0
2018-02-02,0.0
2018-02-05,0.22900763358778206
2018-02-06,0.3448275862068942
2018-02-07,0.5841584158415858
2018-02-08,0.7040816326530631
2018-02-09,0.7752808988764115
2018-02-12,0.2746478873239444
2018-02-13,0.26000000000000095
2018-02-14,0.19565217391303102
2018-02-22,0.11724137931033739
2018-02-23,0.17880794701986016
2018-02-26,0.643478260869572
2018-02-27,0.822916666666676
2018-02-28,0.6458333333333478
2018-03-01,0.7045454545454615
2018-03-02,0.5591397849462356
2018-03-05,0.06097560975609
2018-03-06,0.30000000000000615
2018-03-07,0.5918367346938761
2018-03-08,0.6832298136645936
2018-03-09,0.8636363636363656
2018-03-12,1.0
2018-03-13,0.9029535864978888
2018-03-14,0.7339449541284392
2018-03-15,0.6919191919191892
2018-03-16,0.10674157303370585
2018-03-19,0.0
2018-03-20,0.3164556962025268
2018-03-21,0.3537735849056563
2018-03-22,0.33482142857142494
2018-03-23,0.7692307692307684
2018-03-26,0.873096446700508
2018-03-27,0.47317073170732005
2018-03-28,0.4470046082949312
2018-03-29,0.4575471698113237
2018-03-30,0.011428571428567758
2018-04-02,0.1218274111675182
2018-04-03,0.196721311475417
2018-04-04,0.2830188679245367
2018-04-09,0.4961832061068702
2018-04-10,0.4779411764705886
2018-04-11,0.45384615384614657
2018-04-12,0.5333333333333246
2018-04-13,0.7529411764705864
2018-04-16,0.6916299559471355
2018-04-17,0.9756944444444445
2018-04-18,0.8483870967741929
2018-04-19,0.8433333333333326
2018-04-20,0.49416342412450887
2018-04-23,0.4703703703703683
2018-04-24,0.014563106796113584
2018-04-25,0.016836646968857304
2018-04-26,0.2813944489704173
2018-04-27,0.45468997904684966
2018-05-02,0.5911910150667243
2018-05-03,0.647127719836064
2018-05-04,0.6764724835113538
2018-05-07,0.30099115084253264
2018-05-08,0.17268655760040277
2018-05-09,0.0
2018-05-10,0.0
2018-05-11,0.027272727272719535
2018-05-14,0.0322580645161196
2018-05-15,0.13999999999998297
2018-05-16,0.8415841584158364
2018-05-17,0.9302325581395336
2018-05-18,0.9397590361445778
2018-05-21,1.0
2018-05-22,0.9928825622775781
2018-05-23,0.5321100917431203
2018-05-24,0.49753694581280855
2018-05-25,0.36363636363636004
2018-05-28,0.07009345794392557
2018-05-29,0.22745098039216038
2018-05-30,0.27751196172249143
2018-05-31,0.20975609756097954
2018-06-01,0.2621359223301039
2018-06-04,0.5390070921985901
2018-06-05,0.22297297297297836
2018-06-06,0.2796610169491607
2018-06-07,0.2481203007518868
2018-06-08,0.38650306748466007
2018-06-11,0.30069930069929507
2018-06-12,0.4056603773584889
2018-06-13,0.6829268292682914
2018-06-14,0.9197530864197544
2018-06-15,0.548223350253808
2018-06-19,0.7081967213114767
2018-06-20,0.7710843373493984
2018-06-21,0.7095709570957096
2018-06-22,0.4823151125401926
2018-06-25,0.659999999999998
2018-06-26,0.29569892473118364
2018-06-27,0.0781250000000005
2018-06-28,0.08108108108108221
2018-06-29,0.17094017094017536
2018-07-02,0.04761904761905042
2018-07-03,0.05813953488372416
2018-07-04,0.4615384615384727
2018-07-05,0.42253521126761234
2018-07-06,0.4675324675324695
2018-07-09,0.3913043478260819
2018-07-10,0.35643564356435137
2018-07-11,0.35643564356435103
2018-07-12,0.6645962732919163
2018-07-13,0.574850299401191
2018-07-16,0.6513157894736837
2018-07-17,0.8461538461538508
2018-07-18,0.4743589743589745
2018-07-19,0.019736842105268902
2018-07-20,0.1645569620253163
2018-07-23,0.14285714285713802
2018-07-24,0.38839285714285415
2018-07-25,0.5628742514970054
2018-07-26,0.9306930693069223
2018-07-27,0.9363636363636302
2018-07-30,0.9911504424778684
2018-07-31,0.6075949367088629
2018-08-01,0.6555555555555569
2018-08-02,0.7321428571428642
2018-08-03,0.761904761904763
2018-08-06,0.9019607843137261
2018-08-07,1.0
2018-08-08,1.0
2018-08-09,0.9499999999999987
2018-08-10,0.8586118251928019
2018-08-13,0.4965753424657524
2018-08-14,0.2741935483870948
2018-08-15,0.0
2018-08-16,0.2957937661155403
2018-08-17,0.4240289022660698
2018-08-20,0.5614120611231109
2018-08-21,0.8452630803555268
2018-08-22,1.0
2018-08-23,0.8036921770474329
2018-08-24,0.576159331466359
2018-08-27,0.46576440626454213
2018-08-28,0.007968127490039417
2018-08-29,0.011904761904764305
2018-08-30,0.01255230125523262
2018-08-31,0.03278688524590147
2018-09-03,0.035087719298246035
2018-09-04,0.04054054054054206
2018-09-05,0.017964071856284507
2018-09-06,0.020547945205476318
2018-09-07,0.0
2018-09-10,0.1589403973509901
2018-09-11,0.23076923076922082
2018-09-12,0.47272727272726917
2018-09-13,0.42622950819671673
2018-09-14,0.5252525252525067
2018-09-17,0.4124999999999922
2018-09-18,0.7960526315789442
2018-09-19,0.596153846153841
2018-09-20,0.7651006711409278
2018-09-21,0.7987421383647754
2018-09-25,0.7134502923976557
2018-09-26,0.22368421052631315
2018-09-27,0.32283464566929526
2018-09-28,0.3986013986014042
2018-10-08,0.48502994011976613
2018-10-09,0.47928994082841186
2018-10-10,0.8318584070796569
2018-10-11,0.8467741935483954
2018-10-12,0.8240740740740827
2018-10-15,0.333333333333332
2018-10-16,0.583333333333327
2018-10-17,0.5299999999999956
2018-10-18,0.5276381909547716
2018-10-19,0.34285714285714103
2018-10-22,0.6274509803921572
2018-10-23,0.37423312883436183
2018-10-24,0.38853503184713606
2018-10-25,0.2634730538922125
2018-10-26,0.4074074074074026
2018-10-29,0.13513513513513362
2018-10-30,0.15384615384614841
2018-10-31,0.11111111111110904
2018-11-01,0.1315789473684187
2018-11-02,0.5396825396825409
2018-11-05,0.3602484472049721
2018-11-06,0.48502994011976247
2018-11-07,0.6184210526315761
2018-11-08,0.7486033519553078
2018-11-09,0.41530054644808456
2018-11-12,0.7004830917874361
2018-11-13,0.5837320574162632
2018-11-14,0.641975308641974
2018-11-15,0.4427480916030508
2018-11-16,0.7052631578947346
2018-11-19,0.4429530201342275
2018-11-20,0.4400000000000003
2018-11-21,0.35632183908045895
2018-11-22,0.6120996441281149
2018-11-23,0.34117647058823697
2018-11-26,0.7542857142857156
2018-11-27,0.8953900709219859
2018-11-28,0.8874999999999996
2018-11-29,0.7901701323251404
2018-11-30,0.8837209302325576
2018-12-03,0.6495956873315378
2018-12-04,0.0
2018-12-05,0.0
2018-12-06,0.0
2018-12-07,0.11294765840220303
2018-12-10,0.11232876712328634
2018-12-11,0.21693121693121512
2018-12-12,0.25624999999999687
2018-12-13,0.38036809815951295
2018-12-14,0.1320754716981215
2018-12-17,0.5158730158730168
2018-12-18,0.5963302752293527
2018-12-19,0.4779411764705901
2018-12-20,0.4365079365079289
2018-12-21,0.5339805825242686
2018-12-24,0.10318949343339287
2018-12-25,0.25458392101551786
2018-12-26,0.3092077087794475
2018-12-27,0.39940424475611697
2018-12-28,0.5103879214641474
2019-01-02,0.9050022532672418
2019-01-03,0.6642840778923312
2019-01-04,0.7854206068579916
2019-01-07,0.30426720918853545
2019-01-08,0.2666666666666632
2019-01-09,0.13868613138685792
2019-01-10,0.15702479338842493
2019-01-11,0.10526315789473635
2019-01-14,0.47457627118643403
2019-01-15,0.43636363636363285
2019-01-16,0.9615384615384442
2019-01-17,1.0
2019-01-18,1.0
2019-01-21,1.0
2019-01-22,1.0
2019-01-23,1.0
2019-01-24,0.8090909090909147
2019-01-25,0.8090909090909111
2019-01-28,0.7980769230769251
2019-01-29,0.2782608695652174
2019-01-30,0.09782608695651444
2019-01-31,0.29545454545453614
2019-02-01,0.16363636363636386
2019-02-11,0.338129496402876
2019-02-12,0.6385542168674703
2019-02-13,0.5299999999999999
2019-02-14,0.35643564356435953
2019-02-15,0.5679012345679044
2019-02-18,0.2857142857142913
2019-02-19,0.13513513513513317
2019-02-20,0.591304347826077
2019-02-21,0.7433628318583926
2019-02-22,0.5692307692307602
2019-02-25,0.4933333333333288
2019-02-26,0.6462585034013624
2019-02-27,0.24342105263157848
2019-02-28,0.20689655172414084
2019-03-01,0.3888888888888898
2019-03-04,0.5655172413793098
2019-03-05,0.41216216216216395
2019-03-06,0.6630434782608774
2019-03-07,0.5591397849462376
2019-03-08,0.4938271604938311
2019-03-11,0.18918918918919297
2019-03-12,0.5443037974683437
2019-03-13,0.6233766233766089
2019-03-14,0.6315789473684146
2019-03-15,0.5624999999999876
2019-03-18,0.5294117647058727
2019-03-19,0.10447761194029086
2019-03-20,0.18918918918918845
2019-03-21,0.18421052631578655
2019-03-22,0.11764705882352879
2019-03-25,0.40707964601770136
2019-03-26,0.6548672566371663
2019-03-27,0.5794392523364508
2019-03-28,0.6565656565656628
2019-03-29,0.9178082191780912
2019-04-01,0.5789473684210625
2019-04-02,0.12500000000002462
2019-04-03,0.12500000000002123
2019-04-04,0.527027027027024
2019-04-08,0.7083333333333252
2019-04-09,0.8380952380952333
2019-04-10,0.8888888888888834
2019-04-11,0.9568965517241377
2019-04-12,0.6065573770491849
2019-04-15,0.195488721804523
2019-04-16,0.15646258503401936
2019-04-17,0.19594594594594839
2019-04-18,0.04379562043795191
2019-04-19,0.3669064748201356
2019-04-22,0.7412775107079487
2019-04-23,0.8786310596322401
2019-04-24,0.8595255669303021
2019-04-25,0.8208064947511636
2019-04-26,0.3444729128445239
2019-04-29,0.045448549247750276
2019-04-30,0.0
2019-05-06,0.3808295165305726
2019-05-07,0.4638291464215562
2019-05-08,0.7345132743362817
2019-05-09,0.7217391304347798
2019-05-10,0.8659793814433009
2019-05-13,0.3731343283582159
2019-05-14,0.25000000000001327
2019-05-15,0.16666666666667923
2019-05-16,0.37254901960784087
2019-05-17,0.4920634920634849
2019-05-20,0.9285714285714283
2019-05-21,0.7090909090909152
2019-05-22,0.8571428571428584
2019-05-23,0.8608695652173939
2019-05-24,0.859649122807021
2019-05-27,0.633802816901407
2019-05-28,0.7721518987341747
2019-05-29,0.3294797687861299
2019-05-30,0.2543352601156087
2019-05-31,0.17204301075268744
2019-06-03,0.34806629834254127
2019-06-04,0.18128654970760216
2019-06-05,0.39393939393938426
2019-06-06,0.5523809523809419
2019-06-10,0.741176470588232
2019-06-11,0.5161290322580621
2019-06-12,0.7441860465116195
2019-06-13,0.8589743589743558
2019-06-14,0.8135593220338974
2019-06-17,0.8899999999999963
2019-06-18,0.8725490196078374
2019-06-19,0.9074074074074076
2019-06-20,0.5000000000000022
2019-06-21,0.5338983050847472
2019-06-24,0.14782608695653096
2019-06-25,0.2960000000000058
2019-06-26,0.4430379746835423
2019-06-27,0.681481481481482
2019-06-28,0.5637583892617414
2019-07-01,0.8211382113821076
2019-07-02,0.7788461538461514
2019-07-03,0.35454545454545194
2019-07-04,0.17346938775509593
2019-07-05,0.17525773195875843
2019-07-08,0.3846153846153972
2019-07-09,0.31645569620253966
2019-07-10,0.5121951219512261
2019-07-11,0.47368421052632204
2019-07-12,0.685897435897434
2019-07-15,0.3433734939758969
2019-07-16,0.42028985507245636
2019-07-17,0.46666666666666107
2019-07-18,0.5384615384615329
2019-07-19,0.4594594594594612
2019-07-22,1.0
2019-07-23,0.9176470588235359
2019-07-24,0.5520833333333393
2019-07-25,0.6446280991735583
2019-07-26,0.3706293706293714
2019-07-29,0.2436974789915964
2019-07-30,0.27192982456140047
2019-07-31,0.36904761904761163
2019-08-01,0.0845070422535157
2019-08-02,0.5135135135135045
2019-08-05,0.22727272727272507
2019-08-06,0.2272727272727246
2019-08-07,0.33823529411765124
2019-08-08,0.3965517241379368
2019-08-09,0.21276595744681806
2019-08-12,0.47619047619050336
2019-08-13,0.21052631578949157
2019-08-14,0.062499999999995864
2019-08-15,0.3913043478260993
2019-08-16,0.24999999999999817
2019-08-19,0.5765765765765791
2019-08-20,0.7386988570046533
2019-08-21,0.7815307791043162
2019-08-22,0.740836982340944
2019-08-23,0.9835224933086211
2019-08-26,0.9660304280351641
2019-08-27,0.8795602964551689
2019-08-28,0.06640823838050526
2019-08-29,0.5300370693414819
2019-08-30,0.518652159044127
2019-09-02,0.5064935064935202
2019-09-03,0.5443037974683624
2019-09-04,0.9803921568627433
2019-09-05,0.18032786885244403
2019-09-06,0.1641791044775906
2019-09-09,0.14285714285712522
2019-09-10,0.08749999999999043
2019-09-11,0.24742268041236581
2019-09-12,0.42105263157895395
2019-09-16,0.3750000000000087
2019-09-17,0.2696629213483157
2019-09-18,0.4313725490196068
2019-09-19,0.1801801801801804
2019-09-20,0.4533333333333328
2019-09-23,0.539999999999998
2019-09-24,0.6864406779661043
2019-09-25,0.45864661654135386
2019-09-26,0.6213592233009669
2019-09-27,0.23188405797100153
2019-09-30,0.046874999999990535
2019-10-08,0.13636363636363666
2019-10-09,0.4883720930232547
2019-10-10,0.4285714285714336
2019-10-11,0.3396226415094409
2019-10-14,0.4807692307692384
2019-10-15,0.4042553191489367
2019-10-16,0.18421052631579563
2019-10-17,0.43137254901961486
2019-10-18,0.5499999999999914
2019-10-21,0.7352941176470504
2019-10-22,0.7462686567164104
2019-10-23,0.6493506493506435
2019-10-24,0.6666666666666626
2019-10-25,0.8712871287128746
2019-10-28,0.5638297872340569
2019-10-29,0.5463917525773317
2019-10-30,0.7438016528925696
2019-10-31,0.6698113207547222
2019-11-01,0.35922330097087324
2019-11-04,0.5777777777777643
2019-11-05,0.6759259259259163
2019-11-06,0.43902439024388645
2019-11-07,0.3396226415094223
2019-11-08,0.6176470588235237
2019-11-11,0.43636363636363656
2019-11-12,0.26213592233009936
2019-11-13,0.29347826086957207
2019-11-14,0.7196969696969724
2019-11-15,0.5190839694656489
2019-11-18,0.7402597402597377
2019-11-19,0.797202797202795
2019-11-20,0.8313953488372063
2019-11-21,0.5769230769230737
2019-11-22,0.7211538461538476
2019-11-25,0.27358490566037663
2019-11-26,0.2710280373831765
2019-11-27,0.0
2019-11-28,0.0
2019-11-29,0.0
2019-12-02,0.5038759689922464
2019-12-03,0.6202531645569603
2019-12-04,0.8925619834710716
2019-12-05,0.7769784172661882
2019-12-06,0.8260869565217395
2019-12-09,0.4331210191082812
2019-12-10,0.22151898734177167
2019-12-11,0.36923076923076775
2019-12-12,0.5560747663551366
2019-12-13,0.5052083333333275
2019-12-16,0.7638888888888808
2019-12-17,1.0
2019-12-18,1.0
2019-12-19,0.4634046411074575
2019-12-20,0.3796682122940165
2019-12-23,0.45386402973445855
2019-12-24,0.5542328712380962
2019-12-25,0.3383039931459581
2019-12-26,0.4882866030061123
2019-12-27,0.4955320877335485
2019-12-30,0.3507462686567155
2019-12-31,0.08724832214764847
2020-01-02,0.24742268041236662
2020-01-03,0.11956521739130334
2020-01-06,0.3271028037383183
2020-01-07,0.3465346534653421
2020-01-08,0.6481481481481508
2020-01-09,0.6274509803921634
2020-01-10,0.6153846153846021
2020-01-13,0.4871794871794727
2020-01-14,0.5277777777777894
2020-01-15,0.5135135135135158
2020-01-16,0.23913043478260668
2020-01-17,0.33333333333334575
2020-01-20,0.2972972972973222
2020-01-21,0.3750000000000021
2020-01-22,0.6136363636363618
2020-01-23,0.9642857142857075
2020-02-03,0.9940828402366854
2020-02-04,0.9940119760479031
2020-02-05,0.9955752212389373
2020-02-06,0.9954128440366965
2020-02-07,1.0
2020-02-10,0.34893617021276757
2020-02-11,0.2757352941176479
2020-02-12,0.06382978723404381
2020-02-13,0.09465020576131525
2020-02-14,0.0983606557377004
2020-02-17,0.3619047619047509
2020-02-18,0.6617647058823449
2020-02-19,0.5172413793103363
2020-02-20,0.3749999999999946
2020-02-21,0.3150684931506865
2020-02-24,0.5535714285714283
2020-02-25,0.4741379310344828
2020-02-26,0.8020833333333379
2020-02-27,0.7549019607843256
2020-02-28,0.6818181818181935
2020-03-02,0.2222222222222321
2020-03-03,0.2268041237113476
2020-03-04,0.3750000000000005
2020-03-05,0.41284403669724246
2020-03-06,0.44999999999998996
2020-03-09,0.8452380952380726
2020-03-10,0.9545454545454425
2020-03-11,0.3482142857142909
2020-03-12,0.44881889763779853
2020-03-13,0.481203007518805
2020-03-16,0.40517241379311625
2020-03-17,0.33653846153846667
2020-03-18,1.0
2020-03-19,1.0
2020-03-20,1.0
2020-03-23,0.7481481481481469
2020-03-24,0.8274111675126911
2020-03-25,0.6393442622950862
2020-03-26,0.7370517928286895
2020-03-27,0.8303341902313661
2020-03-30,0.9230769230769251
2020-03-31,0.7753623188405813
2020-04-01,0.8787276341948308
2020-04-02,0.7559395248380121
2020-04-03,0.39139784946236383
2020-04-07,0.2874109263657948
2020-04-08,0.33977900552486157
2020-04-09,0.005747126436782577
2020-04-10,0.13529411764705832
2020-04-13,0.27092114801191436
2020-04-14,0.3822488482907212
2020-04-15,0.3686804795395949
2020-04-16,0.9827848101265821
2020-04-17,0.5888277695524854
2020-04-20,0.6037059797723131
2020-04-21,0.5525136744112861
2020-04-22,0.6024261821185234
2020-04-23,0.17178075715106159
2020-04-24,0.3846153846153779
2020-04-27,0.5172413793103378
2020-04-28,0.4195804195804214
2020-04-29,0.32520325203252254
2020-04-30,0.42105263157895423
2020-05-06,0.3617021276595885
2020-05-07,0.008196721311476753
2020-05-08,0.04255319148935626
2020-05-11,0.2105263157894721
2020-05-12,0.36538461538461225
2020-05-13,0.29007633587785764
2020-05-14,0.7647058823529379
2020-05-15,0.6158536585365866
2020-05-18,0.5855263157894735
2020-05-19,0.5
2020-05-20,0.6504065040650431
2020-05-21,0.12173913043478095
2020-05-22,0.43999999999999667
2020-05-25,0.45736434108526747
2020-05-26,0.415492957746476
2020-05-27,0.3913043478260841
2020-05-28,0.599999999999999
2020-05-29,0.1547619047619014
2020-06-01,0.0
2020-06-02,0.0
2020-06-03,0.05454545454545476
2020-06-04,0.34722222222222443
2020-06-05,0.4347826086956552
2020-06-08,0.5813953488372202
2020-06-09,0.7578947368421125
2020-06-10,0.6534653465346618
2020-06-11,0.4696969696969735
2020-06-12,0.7211538461538521
2020-06-15,0.9294117647058836
2020-06-16,0.9220779220779238
2020-06-17,1.0
2020-06-18,0.9030303030303027
2020-06-19,0.6363636363636375
2020-06-22,0.18333333333333743
2020-06-23,0.11034482758620719
2020-06-24,0.0
2020-06-29,0.0
2020-06-30,0.18260869565216983
2020-07-01,0.15328467153284267
2020-07-02,0.25438596491227033
2020-07-03,0.2377049180327767
2020-07-06,0.4666666666666619
2020-07-07,0.4666666666666676
2020-07-08,0.8928571428571422
2020-07-09,0.7419354838709701
2020-07-10,0.8692810457516359
2020-07-13,0.7795275590551155
2020-07-14,0.6393442622950756
2020-07-15,0.33606557377049473
2020-07-16,0.6325301204819306
2020-07-17,0.38095238095238115
2020-07-20,0.41818181818182326
2020-07-21,0.35751295336788014
2020-07-22,0.4759036144578295
2020-07-23,0.10067114093959828
2020-07-24,0.32089552238806235
2020-07-27,0.21348314606741414
2020-07-28,0.3191489361702116
2020-07-29,0.3684210526315797
2020-07-30,0.500000000000002
2020-07-31,0.2372881355932204
2020-08-03,0.6525423728813574
2020-08-04,0.7453416149068343
2020-08-05,0.6111111111111133
2020-08-06,0.6477987421383631
2020-08-07,0.8533333333333329
2020-08-10,0.7523809523809525
2020-08-11,0.29292929292928727
2020-08-12,0.6571428571428575
2020-08-13,0.6153846153846201
2020-08-14,0.45000000000000284
2020-08-17,0.4710144927536261
2020-08-18,0.7867647058823525
2020-08-19,0.3142857142857113
2020-08-20,0.37762237762237566
2020-08-21,0.4215088730834833
2020-08-24,0.26914668792147134
2020-08-25,0.04893775367893291
2020-08-26,0.07221499303229417
2020-08-27,0.0
2020-08-28,0.04080439713836656
2020-08-31,0.4317897433614719
2020-09-01,0.7930841072732864
2020-09-02,0.8240877241411702
2020-09-03,1.0
2020-09-04,1.0
2020-09-07,0.8228571428571412
2020-09-08,0.7011494252873539
2020-09-09,0.7234042553191476
2020-09-10,0.40789473684211236
2020-09-11,0.1656050955414089
2020-09-14,0.19847328244275683
2020-09-15,0.2148760330578609
2020-09-16,0.0
2020-09-17,0.0
2020-09-18,0.20168067226889705
2020-09-21,0.3478260869565155
2020-09-22,0.4275362318840497
2020-09-23,0.7647058823529326
2020-09-24,0.9043478260869547
2020-09-25,0.6722689075630288
2020-09-28,0.6100000000000025
2020-09-29,0.6060606060606119
2020-09-30,0.2272727272727369
2020-10-09,0.44444444444445724
2020-10-12,0.9104477611940286
2020-10-13,0.713414634146338
2020-10-14,0.6294117647058791
2020-10-15,0.5459183673469407
2020-10-16,0.5265957446808537
2020-10-19,0.05357142857143356
2020-10-20,0.19480519480520161
2020-10-21,0.228571428571435
2020-10-22,0.5679012345679008
2020-10-23,0.4636871508379821
2020-10-26,0.6693548387096658
2020-10-27,0.5040650406503951
2020-10-28,0.5080645161290255
2020-10-29,0.028301886792461123
2020-10-30,0.21428571428572737
2020-11-02,0.3033707865168703
2020-11-03,0.4084507042253685
2020-11-04,0.3095238095238125
2020-11-05,0.6190476190475995
2020-11-06,0.22222222222220994
2020-11-09,0.5254237288135333
2020-11-10,0.5757575757575538
2020-11-11,0.8399999999999876
2020-11-12,0.8289473684210499
2020-11-13,0.9855072463768167
2020-11-16,0.9852941176470641
2020-11-17,0.985294117647064
2020-11-18,0.7500000000000089
2020-11-19,0.724137931034488
2020-11-20,0.6607142857142879
2020-11-23,0.10227272727272595
2020-11-24,0.2752293577981656
2020-11-25,0.33333333333333
2020-11-26,0.4272727272727225
2020-11-27,0.6842105263157878
2020-11-30,1.0
2020-12-01,0.8616352201257887
2020-12-02,0.8713450292397692
2020-12-03,0.789473684210529
2020-12-04,0.7791411042944804
2020-12-07,0.8125000000000022
2020-12-08,0.8813559322033865
2020-12-09,0.9004739336492864
2020-12-10,0.9705882352941155
2020-12-11,0.6246435956304212
2020-12-14,0.36255291127368927
2020-12-15,0.42215135370435375
2020-12-16,0.23732762947207445
2020-12-17,0.08182917510553041
2020-12-18,0.1187187417033193
2020-12-21,0.5012145891727041
2020-12-22,0.7052136098533717
2020-12-23,0.8560896133866949
2020-12-24,0.9709677419354851
2020-12-25,0.9176829268292678
2020-12-28,0.7740863787375419
2020-12-29,0.31250000000000155
2020-12-30,0.20224719101123462
2020-12-31,0.009302325581397023
2021-01-04,0.17699115044248007
2021-01-05,0.2368421052631596
2021-01-06,0.8295454545454486
2021-01-07,1.0
2021-01-08,1.0
2021-01-11,1.0
2021-01-12,0.9714285714285706
2021-01-13,0.9694915254237281
2021-01-14,0.5921985815602816
2021-01-15,0.29878048780487376
2021-01-18,0.09999999999999615
2021-01-19,0.09890109890109522
2021-01-20,0.04926108374384138
2021-01-21,0.43870967741935607
2021-01-22,0.242677824267783
2021-01-25,0.28712871287128755
2021-01-26,0.4192139737991283
2021-01-27,0.38866396761133637
2021-01-28,0.15447154471544836
2021-01-29,0.22222222222222382
2021-02-01,0.21348314606741642
2021-02-02,0.0
2021-02-03,0.0930232558139611
2021-02-04,0.5588235294117654
2021-02-05,0.5507246376811548
2021-02-08,0.5714285714285675
2021-02-09,0.7441860465116221
2021-02-10,0.8307692307692247
2021-02-18,0.6853146853146802
2021-02-19,0.7716535433070975
2021-02-22,0.8975903614457933
2021-02-23,0.6323529411764761
2021-02-24,0.3187500000000025
2021-02-25,0.41212121212121344
2021-02-26,0.5779816513761433
2021-03-01,0.6134453781512592
2021-03-02,0.8559322033898299
2021-03-03,1.0
2021-03-04,0.7230769230769244
2021-03-05,0.7508650519031173
2021-03-08,0.581673306772913
2021-03-09,0.5353982300885007
2021-03-10,0.586614173228352
2021-03-11,0.8244680851063866
2021-03-12,0.3063063063063062
2021-03-15,0.2845188284518798
2021-03-16,0.13214285714285598
2021-03-17,0.018808777429465243
2021-03-18,0.024922118380060348
2021-03-19,0.14285714285714177
2021-03-22,0.24867724867725258
2021-03-23,0.3983050847457693
2021-03-24,0.9866666666666773
2021-03-25,0.8461538461538654
2021-03-26,0.41584158415843125
2021-03-29,0.32954545454546713
2021-03-30,0.31182795698925636
2021-03-31,0.024390243902443154
2021-04-01,0.020202020202023673
2021-04-02,0.027397260273977247
2021-04-06,0.0
2021-04-07,0.20833333333332277
2021-04-08,0.21739130434781653
2021-04-09,0.2702702702702575
2021-04-12,0.28169014084506094
2021-04-13,0.19047619047618694
2021-04-14,0.13265306122449524
2021-04-15,0.3113207547169895
2021-04-16,0.6337209302325665
2021-04-19,0.7488840066609816
2021-04-20,0.9031795918061145
2021-04-21,0.780177168284758
2021-04-22,0.6701483449573783
2021-04-23,0.39090512630064383
2021-04-26,0.33061620318190593
2021-04-27,0.6852220932046239
2021-04-28,0.6730543349002538
2021-04-29,0.8251619160852248
2021-04-30,0.8503401360544207
2021-05-06,0.8598726114649669
2021-05-07,0.8239999999999965
2021-05-10,1.0
2021-05-11,0.8721804511278168
2021-05-12,0.8559322033898265
2021-05-13,0.9282700421940915
2021-05-14,0.9372693726937259
2021-05-17,0.7875457875457849
2021-05-18,0.86195286195286
2021-05-19,0.7168141592920331
2021-05-20,0.4016736401673602
2021-05-21,0.17299578059071563
2021-05-24,0.406130268199234
2021-05-25,0.38976377952756014
2021-05-26,0.3897637795275611
2021-05-27,0.2964071856287451
2021-05-28,0.3872053872053897
2021-05-31,0.24793388429752264
2021-06-01,0.0881355932203401
2021-06-02,0.1336032388663982
2021-06-03,0.48214285714285626
2021-06-04,0.3333333333333324
2021-06-07,0.23706896551724013
2021-06-08,0.5108695652173922
2021-06-09,0.5054945054945054
2021-06-10,0.2125603864734307
2021-06-11,0.25882352941176584
2021-06-15,0.3629032258064538
2021-06-16,0.049999999999998344
2021-06-17,0.008064516129033883
2021-06-18,0.01219512195122207
2021-06-21,0.12790697674418586
2021-06-22,0.09433962264150722
2021-06-23,0.1388888888888889
2021-06-24,0.13698630136986067
2021-06-25,0.5294117647058783
2021-06-28,0.3466666666666653
2021-06-29,0.49090909090909396
2021-06-30,0.3139534883720913
2021-07-01,0.7474226804123717
2021-07-02,0.5693779904306254
2021-07-05,0.5776699029126229
2021-07-06,0.5488372093023258
2021-07-07,0.7072072072072078
2021-07-08,0.24840764331210308
2021-07-09,0.4210526315789431
2021-07-12,0.5684931506849298
2021-07-13,0.6369863013698632
2021-07-14,0.7862903225806449
2021-07-15,0.8944954128440374
2021-07-16,0.9080000000000011
2021-07-19,0.8968609865470865
2021-07-20,0.8963963963963978
2021-07-21,0.3169398907103879
2021-07-22,0.30687830687831086
2021-07-23,0.05806451612903503
2021-07-26,0.05769230769231054
2021-07-27,0.0
2021-07-28,0.4536082474226782
2021-07-29,0.4888888888888918
2021-07-30,0.6868686868686916
2021-08-02,0.7142857142857157
2021-08-03,0.7943925233644884
2021-08-04,0.30147058823528794
2021-08-05,0.5602409638554149
2021-08-06,0.3833333333333256
2021-08-09,0.47393364928909604
2021-08-10,0.3879310344827572
2021-08-11,0.6497461928933996
2021-08-12,0.4021164021164047
2021-08-13,0.47798742138365047
2021-08-16,0.2303030303030297
2021-08-17,0.5949367088607622
2021-08-18,0.3956696175312964
2021-08-19,0.5029588498938768
2021-08-20,0.5270052979272106
2021-08-23,0.6980935247304556
2021-08-24,0.5530486023000855
2021-08-25,0.8543277953172095
2021-08-26,0.6754524584912682
2021-08-27,0.7455421424505213
2021-08-30,0.7725079287859384
2021-08-31,0.43870967741936
2021-09-01,0.6145833333333371
2021-09-02,0.802120141342758
2021-09-03,0.8000000000000022
2021-09-06,0.6085526315789468
2021-09-07,0.6928838951310845
2021-09-08,0.5869565217391286
2021-09-09,0.15294117647058889
2021-09-10,0.22162162162162402
2021-09-13,0.6179245283018893
2021-09-14,0.7940199335548194
2021-09-15,0.8759493670886086
2021-09-16,1.0
2021-09-17,0.999999999999998
2021-09-22,0.8348457350272214
2021-09-23,0.8236434108527113
2021-09-24,0.9130850047755484
2021-09-27,0.8788627935723127
2021-09-28,0.910174152153989
2021-09-29,0.996441281138791
2021-09-30,0.9965466206216093
2021-10-08,0.7785915492957752
2021-10-11,0.7929184549356219
2021-10-12,0.7337423312883432
2021-10-13,0.2138188608776827
2021-10-14,0.09736308316429826
2021-10-15,0.14035087719298012
2021-10-18,0.0
2021-10-19,0.29077117572692807
2021-10-20,0.26963657678780834
2021-10-21,0.5627376425855523
2021-10-22,0.6164062500000003
2021-10-25,0.6367851622874806
2021-10-26,0.46333853354134147
2021-10-27,0.7943396226415094
2021-10-28,0.4617524339360228
2021-10-29,0.33491124260355115
2021-11-01,0.24101068999028197
2021-11-02,0.3020706455542022
2021-11-03,0.0
2021-11-04,0.0
2021-11-05,0.009900990099009103
2021-11-08,0.01158301158301067
2021-11-09,0.008687258687258012
2021-11-10,0.009483667017912858
2021-11-11,0.018367346938774152
2021-11-12,0.0
2021-11-15,0.20120120120120105
2021-11-16,0.3457711442786057
2021-11-17,0.3937677053824346
2021-11-18,0.33413461538461375
2021-11-19,0.4911660777385154
2021-11-22,0.014836795252223601
2021-11-23,0.35658914728682223
2021-11-24,0.38016528925619875
2021-11-25,0.47474747474747614
2021-11-26,0.6050583657587539
2021-11-29,0.965197215777261
2021-11-30,0.5190156599552559
2021-12-01,0.5824634655532359
2021-12-02,0.5824634655532356
2021-12-03,0.3277310924369751
2021-12-06,0.22141119221411373
2021-12-07,0.42129629629629994
2021-12-08,0.28571428571428414
2021-12-09,0.2299999999999982
2021-12-10,0.46938775510203956
2021-12-13,0.040268456375833574
2021-12-14,0.03896103896103369
2021-12-15,0.0
2021-12-16,0.0
2021-12-17,0.0
2021-12-20,0.4909090909090966
2021-12-21,0.4537815126050423
2021-12-22,0.6304487448828896
2021-12-23,0.7899455377079557
2021-12-24,0.8897152281595607
2021-12-27,0.4095080172262135
2021-12-28,0.49164546233934875
2021-12-29,0.3144336877700851
2021-12-30,0.3994330611283783
2021-12-31,0.2331155751204626
2022-01-04,0.7095989583722354
2022-01-05,0.4773662551440333
2022-01-06,0.5272727272727294
2022-01-07,0.44680851063829974
2022-01-10,0.4615384615384586
2022-01-11,0.011049723756907324
2022-01-12,0.26530612244898294
2022-01-13,0.39490445859872103
2022-01-14,0.34090909090908494
2022-01-17,0.6445993031358879
2022-01-18,0.7905982905982909
2022-01-19,0.7850877192982453
2022-01-20,0.5200000000000015
2022-01-21,0.7152777777777797
2022-01-24,0.41348314606741604
2022-01-25,0.4491725768321506
2022-01-26,0.3630136986301367
2022-01-27,0.4504249291784699
2022-01-28,0.024489795918366027
2022-02-07,0.1293103448275884
2022-02-08,0.22900763358779155
2022-02-09,0.521739130434785
2022-02-10,0.5454545454545485
2022-02-11,0.9285714285714344
2022-02-14,0.8484848484848524
2022-02-15,0.47945205479450803
2022-02-16,0.0724637681159357
2022-02-17,0.2891566265060191
2022-02-18,0.12258064516129046
2022-02-21,0.20121951219512452
2022-02-22,0.3602484472049761
2022-02-23,0.5276073619631946
2022-02-24,0.5625000000000036
2022-02-25,1.0
2022-02-28,1.0
2022-03-01,1.0
2022-03-02,0.9803921568627461
2022-03-03,0.7515923566879017
2022-03-04,0.3071895424836582
2022-03-07,0.20895522388059737
2022-03-08,0.4903846153846181
2022-03-09,0.4788732394366212
2022-03-10,0.735915492957744
2022-03-11,0.8260869565217402
2022-03-14,0.6563573883161506
2022-03-15,0.4533898305084737
2022-03-16,0.5120967741935496
2022-03-17,0.08968609865471101
2022-03-18,0.16080402010050393
2022-03-21,0.18497109826589675
2022-03-22,0.13675213675213724
2022-03-23,0.045627376425854425
2022-03-24,0.05825242718446453
2022-03-25,0.09345794392523112
2022-03-28,0.1758793969849246
2022-03-29,0.3097345132743341
2022-03-30,0.6947368421052609
2022-03-31,0.9041095890410997
2022-04-01,0.35937500000000666
2022-04-06,0.40579710144927766
2022-04-07,0.6138613861386177
2022-04-08,0.6138613861386168
2022-04-11,0.7115384615384627
2022-04-12,1.0
2022-04-13,0.7378277153558064
2022-04-14,0.5758928571428568
2022-04-15,0.42982456140350855
2022-04-18,0.37313646369497916
2022-04-19,0.4040734066328112
2022-04-20,0.6263338470648033
2022-04-21,0.5646983545233588
2022-04-22,0.6035481168839066
2022-04-25,0.4848212360714545
2022-04-26,0.10226064975727482
2022-04-27,0.05195304205384891
2022-04-28,0.07159179578641585
2022-04-29,0.15189873417720834
2022-05-05,0.057803468208091034
2022-05-06,0.33766233766233456
2022-05-09,0.33766233766233916
2022-05-10,0.5175879396984957
2022-05-11,0.5247524752475267
2022-05-12,1.0
2022-05-13,0.886178861788618
2022-05-16,0.7999999999999938
2022-05-17,0.4999999999999929
2022-05-18,0.3947368421052597
2022-05-19,0.0
2022-05-20,0.0
2022-05-23,0.2087912087912095
2022-05-24,0.21348314606741683
2022-05-25,0.24848484848484936
2022-05-26,0.590062111801249
2022-05-27,0.8580246913580273
2022-05-30,0.6516129032258078
2022-05-31,0.7426470588235213
2022-06-01,0.7712418300653521
2022-06-02,0.48120300751878897
2022-06-06,0.1709401709401685
2022-06-07,0.2325581395348797
2022-06-08,0.2439024390243944
2022-06-09,6.431689054761752e-15
2022-06-10,0.11538461538462273
2022-06-13,0.839285714285713
2022-06-14,0.8407079646017684
2022-06-15,0.853658536585364
2022-06-16,1.0
2022-06-17,0.8355263157894705
2022-06-20,0.34210526315789
2022-06-21,0.3064516129032236
2022-06-22,0.4068965517241376
2022-06-23,0.22962962962963263
2022-06-24,0.30088495575221996
2022-06-27,0.6329113924050715
2022-06-28,0.8105263157894771
2022-06-29,0.4693877551020412
2022-06-30,0.5542168674698782
2022-07-01,0.6696428571428564
2022-07-04,0.6300000000000002
2022-07-05,0.3396226415094361
2022-07-06,0.772151898734178
2022-07-07,0.7950310559006222
2022-07-08,0.7007299270072966
2022-07-11,0.6666666666666665
2022-07-12,0.9248554913294788
2022-07-13,0.5323741007194238
2022-07-14,0.5112781954887197
2022-07-15,0.6524390243902433
2022-07-18,0.5572916666666629
2022-07-19,0.3971631205673715
2022-07-20,0.6333333333333282
2022-07-21,0.5044247787610591
2022-07-22,0.14754098360655937
2022-07-25,0.6011235955056212
2022-07-26,0.4477611940298527
2022-07-27,0.5413223140495859
2022-07-28,0.6190476190476178
2022-07-29,0.8067632850241524
2022-08-01,0.3482142857142831
2022-08-02,0.352941176470588
2022-08-03,0.14400000000000152
2022-08-04,0.24113475177305252
2022-08-05,0.1611721611721624
2022-08-08,0.24309392265193558
2022-08-09,0.4082840236686394
2022-08-10,0.6764705882352942
2022-08-11,0.22522522522522537
2022-08-12,0.18656716417910624
2022-08-15,0.39102564102564197
2022-08-16,0.20571428571428407
2022-08-17,0.43514644351464216
2022-08-18,0.6186046511627884
2022-08-19,0.7884615384615352
2022-08-22,0.78217821782178
2022-08-23,1.0
2022-08-24,0.7927013474412389
2022-08-25,0.7662938981061655
2022-08-26,0.6019787813219764
2022-08-29,0.632785270068593
2022-08-30,0.32654277648572855
2022-08-31,0.3499108559785261
2022-09-01,0.39023193503393744
2022-09-02,0.5882251813219316
2022-09-05,0.24444444444444882
2022-09-06,0.2763819095477427
2022-09-07,0.3979057591623077
2022-09-08,0.27699530516432047
2022-09-09,0.38399999999999945
2022-09-13,0.6233766233766241
2022-09-14,0.7514124293785313
2022-09-15,0.745664739884392
2022-09-16,0.8835616438356193
2022-09-19,0.32530120481927516
2022-09-20,0.3395061728395038
2022-09-21,0.12499999999999857
2022-09-22,0.006993006993007825
2022-09-23,0.007633587786260451
2022-09-26,0.30000000000000465
2022-09-27,0.42622950819672223
2022-09-28,0.6666666666666702
2022-09-29,0.4848484848484678
2022-09-30,0.3999999999999861
2022-10-10,0.18556701030927178
2022-10-11,0.352459016393443
2022-10-12,0.28682170542635615
2022-10-13,0.608108108108109
2022-10-14,0.6965517241379316
2022-10-17,0.9057971014492727
2022-10-18,0.5569620253164523
2022-10-19,0.6627218934911219
2022-10-20,0.44360902255638784
2022-10-21,0.4637681159420245
2022-10-24,0.29411764705882354
2022-10-25,0.5666666666666755
2022-10-26,0.3375000000000046
2022-10-27,0.3802816901408484
2022-10-28,0.1864406779661067
2022-10-31,0.6231884057970967
2022-11-01,0.5245901639344164
2022-11-02,0.7272727272727246
2022-11-03,0.9489051094890483
2022-11-04,0.9802631578947343
2022-11-07,0.7358490566037702
2022-11-08,0.6724137931034462
2022-11-09,0.5317073170731685
2022-11-10,0.09313725490196247
2022-11-11,0.0
2022-11-14,0.20618556701031307
2022-11-15,0.26881720430108025
2022-11-16,0.36601307189543286
2022-11-17,0.8358208955223821
2022-11-18,0.6746987951807234
2022-11-21,0.4489795918367295
2022-11-22,0.7378640776698977
2022-11-23,0.6862745098039036
2022-11-24,0.8176100628930715
2022-11-25,0.955882352941164
2022-11-28,0.6888888888888837
2022-11-29,0.368098159509201
2022-11-30,0.4400000000000018
2022-12-01,0.08292682926829219
2022-12-02,0.1179245283018881
2022-12-05,0.34761904761904766
2022-12-06,0.44785276073619706
2022-12-07,0.4117647058823574
2022-12-08,1.0
2022-12-09,1.0
2022-12-12,0.7108433734939807
2022-12-13,0.5899999999999999
2022-12-14,0.7248322147650976
2022-12-15,0.625954198473285
2022-12-16,0.6370370370370423
2022-12-19,0.8687858501984519
2022-12-20,0.9566964783039704
2022-12-21,0.6879965120125174
2022-12-22,0.8159292660479963
2022-12-23,0.6798026366385074
2022-12-26,0.4223275288022097
2022-12-27,0.35562241460467503
2022-12-28,0.43578218200762925
2022-12-29,0.0
2022-12-30,0.0
2023-01-03,0.0
2023-01-04,0.2790697674418602
2023-01-05,0.26086956521739707
2023-01-06,0.21052631578947895
2023-01-09,0.4245283018868037
2023-01-10,0.36585365853659474
2023-01-11,0.1891891891891963
2023-01-12,0.18584070796460328
2023-01-13,0.2386363636363634
2023-01-16,0.0945945945945844
2023-01-17,0.699999999999989
2023-01-18,0.7699999999999879
2023-01-19,0.8737864077669916
2023-01-20,0.9813084112149548
2023-01-30,0.9840000000000014
2023-01-31,0.6385542168674764
2023-02-01,0.7985611510791412
2023-02-02,0.6712328767123363
2023-02-03,0.47428571428571953
2023-02-06,0.27884615384615646
2023-02-07,0.25327510917030693
2023-02-08,0.0
2023-02-09,0.17226890756301877
2023-02-10,0.294930875576034
2023-02-13,0.39751552795030715
2023-02-14,0.6734693877550967
2023-02-15,0.9809523809523826
2023-02-16,0.9393939393939529
2023-02-17,0.9200000000000147
2023-02-20,0.9591836734694014
2023-02-21,0.4137931034482988
2023-02-22,0.18604651162791527
2023-02-23,0.11594202898551095
2023-02-24,0.1643835616438516
2023-02-27,0.3222222222222212
2023-02-28,0.27619047619047493
2023-03-01,0.5503875968992297
2023-03-02,0.5680000000000077
2023-03-03,0.35928143712575117
2023-03-06,0.25766871165644795
2023-03-07,0.31578947368421734
2023-03-08,0.0
2023-03-09,0.21088435374148815
2023-03-10,0.5153846153846083
2023-03-13,0.5811965811965725
2023-03-14,0.6370370370370281
2023-03-15,1.0
2023-03-16,0.7999999999999986
2023-03-17,0.4878048780487749
2023-03-20,0.4042553191489252
2023-03-21,0.02325581395347568
2023-03-22,0.28813559322034843
2023-03-23,0.32692307692308714
2023-03-24,0.5333333333333307
2023-03-27,0.5517241379310347
2023-03-28,0.6666666666666702
2023-03-29,0.7948717948717965
2023-03-30,0.8732394366197199
2023-03-31,0.43119266055046174
2023-04-03,0.47706422018349265
2023-04-04,0.4859813084112186
2023-04-06,0.04310344827586644
2023-04-07,0.04000000000000401
2023-04-10,0.220930232558135
2023-04-11,0.2471910112359441
2023-04-12,0.4247787610619402
2023-04-13,0.7272727272727254
2023-04-14,0.8882293163261749
2023-04-17,0.8930328487348496
2023-04-18,0.9243858842271486
2023-04-19,0.9096381958235743
2023-04-20,0.9821666182341019
2023-04-21,0.9858447045112452
2023-04-24,0.8160546634714726
2023-04-25,0.490279163788033
2023-04-26,0.380172663040536
2023-04-27,0.6590909090909102
2023-04-28,0.4170212765957446
2023-05-04,0.5104602510460259
2023-05-05,0.6258835363723256
2023-05-08,0.7369815097871278
2023-05-09,0.3289145571727683
2023-05-10,0.47672922639554316
2023-05-11,0.3584011183257477
2023-05-12,0.23895199208696882
2023-05-15,0.04824251512835714
2023-05-16,0.307800682762952
2023-05-17,0.2248096019603298
2023-05-18,0.250000000000005
2023-05-19,0.32894736842105615
2023-05-22,0.6151642660624643
2023-05-23,0.19052107264645965
2023-05-24,0.33872228266699084
2023-05-25,0.30264734273059724
2023-05-26,0.6659478429137841
2023-05-29,0.6014245309828806
2023-05-30,0.6543994581355834
2023-05-31,0.6982489672077821
2023-06-01,0.7137631638893208
2023-06-02,0.3939393939393838
2023-06-05,0.4857142857142838
2023-06-06,0.8139534883720883
2023-06-07,0.8367346938775483
2023-06-08,0.9836065573770469
2023-06-09,0.8219178082191839
2023-06-12,0.8142857142857179
2023-06-13,0.6190476190476238
2023-06-14,0.3174603174603198
2023-06-15,0.016129032258059825
2023-06-16,0.016666666666661785
2023-06-19,0.0
2023-06-20,0.3599999999999999
2023-06-21,0.4821428571428545
2023-06-26,0.8166666666666679
2023-06-27,0.9800000000000154
2023-06-28,0.710144927536237
2023-06-29,0.2528735632183927
2023-06-30,0.3925233644859844
2023-07-03,0.21455842193175642
2023-07-04,0.2635470618628058
2023-07-05,0.414210801950626
2023-07-06,0.7172755753421216
2023-07-07,0.7408045263379324
2023-07-10,0.8649802062583377
2023-07-11,0.9021512204258508
2023-07-12,0.7454430616636971
2023-07-13,0.8928151377905411
2023-07-14,0.4275362318840553
2023-07-17,0.543352601156069
2023-07-18,0.397727272727271
2023-07-19,0.5151515151515147
2023-07-20,0.3602150537634449
2023-07-21,0.6212121212121274
2023-07-24,0.333333333333339
2023-07-25,0.39166666666667405
2023-07-26,0.12096774193548741
2023-07-27,0.18867924528303173
2023-07-28,0.1313131313131467
2023-07-31,0.22033898305086902
2023-08-01,0.21666666666668613
2023-08-02,0.9119999999999966
2023-08-03,0.9185185185185138
2023-08-04,0.8923076923076825
2023-08-07,0.935064935064928
2023-08-08,0.9810126582278439
2023-08-09,0.4218749999999938
2023-08-10,0.2785714285714273
2023-08-11,0.2565789473684198
2023-08-14,0.3273809523809521
2023-08-15,0.2699386503067457
2023-08-16,0.3826086956521691
2023-08-17,0.5643564356435602
2023-08-18,0.7264150943396227
2023-08-21,0.3367346938775561
2023-08-22,0.34375000000000383
2023-08-23,0.5061728395061791
2023-08-24,0.4057971014492838
2023-08-25,0.10526315789474426
2023-08-28,0.1860465116279195
2023-08-29,0.29545454545458344
2023-08-30,0.10416666666669185
2023-08-31,0.40000000000001634
2023-09-01,0.7500000000000037
2023-09-04,0.6000000000000012
2023-09-05,0.5555555555555429
2023-09-06,0.6349206349206266
2023-09-07,0.6406249999999893
2023-09-08,0.7444444444444335
2023-09-11,0.9425287356321755
2023-09-12,0.9687500000000032
2023-09-13,1.0
2023-09-14,0.7777777777777757
2023-09-15,0.5421686746987943
2023-09-18,0.4411764705882354
2023-09-19,0.5432692307692294
2023-09-20,0.2634408602150538
2023-09-21,0.41764705882353076
2023-09-22,0.6611111111111109
2023-09-25,0.7931034482758622
2023-09-26,0.717948717948717
2023-09-27,0.9747218713774003
2023-09-28,0.920439989427234
2023-10-09,0.5781609195402244
2023-10-10,0.0
2023-10-11,0.0
2023-10-12,0.052996845425879756
2023-10-13,0.04184795243947958
2023-10-16,0.039789683103604506
2023-10-17,0.039738858927059396
2023-10-18,0.04854368932039891
2023-10-19,0.0
2023-10-20,0.07446808510638812
2023-10-23,0.09589041095890959
2023-10-24,0.10769230769231829
2023-10-25,0.3214285714285832
2023-10-26,0.5000000000000312
2023-10-27,0.6200000000000168
2023-10-30,0.7408360761808549
2023-10-31,1.0
2023-11-01,0.9901591787228108
2023-11-02,0.9913545934901224
2023-11-03,0.7313619690273669
2023-11-06,0.8235477929083556
2023-11-07,0.6614746830893122
2023-11-08,0.771209382522725
2023-11-09,0.7324686522532746
2023-11-10,0.7966101694915244
2023-11-13,0.8208955223880526
2023-11-14,0.6111111111111052
2023-11-15,0.46478873239435226
2023-11-16,0.412499999999991
2023-11-17,0.5876288659793776
2023-11-20,0.2580645161290379
2023-11-21,0.5434782608695742
2023-11-22,0.5000000000000093
2023-11-23,0.5319148936170361
2023-11-24,0.2549019607843237
2023-11-27,0.26000000000000867
2023-11-28,0.0
2023-11-29,0.0
2023-11-30,0.0
2023-12-01,0.11538461538461159
2023-12-04,0.4399999999999928
2023-12-05,0.8571428571428531
2023-12-06,0.8076923076923
2023-12-07,0.8529411764705853
2023-12-08,0.8780487804878029
2023-12-11,0.6999999999999962
2023-12-12,0.33000000000000185
2023-12-13,0.5517241379310365
2023-12-14,0.535087719298245
2023-12-15,0.26050420168067145
2023-12-18,0.3679245283018883
2023-12-19,0.5263157894736792
2023-12-20,0.1475409836065527
2023-12-21,0.3199999999999991
2023-12-22,0.6521739130434724
2023-12-25,0.36666666666665115
2023-12-26,0.5777777777777682
2023-12-27,0.772897252871613
2023-12-28,0.7576256596429418
2023-12-29,0.7814109055202612
2024-01-02,1.0
2024-01-03,0.6370373307285723
2024-01-04,0.40254200741747226
2024-01-05,0.24843450479234577
2024-01-08,0.06808063113167512
2024-01-09,0.0
2024-01-10,0.0
2024-01-11,0.0
2024-01-12,0.0
2024-01-15,0.0
2024-01-16,0.0
2024-01-17,0.36206896551725076
2024-01-18,0.6341463414634124
2024-01-19,0.7045454545454571
2024-01-22,0.8936170212765995
2024-01-23,1.0
2024-01-24,0.7068965517241408
2024-01-25,0.6851851851851948
2024-01-26,0.7638888888888945
2024-01-29,0.6567164179104495
2024-01-30,0.510638297872336
2024-01-31,0.9045585313046705
2024-02-01,0.9266045281067917
2024-02-02,0.6607988165680314
2024-02-05,0.636501353651844
2024-02-06,0.5176003512751953
2024-02-07,0.19311493815758568
2024-02-08,0.0
2024-02-19,0.0
2024-02-20,0.16156338079725707
2024-02-21,0.5
2024-02-22,0.8837209302325556
2024-02-23,0.52054794520548
2024-02-26,0.5205479452054833
2024-02-27,0.38028169014084023
2024-02-28,0.0
2024-02-29,0.09230769230769635
2024-03-01,0.17647058823530398
2024-03-04,0.5192307692307613
2024-03-05,0.5510204081632638
2024-03-06,0.7105263157894769
2024-03-07,0.5384615384615486
2024-03-08,0.46666666666666873
2024-03-11,0.0
2024-03-12,0.0999999999999859
2024-03-13,0.18421052631577065
2024-03-14,0.414634146341446
2024-03-15,0.6949152542372846
2024-03-18,1.0
2024-03-19,1.0
2024-03-20,0.9038461538461455
2024-03-21,0.7708333333333205
2024-03-22,0.6071428571428567
2024-03-25,0.40624999999999667
2024-03-26,0.5777777777777611
2024-03-27,0.6956521739130364
2024-03-28,0.8545454545454544
2024-03-29,0.6935483870967796
2024-04-01,0.8307692307692346
2024-04-02,0.43243243243243434
2024-04-03,0.3823529411764673
2024-04-08,0.33333333333332343
2024-04-09,0.5156249999999895
2024-04-10,0.34920634920634724
2024-04-11,0.7348446513510956
2024-04-12,0.8611626304912396
2024-04-15,0.6474304170228966
2024-04-16,0.49025291010238553
2024-04-17,0.6108240157850224
2024-04-18,0.6845872677429118
2024-04-19,0.35529383867525094
2024-04-22,0.7276126467247271
2024-04-23,0.8215420861950172
2024-04-24,0.9164420485175208
2024-04-25,0.9221105527638196
2024-04-26,1.0
2024-04-29,1.0
2024-04-30,1.0
2024-05-06,0.6969696969696978
2024-05-07,0.5941644562334227
2024-05-08,0.5016286644951159
2024-05-09,0.2607449856733527
2024-05-10,0.33160621761657827
2024-05-13,0.6166666666666649
2024-05-14,0.8369565217391289
2024-05-15,0.8660714285714276
2024-05-16,1.0
2024-05-17,0.8937329700272483
2024-05-20,0.8944519621109609
2024-05-21,0.6852589641434281
2024-05-22,0.330275229357799
2024-05-23,0.2581300813008132
2024-05-24,0.35505617977528087
2024-05-27,0.11943319838056662
2024-05-28,0.11411992263056056
2024-05-29,0.33421750663129923
2024-05-30,0.2707182320441983
2024-05-31,0.2686980609418271
2024-06-03,0.6732394366197176
2024-06-04,0.9542253521126766
2024-06-05,0.7816091954022977
2024-06-06,0.7391304347826081
2024-06-07,0.5838926174496667
2024-06-11,0.08767123287671348
2024-06-12,0.0
2024-06-13,0.3699421965317928
2024-06-14,0.40000000000000024
2024-06-17,0.40963855421686673
2024-06-18,0.6737967914438484
2024-06-19,0.918735891647855
2024-06-20,0.33407079646017646
2024-06-21,0.2789256198347109
2024-06-24,0.28846153846153866
2024-06-25,0.06430155210643163
2024-06-26,0.0
2024-06-27,0.21890547263681692
2024-06-28,0.35882352941176426
2024-07-01,0.3812500000000008
2024-07-02,0.5980392156862787
2024-07-03,0.5213675213675236
2024-07-04,0.1297709923664089
2024-07-05,0.0
2024-07-08,0.2731481481481478
2024-07-09,0.47499999999999903
2024-07-10,0.6021505376344077
2024-07-11,0.6268656716417962
2024-07-12,0.7533540982414526
2024-07-15,0.5187645351828647
2024-07-16,0.21142588665540887
2024-07-17,0.05476731059501123
2024-07-18,0.07666747474747061
2024-07-19,0.36871190667645354
2024-07-22,0.3943866332264623
2024-07-23,0.8015241297482024
2024-07-24,0.5090968121785086
2024-07-25,0.5783582089552249
2024-07-26,0.3703703703703704
2024-07-29,0.5071090047393357
2024-07-30,0.5666666666666675
2024-07-31,0.6732673267326705
2024-08-01,0.5950920245398749
2024-08-02,0.5606936416184943
2024-08-05,0.388888888888889
2024-08-06,3.652096675199196e-15
2024-08-07,5.017366460320391e-15
2024-08-08,0.044642857142855555
2024-08-09,0.4558823529411777
2024-08-12,0.6551724137931043
2024-08-13,0.7037037037037008
2024-08-14,0.7883211678832102
2024-08-15,0.6866666666666633
2024-08-16,0.6115702479338785
2024-08-19,0.5504587155963214
2024-08-20,0.5172413793103351
2024-08-21,0.22764227642275828
2024-08-22,0.24778761061946672
2024-08-23,0.0
2024-08-26,0.0
2024-08-27,0.0297029702970319
2024-08-28,0.11299435028249367
2024-08-29,0.10362694300518686
2024-08-30,0.40000000000000274
2024-09-02,0.5789473684210383
2024-09-03,0.380281690140833
2024-09-04,0.25423728813556645
2024-09-05,0.3333333333333078
2024-09-06,0.21052631578946168
2024-09-09,0.06976744186046974
2024-09-10,0.600000000000012
2024-09-11,0.4745762711864556
2024-09-12,0.6612903225806634
2024-09-13,0.8018867924528407
2024-09-18,0.8942307692307726
2024-09-19,0.9153846153846178
2024-09-20,1.0
2024-09-23,0.9000000000000032
2024-09-24,0.692307692307694
2024-09-25,0.7452229299363077
2024-09-26,0.365714285714288
2024-09-27,0.2023121387283254
2024-09-30,0.41148325358851684
2024-10-08,0.7351351351351355
2024-10-09,0.6657303370786513
2024-10-10,0.8383838383838366
2024-10-11,0.9087591240875924
2024-10-14,0.767441860465118
2024-10-15,0.04123711340206098
2024-10-16,0.042857142857141976
2024-10-17,0.1804281345565758
2024-10-18,0.2000000000000003
2024-10-21,0.2075471698113209
2024-10-22,0.6600000000000062
2024-10-23,0.5593220338983115
2024-10-24,0.04545454545454531
2024-10-25,0.2499999999999976
2024-10-28,0.40952380952380657
2024-10-29,0.48962655601659166
2024-10-30,0.5833333333333255
2024-10-31,1.0
2024-11-01,0.8347107438016524
2024-11-04,0.8400000000000012
2024-11-05,0.6403508771929867
2024-11-06,0.601941747572829
2024-11-07,0.7071428571428607
2024-11-08,0.8500000000000021
2024-11-11,0.5416666666666731
2024-11-12,0.61904761904763
2024-11-13,0.5606060606060655
2024-11-14,0.16666666666667135
2024-11-15,0.0
2024-11-18,0.0
2024-11-19,0.04255319148935392
2024-11-20,0.04347826086955718
2024-11-21,0.05607476635512926
2024-11-22,0.09999999999998205
2024-11-25,0.6122448979591647
2024-11-26,0.4528301886792281
2024-11-27,0.6140350877192889
2024-11-28,0.6730769230769302
2024-11-29,0.5223880597014792
2024-12-02,0.19642857142857495
2024-12-03,0.5679012345679088
2024-12-04,0.5569620253164598
2024-12-05,0.5789473684210589
2024-12-06,0.8072289156626702
2024-12-09,0.9600000000000102
2024-12-10,0.8409090909091087
2024-12-11,0.4242424242424325
2024-12-12,0.41176470588235664
2024-12-13,0.0862068965517156
2024-12-16,0.0
2024-12-17,0.0
2024-12-18,0.24369768317721685
2024-12-19,0.2685031863113994
2024-12-20,0.2650871744696847
2024-12-23,0.2964922791354777
2024-12-24,0.553475692380196
2024-12-25,0.11033323463958633
2024-12-26,0.23825995935707459
2024-12-27,0.25607435565028325
2024-12-30,0.42214497765740366
2024-12-31,0.36231884057971064
