date,FCT_Demark_Atr_Dfive
2015-03-27,
2015-03-30,
2015-03-31,
2015-04-01,
2015-04-02,
2015-04-03,
2015-04-07,
2015-04-08,
2015-04-09,
2015-04-10,0.011428571428571429
2015-04-13,0.0
2015-04-14,0.03727714748784441
2015-04-15,0.06235011990407674
2015-04-16,0.17627118644067796
2015-04-17,0.6265060240963856
2015-04-20,0.40625
2015-04-21,0.20567375886524822
2015-04-22,0.09386281588447654
2015-04-23,0.0
2015-04-24,0.15027322404371585
2015-04-27,0.5202312138728323
2015-04-28,0.6473509933774835
2015-04-29,0.9023746701846965
2015-04-30,1.0
2015-05-04,1.0
2015-05-05,0.9599627560521415
2015-05-06,0.9574678536102869
2015-05-07,0.9428950863213812
2015-05-08,0.5034642032332564
2015-05-11,0.29430379746835444
2015-05-12,0.4782608695652174
2015-05-13,0.2899728997289973
2015-05-14,0.36561743341404357
2015-05-15,0.3691931540342298
2015-05-18,0.2563667232597623
2015-05-19,0.12680577849117175
2015-05-20,0.25363489499192243
2015-05-21,0.0967741935483871
2015-05-22,0.4726930320150659
2015-05-25,0.6172839506172839
2015-05-26,0.6557377049180327
2015-05-27,0.5199203187250996
2015-05-28,0.6428571428571429
2015-05-29,0.13875270230184594
2015-06-01,0.0
2015-06-02,0.1643764395077062
2015-06-03,0.2227371804698971
2015-06-04,0.32965865254518545
2015-06-05,0.4039737619181135
2015-06-08,0.5881544203048484
2015-06-09,0.2851237840091828
2015-06-10,0.23332885600763204
2015-06-11,0.11857142857142729
2015-06-12,0.4380053908355767
2015-06-15,0.3279132791327904
2015-06-16,0.546142208774587
2015-06-17,0.6553945249597439
2015-06-18,0.8400809716599233
2015-06-19,0.37445887445887793
2015-06-23,0.424019607843137
2015-06-24,0.12705882352941109
2015-06-25,0.01985111662531145
2015-06-26,0.22851562499999895
2015-06-29,0.6605504587155908
2015-06-30,0.735537190082641
2015-07-01,0.9638554216867452
2015-07-02,1.0
2015-07-03,1.0
2015-07-06,0.9786729857819891
2015-07-07,0.9804347826086943
2015-07-08,0.4942084942084937
2015-07-09,0.7953124999999996
2015-07-10,0.7651217596229382
2015-07-13,0.7406844106463892
2015-07-14,0.649122807017545
2015-07-15,0.8357142857142869
2015-07-16,0.1787610619469022
2015-07-17,0.16819317235636924
2015-07-20,0.14574314574314517
2015-07-21,0.19561933534743184
2015-07-22,0.09592529711375289
2015-07-23,0.1805111821086277
2015-07-24,0.32724252491694394
2015-07-27,0.6464435146443512
2015-07-28,0.5442764578833673
2015-07-29,0.3402777777777756
2015-07-30,0.48157248157247856
2015-07-31,0.28498727735368773
2015-08-03,0.1971428571428563
2015-08-04,0.17557251908396945
2015-08-05,0.2887029288702941
2015-08-06,0.21766561514195706
2015-08-07,0.2705882352941191
2015-08-10,0.0
2015-08-11,0.3308823529411816
2015-08-12,0.5662337662337701
2015-08-13,0.7581521739130449
2015-08-14,0.7768595041322339
2015-08-17,0.6931124477782468
2015-08-18,0.5718243620280444
2015-08-19,0.18030853600299607
2015-08-20,0.09679871148797389
2015-08-21,0.09365416541442027
2015-08-24,0.6111146199808682
2015-08-25,0.7370945526225879
2015-08-26,1.0
2015-08-27,1.0
2015-08-28,1.0
2015-08-31,0.8183908045976995
2015-09-01,0.41176470588235403
2015-09-02,0.25925925925926
2015-09-07,0.20745542949756848
2015-09-08,0.0
2015-09-09,0.0
2015-09-10,0.009118541033436397
2015-09-11,0.13553113553113724
2015-09-14,0.44782608695652387
2015-09-15,0.5597826086956533
2015-09-16,0.6866666666666741
2015-09-17,0.4901960784313731
2015-09-18,0.2750000000000004
2015-09-21,0.1030927835051576
2015-09-22,0.11976047904191817
2015-09-23,0.07142857142857333
2015-09-24,0.08163265306122781
2015-09-25,0.3049327354260129
2015-09-28,0.14457831325301246
2015-09-29,0.339108910891093
2015-09-30,0.5113268608414294
2015-10-08,0.6079027355623119
2015-10-09,0.6485013623978222
2015-10-12,1.0
2015-10-13,0.8899082568807328
2015-10-14,0.815709969788515
2015-10-15,0.8069620253164498
2015-10-16,0.4956011730205205
2015-10-19,0.11020408163264665
2015-10-20,0.11203319502074029
2015-10-21,0.11842105263157282
2015-10-22,0.16249999999999815
2015-10-23,0.4736842105263144
2015-10-26,0.642857142857145
2015-10-27,0.6923076923077065
2015-10-28,0.764150943396237
2015-10-29,0.3206106870229064
2015-10-30,0.47337278106509123
2015-11-02,0.3508771929824537
2015-11-03,0.4047619047618969
2015-11-04,0.453744493392067
2015-11-05,0.7665369649805409
2015-11-06,0.4254545454545463
2015-11-09,0.6315789473684256
2015-11-10,0.7065868263473112
2015-11-11,0.683385579937311
2015-11-12,0.38271604938272197
2015-11-13,0.5732217573221777
2015-11-16,0.35537190082644754
2015-11-17,0.42647058823529027
2015-11-18,0.5486725663716772
2015-11-19,0.8199999999999996
2015-11-20,0.789830508474581
2015-11-23,0.9860383944153607
2015-11-24,0.9058823529411806
2015-11-25,0.9258114374034038
2015-11-26,0.9494204425711298
2015-11-27,0.9645075421472942
2015-11-30,0.705607476635514
2015-12-01,0.6832579185520354
2015-12-02,0.5219047619047612
2015-12-03,0.19999999999999846
2015-12-04,0.0
2015-12-07,0.0
2015-12-08,0.11649016641452299
2015-12-09,0.13368055555555494
2015-12-10,0.1666666666666661
2015-12-11,0.4690026954177898
2015-12-14,0.4382871536523923
2015-12-15,0.2455696202531662
2015-12-16,0.26643550323385873
2015-12-17,0.35215233763737036
2015-12-18,0.0
2015-12-21,0.0
2015-12-22,0.0
2015-12-23,0.02774949230963696
2015-12-24,0.032382566893646964
2015-12-25,0.08033052419071264
2015-12-28,0.3564062668690322
2015-12-29,0.8586956521739101
2015-12-30,0.8984374999999959
2015-12-31,0.7823129251700616
2016-01-04,0.9225589225589216
2016-01-05,0.8026755852842782
2016-01-06,0.7453874538745356
2016-01-07,0.7425373134328349
2016-01-08,0.8651026392961866
2016-01-11,0.5811965811965791
2016-01-12,0.7686567164179118
2016-01-13,0.6377708978328175
2016-01-14,0.5763888888888891
2016-01-15,0.3807106598984884
2016-01-18,0.5302013422818947
2016-01-19,0.08823529411767717
2016-01-20,0.7383177570093484
2016-01-21,0.40512820512821185
2016-01-22,0.2995951417004054
2016-01-25,0.2745098039215657
2016-01-26,0.22653721682847727
2016-01-27,0.0
2016-01-28,0.0
2016-01-29,0.0
2016-02-01,0.0
2016-02-02,0.0
2016-02-03,0.0
2016-02-04,0.04347826086956359
2016-02-05,0.5692307692307381
2016-02-15,0.8461538461538365
2016-02-16,0.9650349650349609
2016-02-17,0.7931034482758649
2016-02-18,0.6666666666666679
2016-02-19,0.4633027522935837
2016-02-22,0.21195652173913573
2016-02-23,0.0
2016-02-24,0.11904761904762391
2016-02-25,0.5092024539877391
2016-02-26,0.8500000000000066
2016-02-29,0.8457711442786042
2016-03-01,0.8657407407407341
2016-03-02,0.8705357142857078
2016-03-03,0.6195121951219463
2016-03-04,0.7034220532319354
2016-03-07,0.8723958333333344
2016-03-08,0.9404617253948974
2016-03-09,0.9514370664023791
2016-03-10,1.0
2016-03-11,0.8470254957507082
2016-03-14,0.6872125114995407
2016-03-15,0.27478753541076484
2016-03-16,0.07441016333938263
2016-03-17,0.0
2016-03-18,0.06092436974789938
2016-03-21,0.16257309941520526
2016-03-22,0.30283224400871533
2016-03-23,0.7518248175182491
2016-03-24,0.7436823104693095
2016-03-25,0.4314868804664713
2016-03-28,0.17005076142131967
2016-03-29,0.17678100263852314
2016-03-30,0.156756756756753
2016-03-31,0.23955431754874523
2016-04-01,0.37394957983193083
2016-04-05,0.8571428571428644
2016-04-06,1.0
2016-04-07,0.36585365853658464
2016-04-08,0.2896174863387903
2016-04-11,0.39645497596394785
2016-04-12,0.34671878129611644
2016-04-13,0.6205806656274004
2016-04-14,0.9761921828270983
2016-04-15,0.9759336515872294
2016-04-18,0.9789822152712987
2016-04-19,1.0
2016-04-20,0.6170086616218174
2016-04-21,0.7075618210179787
2016-04-22,0.8244084682440853
2016-04-25,0.8288834951456313
2016-04-26,0.7425614489003872
2016-04-27,0.8318840579710144
2016-04-28,0.6268656716417912
2016-04-29,0.1452344931921327
2016-05-03,0.09599999999999907
2016-05-04,0.2533136966126646
2016-05-05,0.3426061493411402
2016-05-06,0.5982142857142849
2016-05-09,1.0
2016-05-10,0.7263556116015143
2016-05-11,0.5278725824800914
2016-05-12,0.47349823321554857
2016-05-13,0.23130193905817267
2016-05-16,0.0
2016-05-17,0.0
2016-05-18,0.1711711711711722
2016-05-19,0.16414686825054065
2016-05-20,0.14901960784313745
2016-05-23,0.39749999999999946
2016-05-24,0.43715846994535645
2016-05-25,0.25766871165644284
2016-05-26,0.29473684210526613
2016-05-27,0.7278106508875789
2016-05-30,0.20100502512563354
2016-05-31,0.270642201834865
2016-06-01,0.40291262135923134
2016-06-02,0.515021459227469
2016-06-03,0.2842105263157897
2016-06-06,0.6192468619246866
2016-06-07,0.5423728813559309
2016-06-08,0.42105263157894246
2016-06-13,0.35294117647058737
2016-06-14,0.643835616438351
2016-06-15,0.22881355932202935
2016-06-16,0.5888888888888831
2016-06-17,0.8069306930693039
2016-06-20,0.8326180257510692
2016-06-21,0.8641114982578366
2016-06-22,1.0
2016-06-23,0.7782608695652162
2016-06-24,0.8089887640449411
2016-06-27,0.6444444444444426
2016-06-28,0.6049382716049361
2016-06-29,0.5854700854700796
2016-06-30,0.8159999999999966
2016-07-01,0.6586826347305353
2016-07-04,0.966942148760328
2016-07-05,0.9843342036553512
2016-07-06,0.991214057507987
2016-07-07,0.9921985815602835
2016-07-08,1.0
2016-07-11,0.942598187311179
2016-07-12,0.6421136909527637
2016-07-13,0.3112648221343875
2016-07-14,0.0919305413687442
2016-07-15,0.0
2016-07-18,0.0
2016-07-19,0.1192528735632188
2016-07-20,0.12868217054263628
2016-07-21,0.18201754385964905
2016-07-22,0.3990498812351556
2016-07-25,0.4148148148148144
2016-07-26,0.19318181818181795
2016-07-27,0.33730158730158655
2016-07-28,0.29929577464788715
2016-07-29,0.0
2016-08-01,0.15430267062314168
2016-08-02,0.21090497542946662
2016-08-03,0.3871957040572732
2016-08-04,0.5854250470988869
2016-08-05,0.8350638534411028
2016-08-08,0.801031360782887
2016-08-09,0.72591120448645
2016-08-10,0.44776617308534467
2016-08-11,0.04310740455345987
2016-08-12,0.03994824783070832
2016-08-15,0.0
2016-08-16,0.0
2016-08-17,0.0
2016-08-18,0.0
2016-08-19,0.0
2016-08-22,0.0
2016-08-23,0.08636363636363503
2016-08-24,0.1073446327683601
2016-08-25,0.7248520710059169
2016-08-26,0.8443708609271514
2016-08-29,0.8415841584158401
2016-08-30,0.789297658862878
2016-08-31,0.800000000000004
2016-09-01,0.03086419753086192
2016-09-02,0.2697674418604669
2016-09-05,0.2624434389140291
2016-09-06,0.3678861788617873
2016-09-07,0.38989898989898764
2016-09-08,0.6942446043165499
2016-09-09,0.254966887417216
2016-09-12,0.6204690831556532
2016-09-13,0.49237472766885015
2016-09-14,0.534930139720564
2016-09-19,0.6242774566474015
2016-09-20,0.884453781512607
2016-09-21,0.43949044585987146
2016-09-22,0.5925925925925902
2016-09-23,0.47892720306513065
2016-09-26,0.4225053078556232
2016-09-27,0.4086956521739104
2016-09-28,0.7974276527331173
2016-09-29,0.705607476635515
2016-09-30,1.0
2016-10-10,1.0
2016-10-11,0.5960784313725517
2016-10-12,0.4239631336405539
2016-10-13,0.4517543859649043
2016-10-14,0.19875776397514575
2016-10-17,0.05670103092782501
2016-10-18,0.08799999999998623
2016-10-19,0.46511627906976794
2016-10-20,0.3066666666666717
2016-10-21,0.27935222672065163
2016-10-24,0.4897119341563855
2016-10-25,0.6654275092936838
2016-10-26,0.4932735426008987
2016-10-27,0.6666666666666664
2016-10-28,0.7957746478873206
2016-10-31,0.7642276422764166
2016-11-01,0.3578947368420894
2016-11-02,0.7724550898203528
2016-11-03,0.7206703910614481
2016-11-04,0.7175141242937825
2016-11-07,0.9058380414312606
2016-11-08,0.9755434782608703
2016-11-09,0.9737991266375553
2016-11-10,1.0
2016-11-11,1.0
2016-11-14,1.0
2016-11-15,1.0
2016-11-16,0.9265762170790093
2016-11-17,0.7069243156199655
2016-11-18,0.5012853470436994
2016-11-21,0.06368960468521034
2016-11-22,0.0
2016-11-23,0.0
2016-11-24,0.21079136690647557
2016-11-25,0.2795081967213119
2016-11-28,0.6341361631095811
2016-11-29,0.8234503765371814
2016-11-30,0.9823108026598979
2016-12-01,0.731665246037599
2016-12-02,0.6529924779705967
2016-12-05,0.6800529359812403
2016-12-06,0.4248600336766244
2016-12-07,0.0378151475856815
2016-12-08,0.09792483265407659
2016-12-09,0.21999999999999706
2016-12-12,0.17178770949720606
2016-12-13,0.26394849785407415
2016-12-14,0.722033898305078
2016-12-15,0.6054421768707435
2016-12-16,0.2950819672131145
2016-12-19,0.22222222222222196
2016-12-20,0.32692307692308215
2016-12-21,0.08745247148289387
2016-12-22,0.17100371747212154
2016-12-23,0.20489977728285244
2016-12-26,0.7075208913649015
2016-12-27,0.6581196581196553
2016-12-28,0.9318568994889224
2016-12-29,0.7433234421364958
2016-12-30,0.7208633093525193
2017-01-03,0.11378848728246281
2017-01-04,0.22832722832723004
2017-01-05,0.12750000000000222
2017-01-06,0.14468085106383224
2017-01-09,0.18051575931232214
2017-01-10,0.6090225563909807
2017-01-11,0.17045454545454516
2017-01-12,0.4898419864559822
2017-01-13,0.6550458715596331
2017-01-16,0.6902800658978587
2017-01-17,0.7291066282420743
2017-01-18,1.0
2017-01-19,0.651465798045601
2017-01-20,0.5820312499999966
2017-01-23,0.4061302681992289
2017-01-24,0.14808652246256018
2017-01-25,0.06608695652173652
2017-01-26,0.3127659574468049
2017-02-03,0.21289062499999842
2017-02-06,0.2742316784869942
2017-02-07,0.504347826086952
2017-02-08,0.5576923076923029
2017-02-09,0.03431372549019096
2017-02-10,0.029914529914525517
2017-02-13,0.297213622291028
2017-02-14,0.39779005524862443
2017-02-15,0.5285087719298283
2017-02-16,0.8100172711571687
2017-02-17,1.0
2017-02-20,0.8555347091932431
2017-02-21,0.8209255533199147
2017-02-22,0.8013392857142809
2017-02-23,0.43521594684385184
2017-02-24,0.20083682008367718
2017-02-27,0.5793357933579274
2017-02-28,0.564748201438846
2017-03-01,0.37979094076655084
2017-03-02,0.3449367088607617
2017-03-03,0.34062500000000673
2017-03-06,0.0
2017-03-07,0.0
2017-03-08,0.29850746268656675
2017-03-09,0.750362844702467
2017-03-10,0.7614138438880672
2017-03-13,0.966565349544071
2017-03-14,0.9792531120331937
2017-03-15,0.8076923076923082
2017-03-16,0.25845737483085407
2017-03-17,0.2620027434842271
2017-03-20,0.0949868073878642
2017-03-21,0.0
2017-03-22,0.0719874804381836
2017-03-23,0.37500000000000133
2017-03-24,0.3675496688741718
2017-03-27,0.882191780821916
2017-03-28,0.9689265536723143
2017-03-29,0.829608938547482
2017-03-30,0.6946107784431101
2017-03-31,0.718266253869967
2017-04-05,0.08295298976807645
2017-04-06,0.0
2017-04-07,0.3404820816910899
2017-04-10,0.5200532161866477
2017-04-11,0.5222905411603702
2017-04-12,0.8472174713522553
2017-04-13,1.0
2017-04-14,0.7053037512076349
2017-04-17,0.5392051470108316
2017-04-18,0.5499153976311337
2017-04-19,0.1631205673758854
2017-04-20,0.08527131782945502
2017-04-21,0.1094527363184053
2017-04-24,0.137931034482756
2017-04-25,0.09210526315789527
2017-04-26,0.12017167381974408
2017-04-27,0.0
2017-04-28,0.3201219512195086
2017-05-02,0.28150134048256864
2017-05-03,0.26249999999999657
2017-05-04,0.6837944664031594
2017-05-05,0.8286937901498929
2017-05-08,0.6878048780487823
2017-05-09,0.7520000000000062
2017-05-10,0.8247978436657717
2017-05-11,0.23550724637681236
2017-05-12,0.08695652173912916
2017-05-15,0.08163265306122292
2017-05-16,0.3359580052493437
2017-05-17,0.2646310432569989
2017-05-18,0.5401929260450162
2017-05-19,0.6577181208053716
2017-05-22,0.8905775075987864
2017-05-23,0.6116504854368927
2017-05-24,0.7801047120418823
2017-05-25,0.5000000000000017
2017-05-26,0.4468546637744024
2017-05-31,0.46315789473684177
2017-06-01,0.5788177339901488
2017-06-02,0.3452054794520565
2017-06-05,0.6920415224913461
2017-06-06,0.6369426751592355
2017-06-07,0.2276214833759547
2017-06-08,0.28436018957345843
2017-06-09,0.2797202797202781
2017-06-12,0.1158690176322445
2017-06-13,0.3099547511312242
2017-06-14,0.6176470588235321
2017-06-15,0.4612903225806436
2017-06-16,0.6794425087107989
2017-06-19,0.8062015503875914
2017-06-20,0.6125654450261726
2017-06-21,0.3571428571428546
2017-06-22,0.44827586206896625
2017-06-23,0.42028985507246275
2017-06-26,0.22959183673469136
2017-06-27,0.21327014218009113
2017-06-28,0.21428571428571103
2017-06-29,0.3666666666666681
2017-06-30,0.17479674796748482
2017-07-03,0.44303797468354894
2017-07-04,0.7304347826087005
2017-07-05,0.7949526813880141
2017-07-06,0.6238805970149243
2017-07-07,0.7499999999999947
2017-07-10,0.6468253968253889
2017-07-11,0.07960199004974414
2017-07-12,0.40624999999999317
2017-07-13,0.5338983050847398
2017-07-14,0.5416666666666646
2017-07-17,0.736986301369864
2017-07-18,0.9817518248175207
2017-07-19,0.6693227091633503
2017-07-20,0.7251655629139121
2017-07-21,0.7097902097902132
2017-07-24,0.30188679245283423
2017-07-25,0.5102739726027395
2017-07-26,0.7826086956521757
2017-07-27,0.642066420664206
2017-07-28,0.657243816254418
2017-07-31,0.7410358565737022
2017-08-01,0.45291479820627983
2017-08-02,0.08121827411167487
2017-08-03,0.40399999999999703
2017-08-04,0.29713321403813053
2017-08-07,0.44445868804149885
2017-08-08,0.48203955064651904
2017-08-09,0.838247261275399
2017-08-10,0.6403424420402254
2017-08-11,0.7861621411580356
2017-08-14,0.7045314721633483
2017-08-15,0.7510877048121426
2017-08-16,0.30757415462683574
2017-08-17,0.4840848806366045
2017-08-18,0.2457142857142852
2017-08-21,0.444708680142687
2017-08-22,0.40762812872467213
2017-08-23,0.7400000000000004
2017-08-24,0.6960431654676268
2017-08-25,0.8431372549019595
2017-08-28,0.5300859598853854
2017-08-29,0.6847058823529406
2017-08-30,0.4856230031948884
2017-08-31,0.25542168674698795
2017-09-01,0.35817307692307576
2017-09-04,0.5742092457420918
2017-09-05,0.2869757174392928
2017-09-06,0.35652173913043333
2017-09-07,0.6613272311212829
2017-09-08,0.7680250783699073
2017-09-11,0.7158081705151003
2017-09-12,0.9749478079331956
2017-09-13,0.9733333333333348
2017-09-14,0.9714964370546332
2017-09-15,0.42199488491048187
2017-09-18,0.41878172588831963
2017-09-19,0.39417989417989197
2017-09-20,0.554474708171206
2017-09-21,0.4295454545454579
2017-09-22,0.9293893129771009
2017-09-25,0.7515432098765459
2017-09-26,0.6838006230529613
2017-09-27,0.3989290495314594
2017-09-28,0.3776932826362477
2017-09-29,0.0
2017-10-09,0.044862518089722934
2017-10-10,0.04776579352850318
2017-10-11,0.11848341232227014
2017-10-12,0.36231884057970715
2017-10-13,1.0
2017-10-16,0.9726775956284265
2017-10-17,0.9799196787148676
2017-10-18,0.9798387096774276
2017-10-19,0.4738955823293197
2017-10-20,0.6773399014778327
2017-10-23,0.7892976588628741
2017-10-24,0.744954128440367
2017-10-25,0.7517857142857144
2017-10-26,0.7258620689655196
2017-10-27,0.5156950672645753
2017-10-30,0.06707317073170778
2017-10-31,0.14885496183206084
2017-11-01,0.3709449929478124
2017-11-02,0.5821727019498578
2017-11-03,0.5610738255033542
2017-11-06,0.8764705882352946
2017-11-07,0.7193211488250646
2017-11-08,0.43873517786561217
2017-11-09,0.37444933920705026
2017-11-10,0.37010159651669156
2017-11-13,0.12087912087912162
2017-11-14,0.3606867046112009
2017-11-15,0.7160308763134858
2017-11-16,0.5067599246934236
2017-11-17,0.596068291213338
2017-11-20,0.6355349326632155
2017-11-21,0.4892853803532782
2017-11-22,0.08238409386362569
2017-11-23,0.2781107040568013
2017-11-24,0.333300537253498
2017-11-27,0.5318315377081282
2017-11-28,0.6110562685093761
2017-11-29,1.0
2017-11-30,0.9681050656660425
2017-12-01,0.6409395973154356
2017-12-04,0.255656108597283
2017-12-05,0.09343434343434569
2017-12-06,0.22961373390558046
2017-12-07,0.207364341085272
2017-12-08,0.33024691358024755
2017-12-11,0.33860759493671416
2017-12-12,0.33968253968254364
2017-12-13,0.0
2017-12-14,0.2152317880794699
2017-12-15,0.16883116883116878
2017-12-18,0.5798816568047327
2017-12-19,0.6158663883089766
2017-12-20,0.6057494866529775
2017-12-21,0.4872881355932212
2017-12-22,0.6585365853658545
2017-12-25,0.18836565096953142
2017-12-26,0.15801886792452913
2017-12-27,0.42369020501139104
2017-12-28,0.598019801980198
2017-12-29,0.501066098081022
2018-01-02,0.4936974789915946
2018-01-03,0.5581947743467921
2018-01-04,0.3493975903614432
2018-01-05,0.0
2018-01-08,0.0778443113772475
2018-01-09,0.22857142857142865
2018-01-10,0.32894736842104627
2018-01-11,0.32608695652173186
2018-01-12,0.8545454545454485
2018-01-15,0.8661087866108723
2018-01-16,0.9036144578313209
2018-01-17,0.7890173410404667
2018-01-18,0.705426356589154
2018-01-19,0.4519774011299468
2018-01-22,0.3314121037464003
2018-01-23,0.0
2018-01-24,0.0
2018-01-25,0.7753378378378392
2018-01-26,0.7982608695652205
2018-01-29,0.8888888888888916
2018-01-30,0.9049645390070936
2018-01-31,0.9248210023866357
2018-02-01,0.4056482670089828
2018-02-02,0.568034557235418
2018-02-05,0.5386389850057647
2018-02-06,0.5767195767195759
2018-02-07,0.47552447552447474
2018-02-08,0.9207606973058623
2018-02-09,0.7390438247011996
2018-02-12,0.44763513513514014
2018-02-13,0.2536656891495626
2018-02-14,0.31081081081081424
2018-02-22,0.055829228243022035
2018-02-23,0.060931899641577435
2018-02-26,0.07999999999999967
2018-02-27,0.26148409893992414
2018-02-28,0.12499999999999724
2018-03-01,0.17777777777777415
2018-03-02,0.1801801801801748
2018-03-05,0.1960784313725473
2018-03-06,0.0
2018-03-07,0.0
2018-03-08,0.24864864864863517
2018-03-09,0.18181818181817552
2018-03-12,0.6610878661087825
2018-03-13,0.5873605947955376
2018-03-14,0.6124031007751938
2018-03-15,0.5532786885245956
2018-03-16,0.7105882352941238
2018-03-19,0.09039548022599252
2018-03-20,0.22049689440993514
2018-03-21,0.3404255319148994
2018-03-22,0.5204819277108426
2018-03-23,0.6957186544342493
2018-03-26,1.0
2018-03-27,1.0
2018-03-28,1.0
2018-03-29,0.8254237288135627
2018-03-30,0.3770999557932005
2018-04-02,0.15936878137008356
2018-04-03,0.037316287041286006
2018-04-04,0.0
2018-04-09,0.06165565670602313
2018-04-10,0.2489067257851622
2018-04-11,0.24103075419458872
2018-04-12,0.4894565132151475
2018-04-13,0.7537811033325176
2018-04-16,0.6350806451612875
2018-04-17,0.5325203252032475
2018-04-18,0.7729941291585084
2018-04-19,0.8013698630136932
2018-04-20,0.6890547263681543
2018-04-23,0.8005780346820757
2018-04-24,0.9450549450549421
2018-04-25,0.6080691642651206
2018-04-26,0.15022421524663496
2018-04-27,0.12361623616235959
2018-05-02,0.16845878136201112
2018-05-03,0.04584040747029453
2018-05-04,0.13229571984436397
2018-05-07,0.3940298507462732
2018-05-08,0.5593220338983154
2018-05-09,0.4411764705882377
2018-05-10,0.6441717791411103
2018-05-11,0.2857142857142869
2018-05-14,0.346938775510207
2018-05-15,0.3068592057761731
2018-05-16,0.5090361445783107
2018-05-17,0.551282051282052
2018-05-18,0.8999999999999986
2018-05-21,0.7717717717717728
2018-05-22,0.8741721854304665
2018-05-23,0.631578947368427
2018-05-24,0.5728155339805897
2018-05-25,0.46558704453441846
2018-05-28,0.42279411764705876
2018-05-29,0.5932642487046651
2018-05-30,0.6172506738544453
2018-05-31,0.7862453531598437
2018-06-01,0.8203124999999934
2018-06-04,0.9198767334360525
2018-06-05,0.8085661081163703
2018-06-06,0.911824243286796
2018-06-07,0.701282657224177
2018-06-08,0.387588447750373
2018-06-11,0.2712981964642558
2018-06-12,0.28160786515273073
2018-06-13,0.0
2018-06-14,0.2640775546510529
2018-06-15,0.2644333449054562
2018-06-19,0.3856088560885662
2018-06-20,0.41060903732809756
2018-06-21,0.645621181262725
2018-06-22,0.4082568807339425
2018-06-25,0.5705128205128233
2018-06-26,0.5037037037037049
2018-06-27,0.5780730897010058
2018-06-28,0.34536082474229324
2018-06-29,0.6971830985915715
2018-07-02,1.0
2018-07-03,0.5406360424028385
2018-07-04,0.6990740740740768
2018-07-05,0.6020000000000025
2018-07-06,0.5995975855130791
2018-07-09,0.4268774703557257
2018-07-10,0.6428571428571397
2018-07-11,0.5046439628482985
2018-07-12,0.8550955414012701
2018-07-13,0.7114845938375344
2018-07-16,0.8398328690807815
2018-07-17,0.8254931714719268
2018-07-18,0.5216450216450157
2018-07-19,0.11751904243742588
2018-07-20,0.20274914089346507
2018-07-23,0.09203142536475406
2018-07-24,0.07363927427961617
2018-07-25,0.14937106918239285
2018-07-26,0.2737752161383341
2018-07-27,0.0896551724137983
2018-07-30,0.14444444444445242
2018-07-31,0.17567567567568693
2018-08-01,0.0
2018-08-02,0.8224299065420543
2018-08-03,0.7696793002915387
2018-08-06,0.8220140515222389
2018-08-07,0.9188930640803697
2018-08-08,0.9475816670211933
2018-08-09,0.5353725633340833
2018-08-10,0.5785859531329359
2018-08-13,0.4440511402257991
2018-08-14,0.17436481616531418
2018-08-15,0.15103610231402073
2018-08-16,0.6669774618382115
2018-08-17,0.6569559295289459
2018-08-20,0.9258064516129129
2018-08-21,0.5857142857142902
2018-08-22,0.4887983706721009
2018-08-23,0.250000000000006
2018-08-24,0.19362745098039044
2018-08-27,0.043604651162792475
2018-08-28,0.1369863013698603
2018-08-29,0.13888888888888642
2018-08-30,0.08849557522123899
2018-08-31,0.457564575645758
2018-09-03,0.6161879895561402
2018-09-04,0.6962809917355409
2018-09-05,0.7745535714285746
2018-09-06,1.0
2018-09-07,1.0
2018-09-10,0.44836956521738314
2018-09-11,0.18098159509201897
2018-09-12,0.28032345013476384
2018-09-13,0.29736842105262434
2018-09-14,0.1685185185185168
2018-09-17,0.4743589743589785
2018-09-18,0.5560975609756172
2018-09-19,0.4739726027397371
2018-09-20,0.3200934579439343
2018-09-21,0.6938202247191043
2018-09-25,0.2864197530864209
2018-09-26,0.256410256410251
2018-09-27,0.26128266033253283
2018-09-28,0.46867167919798824
2018-10-08,0.2739726027397291
2018-10-09,0.8759689922480417
2018-10-10,0.9937694704049733
2018-10-11,1.0
2018-10-12,1.0
2018-10-15,0.8735178344334769
2018-10-16,0.8538711618383037
2018-10-17,0.5931532224867082
2018-10-18,0.43447196065890764
2018-10-19,0.40530575331029056
2018-10-22,0.5379881856321135
2018-10-23,0.1700101568567969
2018-10-24,0.24964496784555085
2018-10-25,0.3619047619047586
2018-10-26,0.24911032028469207
2018-10-29,0.15282392026577743
2018-10-30,0.3538461538461463
2018-10-31,0.36842105263158476
2018-11-01,0.03719008264462814
2018-11-02,0.03191489361702135
2018-11-05,0.30182926829268353
2018-11-06,0.40597014925373587
2018-11-07,0.5062034739454124
2018-11-08,0.7846153846153908
2018-11-09,0.6732673267326736
2018-11-12,0.4871794871794859
2018-11-13,0.30677290836652826
2018-11-14,0.0
2018-11-15,0.02094240837695954
2018-11-16,0.2713178294573507
2018-11-19,0.3097345132743259
2018-11-20,0.4487179487179552
2018-11-21,0.7647058823529591
2018-11-22,0.7913043478261025
2018-11-23,0.8878504672897309
2018-11-26,0.9128440366972547
2018-11-27,1.0
2018-11-28,0.7796052631578937
2018-11-29,0.5774278215223116
2018-11-30,0.22613065326632747
2018-12-03,0.43278084714548914
2018-12-04,0.2955854126679486
2018-12-05,0.3562231759656672
2018-12-06,0.5095238095238098
2018-12-07,0.794058599521511
2018-12-10,0.21486642009478485
2018-12-11,0.2759287055270139
2018-12-12,0.19722395795458633
2018-12-13,0.07469892565636399
2018-12-14,0.023785334011841006
2018-12-17,0.2863945528699614
2018-12-18,0.23275979235488228
2018-12-19,0.6027268726877364
2018-12-20,0.5136778115501528
2018-12-21,0.7377622377622411
2018-12-24,0.5047619047619119
2018-12-25,0.6734693877551062
2018-12-26,0.4523076923076973
2018-12-27,0.5718954248366075
2018-12-28,0.4360655737704942
2019-01-02,0.7045454545454511
2019-01-03,0.6374501992031811
2019-01-04,0.8201754385964845
2019-01-07,0.7980295566502376
2019-01-08,0.9700598802395269
2019-01-09,0.45348837209302106
2019-01-10,0.10204081632652554
2019-01-11,0.008264462809916544
2019-01-14,0.0
2019-01-15,0.07228915662650552
2019-01-16,0.16384180790960484
2019-01-17,0.2974358974358988
2019-01-18,0.7499999999999926
2019-01-21,0.9502262443438921
2019-01-22,0.9563492063492071
2019-01-23,0.8320312499999983
2019-01-24,0.8749999999999977
2019-01-25,0.8367346938775511
2019-01-28,0.47826086956522346
2019-01-29,0.12213740458016552
2019-01-30,0.6359649122807055
2019-01-31,0.6732283464566957
2019-02-01,0.6434108527131728
2019-02-11,0.8540145985401378
2019-02-12,0.9687499999999923
2019-02-13,0.9473684210526186
2019-02-14,0.9457831325301076
2019-02-15,1.0
2019-02-18,1.0
2019-02-19,0.701030927835066
2019-02-20,0.4525547445255541
2019-02-21,0.34328358208955834
2019-02-22,0.041666666666671716
2019-02-25,0.0
2019-02-26,0.12738853503184489
2019-02-27,0.14981273408239476
2019-02-28,0.24436090225563503
2019-03-01,0.4235294117646993
2019-03-04,0.7794117647058769
2019-03-05,0.8043478260869528
2019-03-06,0.9158415841584203
2019-03-07,0.9427609427609458
2019-03-08,0.8876404494382033
2019-03-11,0.7018867924528268
2019-03-12,0.46874999999999345
2019-03-13,0.7199999999999943
2019-03-14,0.4547677261613664
2019-03-15,0.40611353711790077
2019-03-18,0.47281323877068193
2019-03-19,0.6183908045976999
2019-03-20,0.1856823266219253
2019-03-21,0.22677595628415548
2019-03-22,0.405913978494627
2019-03-25,0.42146596858639485
2019-03-26,0.19616204690831873
2019-03-27,0.50139275766017
2019-03-28,0.5817694369973201
2019-03-29,0.3715710723192057
2019-04-01,0.4694736842105253
2019-04-02,0.7377049180327896
2019-04-03,0.7159763313609495
2019-04-04,0.628834355828225
2019-04-08,0.7649253731343376
2019-04-09,0.41796875000001005
2019-04-10,0.2555295853130679
2019-04-11,0.0
2019-04-12,0.2437436669426937
2019-04-15,0.3305937092766345
2019-04-16,0.6184530618773615
2019-04-17,0.7509183518260034
2019-04-18,1.0
2019-04-19,0.6693268874138271
2019-04-22,0.7042623113762368
2019-04-23,0.49203539823008857
2019-04-24,0.3760683760683753
2019-04-25,0.10990712074303711
2019-04-26,0.22522522522522714
2019-04-29,0.09944751381215357
2019-04-30,0.13138686131386768
2019-05-06,0.635294117647059
2019-05-07,0.8556338028169023
2019-05-08,0.7688885644238243
2019-05-09,0.8313732198605873
2019-05-10,0.8785261450038101
2019-05-13,0.2235580507342524
2019-05-14,0.3631009750738048
2019-05-15,0.4599738222313602
2019-05-16,0.4769194913551568
2019-05-17,0.29786556298634226
2019-05-20,0.6403068412768729
2019-05-21,0.3828124999999963
2019-05-22,0.07843137254901421
2019-05-23,0.035714285714286274
2019-05-24,0.8619676945668129
2019-05-27,0.8679775280898872
2019-05-28,0.8643356643356602
2019-05-29,0.9060308555399677
2019-05-30,0.926829268292679
2019-05-31,0.10166919575113813
2019-06-03,0.05732484076432814
2019-06-04,0.057971014492750966
2019-06-05,0.01225114854517423
2019-06-06,0.1905370843989787
2019-06-10,0.6392156862745184
2019-06-11,0.6750345332134771
2019-06-12,0.7885634276607674
2019-06-13,1.0
2019-06-14,0.8910066570031976
2019-06-17,0.7736589031341973
2019-06-18,0.4961816615160804
2019-06-19,0.5369938348848647
2019-06-20,0.15547118425000428
2019-06-21,0.22477789860418187
2019-06-24,0.24105011933174136
2019-06-25,0.49857549857549405
2019-06-26,0.2861035422343255
2019-06-27,0.5862068965517212
2019-06-28,0.3354632587859375
2019-07-01,0.590909090909091
2019-07-02,0.5760171306209911
2019-07-03,0.6775818639798553
2019-07-04,0.6102564102564189
2019-07-05,0.8709677419354885
2019-07-08,0.6054421768707546
2019-07-09,0.1639248168206418
2019-07-10,0.6379761263304846
2019-07-11,0.7136905964780216
2019-07-12,0.6419971135334249
2019-07-15,0.7043384585038477
2019-07-16,0.9545188403908499
2019-07-17,0.7465909024481435
2019-07-18,0.8509411944137907
2019-07-19,0.8989429188969081
2019-07-22,0.9056152352673594
2019-07-23,0.6796194289328471
2019-07-24,0.7608766068537434
2019-07-25,0.42697387520185853
2019-07-26,0.23344459889499874
2019-07-29,0.028124869382490154
2019-07-30,0.3317070794892023
2019-07-31,0.2942122186495185
2019-08-01,0.30808080808080873
2019-08-02,0.4577777777777811
2019-08-05,0.7620817843866182
2019-08-06,0.5447667087011365
2019-08-07,0.6190476190476207
2019-08-08,0.8871075484301939
2019-08-09,0.8666186012977652
2019-08-12,0.8741496598639462
2019-08-13,0.9879608728367197
2019-08-14,0.9071856287425158
2019-08-15,0.31856378915202677
2019-08-16,0.3388679245283034
2019-08-19,0.035067212156633346
2019-08-20,0.023076923076921465
2019-08-21,0.13363279056709693
2019-08-22,0.2777260018639329
2019-08-23,0.21212121212121343
2019-08-26,0.6432160804020157
2019-08-27,0.5791090629800358
2019-08-28,0.29716193656094075
2019-08-29,0.17226277372263238
2019-08-30,0.48363730501100805
2019-09-02,0.24787998793928948
2019-09-03,0.6346017366792811
2019-09-04,0.7280595436881308
2019-09-05,0.8452885566966509
2019-09-06,0.831294882332583
2019-09-09,1.0
2019-09-10,0.6234858679149587
2019-09-11,0.5235546185801697
2019-09-12,0.2872014696876894
2019-09-16,0.32949308755760376
2019-09-17,0.1565217391304357
2019-09-18,0.28458498023715456
2019-09-19,0.33855799373040696
2019-09-20,0.8226950354609868
2019-09-23,0.30288461538461153
2019-09-24,0.18696883852690743
2019-09-25,0.167300380228133
2019-09-26,0.21801566579634274
2019-09-27,0.04191616766467219
2019-09-30,0.061619718309861335
2019-10-08,0.30549095651991404
2019-10-09,0.29067084328760423
2019-10-10,0.3606022038493546
2019-10-11,0.535325368848903
2019-10-14,0.7889397909268354
2019-10-15,0.7662661966556455
2019-10-16,1.0
2019-10-17,1.0
2019-10-18,1.0
2019-10-21,1.0
2019-10-22,0.5656804733727822
2019-10-23,0.7289512555391443
2019-10-24,0.569256756756759
2019-10-25,0.5599654874892174
2019-10-28,0.4490627546862292
2019-10-29,0.7324675324675355
2019-10-30,0.2710622710622737
2019-10-31,0.23604465709728997
2019-11-01,0.23320158102766878
2019-11-04,0.22744795682343916
2019-11-05,0.0
2019-11-06,0.0
2019-11-07,0.37728844224850755
2019-11-08,0.3466756014951661
2019-11-11,0.5959081753759746
2019-11-12,0.722072005687361
2019-11-13,0.8733985677236229
2019-11-14,0.4861386669078604
2019-11-15,0.6797992825142478
2019-11-18,0.6605722171986789
2019-11-19,0.6014168685465405
2019-11-20,0.5444467953380185
2019-11-21,0.8422075116707403
2019-11-22,0.47049112513108937
2019-11-25,0.17068526868357045
2019-11-26,0.18164323159608775
2019-11-27,0.1063968216866298
2019-11-28,0.04884931245133145
2019-11-29,0.0744680851063879
2019-12-02,0.10824742268041805
2019-12-03,0.09292035398230501
2019-12-04,0.7016706443914061
2019-12-05,0.47231833910034604
2019-12-06,0.5296874999999991
2019-12-09,0.6116788321167883
2019-12-10,0.7439544807965868
2019-12-11,0.47080979284369
2019-12-12,0.7891440501043818
2019-12-13,0.6473029045643159
2019-12-16,0.465863453815266
2019-12-17,0.3004694835680741
2019-12-18,0.31527093596058947
2019-12-19,0.15757575757576575
2019-12-20,0.1640378548895959
2019-12-23,0.2007722007722036
2019-12-24,0.4127516778523468
2019-12-25,0.37846153846153746
2019-12-26,0.16705882352940826
2019-12-27,0.3699788583509473
2019-12-30,0.3959276018099487
2019-12-31,0.27917188963045175
2020-01-02,0.4838772525484602
2020-01-03,0.9814994921634735
2020-01-06,0.7823964982102047
2020-01-07,0.812989228436543
2020-01-08,0.7485915590710664
2020-01-09,0.764091374618475
2020-01-10,0.22173906812875735
2020-01-13,0.28503703637602446
2020-01-14,0.4541139240506344
2020-01-15,0.44773790951637954
2020-01-16,0.3317230273751995
2020-01-17,0.8162601626016219
2020-01-20,0.7072463768115906
2020-01-21,0.48764415156507224
2020-01-22,0.6294706723891268
2020-01-23,0.7031484257871067
2020-02-03,0.28833333333333155
2020-02-04,0.5230499093193013
2020-02-05,0.5214049613055681
2020-02-06,0.3196759761779327
2020-02-07,0.24794632634103153
2020-02-10,0.34056557234155616
2020-02-11,0.0
2020-02-12,0.15181576568966346
2020-02-13,0.2551646334313313
2020-02-14,0.6647357438724418
2020-02-17,0.5897435897435879
2020-02-18,0.7155555555555552
2020-02-19,0.3154574132492106
2020-02-20,0.2743362831858372
2020-02-21,0.0
2020-02-24,0.17796610169491703
2020-02-25,0.16153846153846368
2020-02-26,0.42192691029900053
2020-02-27,0.4669117647058879
2020-02-28,0.7755905511811139
2020-03-02,0.8442622950819723
2020-03-03,1.0
2020-03-04,0.7616381186370701
2020-03-05,0.7947678748388928
2020-03-06,0.567738341749316
2020-03-09,0.30749976392995154
2020-03-10,0.4127903160438461
2020-03-11,0.6180633166875706
2020-03-12,0.5209145383175093
2020-03-13,0.8285444780126657
2020-03-16,0.9015635439726543
2020-03-17,0.5724907063196998
2020-03-18,0.6294307196562823
2020-03-19,0.7633042096902305
2020-03-20,0.5645592163846854
2020-03-23,0.5916230366492164
2020-03-24,0.8136585365853669
2020-03-25,0.5879345603272
2020-03-26,0.21208907741251307
2020-03-27,0.2457002457002454
2020-03-30,0.18909090909090967
2020-03-31,0.0
2020-04-01,0.0
2020-04-02,0.35834896810506683
2020-04-03,0.38047808764940233
2020-04-07,0.3485401459853996
2020-04-08,0.47535211267605443
2020-04-09,0.682692307692302
2020-04-10,0.2792792792792733
2020-04-13,0.35889570552147415
2020-04-14,0.4756097560975658
2020-04-15,0.1478599221789927
2020-04-16,0.1888888888889104
2020-04-17,0.3231707317073473
2020-04-20,0.7331730769230783
2020-04-21,0.8224852071005911
2020-04-22,1.0
2020-04-23,1.0
2020-04-24,0.976705490848586
2020-04-27,0.736966824644549
2020-04-28,0.5801749271137077
2020-04-29,0.01078167115902358
2020-04-30,0.0
2020-05-06,0.26614481409001495
2020-05-07,0.2509225092250872
2020-05-08,0.2962264150943322
2020-05-11,0.562682215743434
2020-05-12,0.7009345794392492
2020-05-13,0.34024896265560745
2020-05-14,0.38679245283019853
2020-05-15,0.3075268817204374
2020-05-18,0.2597701149425262
2020-05-19,0.01744186046510682
2020-05-20,0.02510460251044601
2020-05-21,0.5766233766233655
2020-05-22,0.9127806563039712
2020-05-25,0.8586601307189554
2020-05-26,0.8053639846743265
2020-05-27,0.8693676377462806
2020-05-28,0.7217815674143683
2020-05-29,0.05721670588756186
2020-06-01,0.2241422773535018
2020-06-02,0.23904635137907834
2020-06-03,0.1927482160289281
2020-06-04,0.25177754748329434
2020-06-05,0.9216671808205856
2020-06-08,0.19623402915195562
2020-06-09,0.2276214833759638
2020-06-10,0.28461538461539165
2020-06-11,0.3541666666666745
2020-06-12,0.2843822843822908
2020-06-15,0.8813559322033868
2020-06-16,0.9305210918114114
2020-06-17,0.8247663551401819
2020-06-18,0.5448979591836637
2020-06-19,0.6206225680933766
2020-06-22,0.588607594936702
2020-06-23,0.2144420131291052
2020-06-24,0.2089552238805997
2020-06-29,0.4547677261613796
2020-06-30,0.30663615560641794
2020-07-01,0.1888412017167447
2020-07-02,0.35347432024169023
2020-07-03,0.6797520661157002
2020-07-06,0.6535022354694427
2020-07-07,0.814557320430369
2020-07-08,0.9621069640539284
2020-07-09,0.9589883996373283
2020-07-10,0.9303371744066373
2020-07-13,0.9353018662053394
2020-07-14,0.9498837306053409
2020-07-15,1.0
2020-07-16,1.0
2020-07-17,0.5792988313856405
2020-07-20,0.42319277108433584
2020-07-21,0.27205882352941124
2020-07-22,0.3105849582172713
2020-07-23,0.05710491367862127
2020-07-24,0.31946508172362525
2020-07-27,0.4906542056074783
2020-07-28,0.7182175622542586
2020-07-29,0.7022160664819935
2020-07-30,1.0
2020-07-31,0.8900000000000048
2020-08-03,0.7172557172557199
2020-08-04,0.26603325415677725
2020-08-05,0.3354838709677443
2020-08-06,0.44424460431654644
2020-08-07,0.5373406193078311
2020-08-10,0.702749140893475
2020-08-11,1.0
2020-08-12,1.0
2020-08-13,0.44939965694683165
2020-08-14,0.4195298372513591
2020-08-17,0.20415224913494182
2020-08-18,0.08426073131954845
2020-08-19,0.02535211267605355
2020-08-20,0.30912476722532484
2020-08-21,0.24503311258278307
2020-08-24,0.39848197343453956
2020-08-25,0.5314685314685377
2020-08-26,0.7956730769230775
2020-08-27,0.4824587122900146
2020-08-28,0.5551650785088695
2020-08-31,0.3033327202979069
2020-09-01,0.4649162011532697
2020-09-02,0.27487532953924126
2020-09-03,0.6062571115464874
2020-09-04,0.6724895426556236
2020-09-07,0.8451737672444758
2020-09-08,0.5750541007909623
2020-09-09,0.7213675213675168
2020-09-10,0.2864406779660997
2020-09-11,0.20181818181817907
2020-09-14,0.2896440129449868
2020-09-15,0.3601609657947729
2020-09-16,0.195121951219514
2020-09-17,0.6090651558073588
2020-09-18,0.6323529411764689
2020-09-21,0.45769230769230085
2020-09-22,0.8081395348837183
2020-09-23,0.9595375722543362
2020-09-24,0.8348017621145368
2020-09-25,0.8556701030927806
2020-09-28,0.7931658552169073
2020-09-29,0.2376304052619091
2020-09-30,0.11061189452174673
2020-10-09,0.2157172961791122
2020-10-12,0.12299195729070263
2020-10-13,0.11781881711459248
2020-10-14,0.2839264836150938
2020-10-15,0.14495937914147927
2020-10-16,0.0
2020-10-19,0.0
2020-10-20,0.06572769953052045
2020-10-21,0.2470588235294212
2020-10-22,0.615763546798048
2020-10-23,0.46468401486990096
2020-10-26,0.7105943152454759
2020-10-27,0.7442922374429198
2020-10-28,0.8769230769230755
2020-10-29,0.8737316798196149
2020-10-30,1.0
2020-11-02,0.924637681159419
2020-11-03,0.8367729831144443
2020-11-04,0.3876698014629018
2020-11-05,0.3292267907339303
2020-11-06,0.0
2020-11-09,0.17644733516314093
2020-11-10,0.30028815725700747
2020-11-11,0.43090122474890735
2020-11-12,0.5515638121846091
2020-11-13,0.8300753265687496
2020-11-16,0.4664911835054877
2020-11-17,0.5121116636881087
2020-11-18,0.5192660550458629
2020-11-19,0.34909090909090323
2020-11-20,0.32307692307691843
2020-11-23,0.5203619909502266
2020-11-24,0.09879518072289564
2020-11-25,0.3035294117647102
2020-11-26,0.4520547945205561
2020-11-27,0.6632016632016667
2020-11-30,0.6596638655462213
2020-12-01,1.0
2020-12-02,0.8560794044665081
2020-12-03,0.7842639593908696
2020-12-04,0.4166666666666725
2020-12-07,0.38352272727273024
2020-12-08,0.035634743875276396
2020-12-09,0.13594470046082263
2020-12-10,0.3446327683615763
2020-12-11,0.7553793884484717
2020-12-14,0.8016528925619851
2020-12-15,1.0
2020-12-16,1.0
2020-12-17,0.9095955590800943
2020-12-18,0.5877659574468064
2020-12-21,0.4212034383954106
2020-12-22,0.5717314487632489
2020-12-23,0.3867287783164424
2020-12-24,0.4213531074101133
2020-12-25,0.6218822386035803
2020-12-28,0.6039829506311478
2020-12-29,0.0
2020-12-30,0.0
2020-12-31,0.0
2021-01-04,0.2682719651920928
2021-01-05,0.304852984369043
2021-01-06,0.42642642642642625
2021-01-07,0.8180300500834696
2021-01-08,0.8714285714285653
2021-01-11,0.8110687022900674
2021-01-12,0.9098474341192765
2021-01-13,0.9761904761904789
2021-01-14,0.7269789983844925
2021-01-15,0.6823308270676722
2021-01-18,0.43160690571049437
2021-01-19,0.12255541069100617
2021-01-20,0.24046242774566418
2021-01-21,0.34883720930232726
2021-01-22,0.22768434670116341
2021-01-25,0.507288629737605
2021-01-26,0.8012820512820437
2021-01-27,0.49060150375939493
2021-01-28,0.3153724247226569
2021-01-29,0.32569558101472557
2021-02-01,0.03687035922817177
2021-02-02,0.0
2021-02-03,0.17369355708095566
2021-02-04,0.20477312763700517
2021-02-05,0.3059589791192059
2021-02-08,0.5343868920574045
2021-02-09,0.6470908436648477
2021-02-10,0.39518616376507787
2021-02-18,0.6738668609420516
2021-02-19,0.7864321608040156
2021-02-22,0.96325459317585
2021-02-23,0.9688195991091287
2021-02-24,1.0
2021-02-25,1.0
2021-02-26,1.0
2021-03-01,0.7349999999999988
2021-03-02,0.5857142857142863
2021-03-03,0.5693430656934318
2021-03-04,0.16295025728987983
2021-03-05,0.0
2021-03-08,0.06939501779359317
2021-03-09,0.369688385269122
2021-03-10,0.3720640528551766
2021-03-11,0.4659728947429888
2021-03-12,0.681897538462076
2021-03-15,0.5290730257356552
2021-03-16,0.0
2021-03-17,0.0
2021-03-18,0.0
2021-03-19,0.040751319108389986
2021-03-22,0.039174347078489866
2021-03-23,0.20920502092050736
2021-03-24,0.6789215686274516
2021-03-25,0.6756097560975663
2021-03-26,0.717021276595748
2021-03-29,0.7422907488986799
2021-03-30,0.6311475409836074
2021-03-31,0.2604501607717011
2021-04-01,0.21148825065273552
2021-04-02,0.0
2021-04-06,0.27689243027888016
2021-04-07,0.27967806841045834
2021-04-08,0.2569316081330843
2021-04-09,0.4223968565815388
2021-04-12,0.741496598639458
2021-04-13,0.5129533678756496
2021-04-14,0.5781544256120549
2021-04-15,0.6140000000000068
2021-04-16,0.6281310211946066
2021-04-19,0.251196172248803
2021-04-20,0.3754266211604258
2021-04-21,0.48739495798320426
2021-04-22,0.616613418530353
2021-04-23,0.3450704225352237
2021-04-26,0.43362831858409234
2021-04-27,0.7023255813953531
2021-04-28,0.6368715083798837
2021-04-29,0.687499999999995
2021-04-30,0.8699186991869859
2021-05-06,0.9963369963369875
2021-05-07,0.6921487603305678
2021-05-10,0.7512690355329933
2021-05-11,0.7495741056218039
2021-05-12,0.5488029465930024
2021-05-13,0.46739130434782744
2021-05-14,0.7500000000000018
2021-05-17,0.6537102473498222
2021-05-18,0.6111111111111073
2021-05-19,0.7403846153846046
2021-05-20,0.7028508539863133
2021-05-21,0.717830982318907
2021-05-24,0.7229692478222637
2021-05-25,0.2966273307305332
2021-05-26,0.405783214695467
2021-05-27,0.23818834490301488
2021-05-28,0.43177809435417575
2021-05-31,0.3833853225969522
2021-06-01,0.5585444451570216
2021-06-02,0.5640194489465159
2021-06-03,0.833333333333332
2021-06-04,0.1975683890577437
2021-06-07,0.3538681948424027
2021-06-08,0.2695652173912997
2021-06-09,0.3161465400271423
2021-06-10,0.2776203966005735
2021-06-11,0.873661670235545
2021-06-15,0.8694690265486706
2021-06-16,0.9905956112852633
2021-06-17,0.9309764309764204
2021-06-18,0.9412751677852278
2021-06-21,0.6897233201580992
2021-06-22,0.623501199040763
2021-06-23,0.044210526315789284
2021-06-24,0.04183266932270936
2021-06-25,0.1516754850088169
2021-06-28,0.16422946881394973
2021-06-29,0.10192612326018025
2021-06-30,0.2958323930556255
2021-07-01,0.4806429807631796
2021-07-02,0.31784650493310385
2021-07-05,0.3984914222038163
2021-07-06,0.6147930945799609
2021-07-07,0.7126852064762661
2021-07-08,0.42711796449844797
2021-07-09,0.7042735042735101
2021-07-12,0.7245222929936338
2021-07-13,0.678092399403876
2021-07-14,0.36490250696378546
2021-07-15,0.5508345978755641
2021-07-16,0.44256120527305876
2021-07-19,0.314176245210724
2021-07-20,0.5113268608414197
2021-07-21,0.871635610766051
2021-07-22,0.7207207207207302
2021-07-23,0.5687931826003506
2021-07-26,0.7304522204742588
2021-07-27,0.6308756052226678
2021-07-28,0.6361582708884348
2021-07-29,0.7683427837379885
2021-07-30,0.718060283389336
2021-08-02,0.6637626507927775
2021-08-03,0.7103343313599316
2021-08-04,0.2655092617052563
2021-08-05,0.25507900677201245
2021-08-06,0.25565610859728716
2021-08-09,0.36973180076628065
2021-08-10,0.1903367496339649
2021-08-11,0.3025751072961303
2021-08-12,0.6362586605080813
2021-08-13,0.668689320388347
2021-08-16,0.41641938674579654
2021-08-17,0.5275689223057669
2021-08-18,0.5595794392523391
2021-08-19,0.07840909090909087
2021-08-20,0.18240343347639557
2021-08-23,0.45929526123937015
2021-08-24,0.48941176470588377
2021-08-25,0.3928729532348216
2021-08-26,0.8090320624146284
2021-08-27,0.7030847287020431
2021-08-30,0.6915135584978032
2021-08-31,0.6802920060060216
2021-09-01,0.8974057849300383
2021-09-02,0.7276998834639568
2021-09-03,0.770834326000831
2021-09-06,0.15417910060561277
2021-09-07,0.09418282548476443
2021-09-08,0.32438016528924685
2021-09-09,0.6393659180977497
2021-09-10,0.7386831275720119
2021-09-13,0.9794238683127543
2021-09-14,1.0
2021-09-15,0.8495049504950534
2021-09-16,0.8137254901960833
2021-09-17,0.5710491367861936
2021-09-22,0.28323699421965975
2021-09-23,0.200301204819278
2021-09-24,0.5109677419354829
2021-09-27,0.3372348402497072
2021-09-28,0.5324869577906661
2021-09-29,0.4786092817127724
2021-09-30,0.5761618579010531
2021-10-08,0.4087519869434637
2021-10-11,0.41995295611581585
2021-10-12,0.21967494537595256
2021-10-13,0.5847219643520226
2021-10-14,0.5548980246710857
2021-10-15,0.45945945945945654
2021-10-18,0.5771929824561387
2021-10-19,0.6278625954198533
2021-10-20,0.6492805755395751
2021-10-21,0.8241659152389579
2021-10-22,0.9401197604790457
2021-10-25,0.9400948554593597
2021-10-26,1.0
2021-10-27,0.8882946376394945
2021-10-28,0.3468706486369757
2021-10-29,0.105505100446284
2021-11-01,0.09051786259511171
2021-11-02,0.08696820548610404
2021-11-03,0.08981827660966417
2021-11-04,0.2791373768669385
2021-11-05,0.6833333333333265
2021-11-08,0.5157232704402471
2021-11-09,0.2047377326565138
2021-11-10,0.22201834862385245
2021-11-11,0.14859437751003096
2021-11-12,0.023961661341848482
2021-11-15,0.07003891050583778
2021-11-16,0.280120481927714
2021-11-17,0.2133027522935808
2021-11-18,0.11800302571861393
2021-11-19,0.5950920245398785
2021-11-22,0.5327635327635317
2021-11-23,0.5851602023608763
2021-11-24,0.6877323420074335
2021-11-25,0.9008124296373541
2021-11-26,0.5260478303655194
2021-11-29,0.6920478169587445
2021-11-30,0.4232476903579026
2021-12-01,0.445105775928139
2021-12-02,0.3040671788694209
2021-12-03,0.40329977989442467
2021-12-06,0.3474810953429225
2021-12-07,0.45519794623204557
2021-12-08,0.26960784313725267
2021-12-09,0.44270833333332854
2021-12-10,0.2755267423014537
2021-12-13,0.07334963325183162
2021-12-14,0.22535211267605534
2021-12-15,0.2525510204081623
2021-12-16,0.2113055181695835
2021-12-17,0.4600694444444496
2021-12-20,1.0
2021-12-21,0.9874055415617078
2021-12-22,0.9168646080760003
2021-12-23,0.7693920335429694
2021-12-24,0.48411214953270476
2021-12-27,0.0
2021-12-28,0.0
2021-12-29,0.17691154422788866
2021-12-30,0.1838006230529631
2021-12-31,0.33084112149533074
2022-01-04,0.7066666666666794
2022-01-05,0.8913043478260932
2022-01-06,0.7525773195876351
2022-01-07,0.915285451197053
2022-01-10,0.9252032520325199
2022-01-11,0.9476678043230937
2022-01-12,0.9441747572815526
2022-01-13,1.0
2022-01-14,1.0
2022-01-17,1.0
2022-01-18,0.7070393374741217
2022-01-19,0.6355841371918558
2022-01-20,0.7690217391304368
2022-01-21,0.7552195824334067
2022-01-24,0.7396105073533571
2022-01-25,0.9602301523394119
2022-01-26,1.0
2022-01-27,0.46630590920415893
2022-01-28,0.41000074347363247
2022-02-07,0.31003124285697736
2022-02-08,0.04017433353670583
2022-02-09,0.18414618408390845
2022-02-10,0.36256847453344754
2022-02-11,0.6377491207502917
2022-02-14,0.689156626506025
2022-02-15,0.977639751552794
2022-02-16,0.5045226130653268
2022-02-17,0.46097337006427963
2022-02-18,0.25051546391752627
2022-02-21,0.17172523961661293
2022-02-22,0.0
2022-02-23,0.2268391076897416
2022-02-24,0.47104648297575236
2022-02-25,0.6760201414084324
2022-02-28,0.8141157107408183
2022-03-01,0.9856116622772405
2022-03-02,0.8876783991683913
2022-03-03,0.9281936394613173
2022-03-04,0.7129243498950932
2022-03-07,0.8043185177980008
2022-03-08,0.7407216494845376
2022-03-09,0.700121802679659
2022-03-10,0.29373207701761556
2022-03-11,0.2839041773906149
2022-03-14,0.2633401221995913
2022-03-15,0.5003043213633586
2022-03-16,0.6627825681659281
2022-03-17,0.9122147302904559
2022-03-18,1.0
2022-03-21,0.7759850344908225
2022-03-22,0.6210033444816062
2022-03-23,0.3428658816332775
2022-03-24,0.25528596187175046
2022-03-25,0.42737206823027774
2022-03-28,0.6747712061193828
2022-03-29,0.7768820005163687
2022-03-30,1.0
2022-03-31,0.9288838472544992
2022-04-01,0.4569410531000782
2022-04-06,0.1484782092301832
2022-04-07,0.1250928146804047
2022-04-08,0.0
2022-04-11,0.0
2022-04-12,0.020683473224679415
2022-04-13,0.29598893499308465
2022-04-14,0.2650701899256819
2022-04-15,0.47508771929824695
2022-04-18,0.511715797430085
2022-04-19,0.6376892877173332
2022-04-20,0.37129987129987624
2022-04-21,0.4261447562777005
2022-04-22,0.36870748299320133
2022-04-25,0.7330077330077351
2022-04-26,0.5908024401689339
2022-04-27,0.6865885749147461
2022-04-28,0.7615433934657242
2022-04-29,0.8753042926071473
2022-05-05,0.25951600010925824
2022-05-06,0.312080630610573
2022-05-09,0.28078668623746106
2022-05-10,0.3493895766198204
2022-05-11,0.16420753581009948
2022-05-12,0.5739666947304201
2022-05-13,0.6321839080459767
2022-05-16,0.8769931662869979
2022-05-17,0.7631578947368142
2022-05-18,0.4613333333333229
2022-05-19,0.44808743169398735
2022-05-20,0.16528925619835208
2022-05-23,0.15037593984963615
2022-05-24,0.06437768240343789
2022-05-25,0.046012269938653566
2022-05-26,0.0059701492537306755
2022-05-27,0.0
2022-05-30,0.10727246043659029
2022-05-31,0.12032159208723482
2022-06-01,0.23206847594438273
2022-06-02,0.39586601447072034
2022-06-06,0.9438748868748408
2022-06-07,0.4211887504511661
2022-06-08,0.6881574281999742
2022-06-09,0.6815766199068267
2022-06-10,0.6158165867762796
2022-06-13,0.6666666666666672
2022-06-14,0.9146692233940575
2022-06-15,0.38939857288481095
2022-06-16,0.27871939736346846
2022-06-17,0.27432808155700045
2022-06-20,0.0
2022-06-21,0.22696766320927544
2022-06-22,0.5499405469678978
2022-06-23,0.6881606765327721
2022-06-24,0.8529585798816576
2022-06-27,1.0
2022-06-28,1.0
2022-06-29,0.9588108175338197
2022-06-30,0.8265175360617733
2022-07-01,0.47672517539558135
2022-07-04,0.05086901929830107
2022-07-05,0.0
2022-07-06,0.0
2022-07-07,0.18569723801257837
2022-07-08,0.2253074132088592
2022-07-11,0.47062841530054733
2022-07-12,0.6736842105263172
2022-07-13,0.554666666666668
2022-07-14,0.42214532871972477
2022-07-15,0.7904509283819641
2022-07-18,0.7631184407796112
2022-07-19,0.7085020242914973
2022-07-20,0.9679999999999984
2022-07-21,0.6168521462639112
2022-07-22,0.20880617339990795
2022-07-25,0.19151616967660554
2022-07-26,0.2723404255319151
2022-07-27,0.11376146788990957
2022-07-28,0.31628637571196494
2022-07-29,0.8169076500211273
2022-08-01,0.967289300556879
2022-08-02,0.9417572490258183
2022-08-03,0.6930681765017249
2022-08-04,0.5013449413058553
2022-08-05,0.40813013737227416
2022-08-08,0.10120578943678796
2022-08-09,0.07797210252561566
2022-08-10,0.1229050279329627
2022-08-11,0.3976109215017082
2022-08-12,0.23949955317247662
2022-08-15,0.330029154518953
2022-08-16,0.5247597930524792
2022-08-17,0.5041075429424965
2022-08-18,0.15091066782307366
2022-08-19,0.24715909090909433
2022-08-22,0.42328618063111917
2022-08-23,0.230046948356805
2022-08-24,0.3643595863166241
2022-08-25,0.545112781954885
2022-08-26,0.6705287900499113
2022-08-29,0.7294343153563002
2022-08-30,1.0
2022-08-31,0.932524449781218
2022-09-01,0.9286284908129762
2022-09-02,0.9444360155880839
2022-09-05,0.5512608510660159
2022-09-06,0.46487710980016145
2022-09-07,0.3490053680295693
2022-09-08,0.2650142993327006
2022-09-09,0.5969681129116597
2022-09-13,0.7374371859296514
2022-09-14,0.7631728045325807
2022-09-15,0.9407008086253381
2022-09-16,0.8853373921867079
2022-09-19,0.4620836286321763
2022-09-20,0.3787416004886997
2022-09-21,0.32782551222736095
2022-09-22,0.17182410423452865
2022-09-23,0.35217035217035314
2022-09-26,0.3778558875219668
2022-09-27,0.4401228249744073
2022-09-28,0.4395808836651216
2022-09-29,0.28365204692482476
2022-09-30,0.09972314699180193
2022-10-10,0.22091886550037113
2022-10-11,0.20276577305041307
2022-10-12,0.0376731614499023
2022-10-13,0.27490132646430493
2022-10-14,0.6780936326890635
2022-10-17,0.5171624345822743
2022-10-18,0.5138632162661743
2022-10-19,0.4621778886118038
2022-10-20,0.44653550042771445
2022-10-21,0.07450980392156874
2022-10-24,0.3783303730017764
2022-10-25,0.5154457193292148
2022-10-26,0.5983606557377038
2022-10-27,0.446388756942154
2022-10-28,0.6042594819224498
2022-10-31,0.4255844690285065
2022-11-01,0.7237586471259413
2022-11-02,0.8249785252390663
2022-11-03,0.948433752452942
2022-11-04,0.862399658842132
2022-11-07,0.862098154514243
2022-11-08,0.24662478680416478
2022-11-09,0.06153846153846109
2022-11-10,0.25503355704697855
2022-11-11,0.438516260162601
2022-11-14,0.42597402597402445
2022-11-15,0.7717842323651402
2022-11-16,1.0
2022-11-17,0.9069003285870738
2022-11-18,0.43424036281178885
2022-11-21,0.3081081081081094
2022-11-22,0.22158548233047037
2022-11-23,0.0
2022-11-24,0.0
2022-11-25,0.0
2022-11-28,0.3345843487210387
2022-11-29,0.37208689589745303
2022-11-30,0.32369641362108476
2022-12-01,0.30198791306479644
2022-12-02,0.28946245565186024
2022-12-05,0.37245961950767187
2022-12-06,0.3037547227551662
2022-12-07,0.49857499942619266
2022-12-08,0.7617527934661872
2022-12-09,0.9118257261410821
2022-12-12,0.6901140684410659
2022-12-13,0.7770582793709511
2022-12-14,0.7032163742690064
2022-12-15,0.3666026871401147
2022-12-16,0.20433996383363642
2022-12-19,0.2714171337069687
2022-12-20,0.2868338557993822
2022-12-21,0.27477477477478157
2022-12-22,0.7611393152903811
2022-12-23,0.4777029722353051
2022-12-26,0.4193847144103014
2022-12-27,0.44062881891034233
2022-12-28,0.5165462017120231
2022-12-29,0.25370212507685447
2022-12-30,0.49008968820897314
2023-01-03,0.6689820796157543
2023-01-04,0.3101419884469225
2023-01-05,0.3972602739726009
2023-01-06,0.7313231323132307
2023-01-09,0.6697027804410346
2023-01-10,0.670177118238391
2023-01-11,0.9138381201044385
2023-01-12,0.9146735617323853
2023-01-13,0.33437500000000037
2023-01-16,0.47745770146514743
2023-01-17,0.38245481377662355
2023-01-18,0.4015257961721492
2023-01-19,0.23453453647043032
2023-01-20,0.7294476918106916
2023-01-30,0.502806466753169
2023-01-31,0.6549006227057375
2023-02-01,0.6515445986147436
2023-02-02,0.7700335270684954
2023-02-03,0.039936102236428114
2023-02-06,0.3837772397094466
2023-02-07,0.377380952380957
2023-02-08,0.43275488069414825
2023-02-09,0.2900820283370626
2023-02-10,0.673529411764706
2023-02-13,0.5449781659388641
2023-02-14,0.48297213622290713
2023-02-15,0.43020408163265
2023-02-16,0.5472481827622002
2023-02-17,0.0
2023-02-20,0.0
2023-02-21,0.21206225680933974
2023-02-22,0.26076107298814766
2023-02-23,0.3356872265696419
2023-02-24,0.508257242782913
2023-02-27,0.9661201135386277
2023-02-28,0.47706932551351133
2023-03-01,0.2916472787079688
2023-03-02,0.5544672714414186
2023-03-03,0.5116681328006356
2023-03-06,0.3900412546494723
2023-03-07,0.5428604610928531
2023-03-08,0.6543778801843274
2023-03-09,0.0990291262135942
2023-03-10,0.3897911832946625
2023-03-13,0.593437945791727
2023-03-14,0.5784023668639056
2023-03-15,0.5546099290780147
2023-03-16,0.9342105263157888
2023-03-17,0.663000000000002
2023-03-20,0.46016483516483714
2023-03-21,0.5044136191677181
2023-03-22,0.6382252559726985
2023-03-23,0.3866481223922128
2023-03-24,0.8227722772277237
2023-03-27,0.9009111826524833
2023-03-28,0.8014112818283359
2023-03-29,0.7906925662157952
2023-03-30,0.884549623095019
2023-03-31,0.3605700940570379
2023-04-03,0.10100659733391838
2023-04-04,0.2715952865259293
2023-04-06,0.17461299845294073
2023-04-07,0.20758048250553063
2023-04-10,0.36975717439293937
2023-04-11,0.46206896551724386
2023-04-12,0.15114709851552371
2023-04-13,0.19210977701544313
2023-04-14,0.04532967032967215
2023-04-17,0.23119469026548647
2023-04-18,0.37755102040816013
2023-04-19,0.7030651340996145
2023-04-20,0.829657794676805
2023-04-21,1.0
2023-04-24,0.9245398257689516
2023-04-25,0.8053322099998319
2023-04-26,0.5909813936958175
2023-04-27,0.3038160541799482
2023-04-28,0.0
2023-05-04,0.0
2023-05-05,0.2664269869402284
2023-05-08,0.29945313009396574
2023-05-09,0.6163873370577307
2023-05-10,0.5796847635726811
2023-05-11,0.7253957329662774
2023-05-12,0.48264781491002695
2023-05-15,0.4690818238600878
2023-05-16,0.3486590038314166
2023-05-17,0.5333333333333322
2023-05-18,0.19112627986347908
2023-05-19,0.5081669691470012
2023-05-22,0.6802717148642438
2023-05-23,0.6613085853879663
2023-05-24,0.570731935114191
2023-05-25,0.9212700612794661
2023-05-26,0.6470461812285269
2023-05-29,0.3841337526905692
2023-05-30,0.38670346230434266
2023-05-31,0.710625048866248
2023-06-01,0.6342088838524751
2023-06-02,0.8790123456790097
2023-06-05,0.9999999999999973
2023-06-06,0.6967144060657119
2023-06-07,0.2471516213847503
2023-06-08,0.20304182509505594
2023-06-09,0.12301255230125259
2023-06-12,0.0229720028714989
2023-06-13,0.16513761467889818
2023-06-14,0.5774410774410784
2023-06-15,0.6114081996434912
2023-06-16,0.4798239178283197
2023-06-19,0.716616407071275
2023-06-20,0.5403977250237004
2023-06-21,0.21621760475377627
2023-06-26,0.29468176521825284
2023-06-27,0.3544418134260825
2023-06-28,0.09191413155208442
2023-06-29,0.21036280077331285
2023-06-30,0.4480491226620041
2023-07-03,0.29625151529463833
2023-07-04,0.26462395543175465
2023-07-05,0.49868766404198767
2023-07-06,0.7573062261753456
2023-07-07,0.6494464944649394
2023-07-10,0.5814977973568245
2023-07-11,0.6844305120167182
2023-07-12,0.7472417251755271
2023-07-13,0.24354657687991557
2023-07-14,0.3087008343265892
2023-07-17,0.5874877810361726
2023-07-18,0.5590386624869412
2023-07-19,0.5671794871794869
2023-07-20,1.0
2023-07-21,1.0
2023-07-24,0.6780487804878088
2023-07-25,0.6638370118845542
2023-07-26,0.5077252378394778
2023-07-27,0.18298981962487762
2023-07-28,0.05659087106968505
2023-07-31,0.06449363826562568
2023-08-01,0.0
2023-08-02,0.0
2023-08-03,0.0
2023-08-04,0.2641153038375476
2023-08-07,0.31235771984075983
2023-08-08,0.26175548589341285
2023-08-09,0.4602587800369708
2023-08-10,0.4330434782608688
2023-08-11,0.13643926788686023
2023-08-14,0.3342281879194618
2023-08-15,0.5608108108108106
2023-08-16,0.5370370370370356
2023-08-17,0.6637630662020918
2023-08-18,1.0
2023-08-21,0.5061224489795982
2023-08-22,0.2553846153846289
2023-08-23,0.10963453818479908
2023-08-24,0.19656748248809575
2023-08-25,0.19359360788032526
2023-08-28,0.8239079535894513
2023-08-29,0.8362868469338465
2023-08-30,0.8049221004675007
2023-08-31,0.8127615060247122
2023-09-01,0.8649018576766304
2023-09-04,0.795511922415891
2023-09-05,0.6914893617021309
2023-09-06,0.900934579439259
2023-09-07,0.9076655052264883
2023-09-08,0.5254833040421891
2023-09-11,0.31197097944377966
2023-09-12,0.4729315628192063
2023-09-13,0.35375722543352894
2023-09-14,0.22853957636566333
2023-09-15,0.26248399487836194
2023-09-18,0.4945255474452584
2023-09-19,0.11055276381909689
2023-09-20,0.38693467336683696
2023-09-21,0.601123595505619
2023-09-22,0.6877673117882457
2023-09-25,0.594549070877602
2023-09-26,0.8316138596231546
2023-09-27,0.750017994627726
2023-09-28,0.19009413938372155
2023-10-09,0.4056570403435122
2023-10-10,0.5505752465521853
2023-10-11,0.5829666258755574
2023-10-12,0.5204620333828646
2023-10-13,0.9391634980988643
2023-10-16,0.40975609756097503
2023-10-17,0.539923954372625
2023-10-18,0.5381679389313049
2023-10-19,0.3397590361445806
2023-10-20,0.6307277628032354
2023-10-23,0.6943620178041524
2023-10-24,0.5453100158982477
2023-10-25,0.5289389067524114
2023-10-26,0.7293987057411022
2023-10-27,0.009747868860900956
2023-10-30,0.008702299729272786
2023-10-31,0.263522043594045
2023-11-01,0.3201441670935367
2023-11-02,0.26865382102941904
2023-11-03,0.5040669127860747
2023-11-06,0.7164813678011943
2023-11-07,0.30554360606842285
2023-11-08,0.38148148148148187
2023-11-09,0.525462962962966
2023-11-10,0.6139359698681756
2023-11-13,0.6513605442176909
2023-11-14,0.925120772946863
2023-11-15,0.469458987783599
2023-11-16,0.429065743944636
2023-11-17,0.32790224032586407
2023-11-20,0.026143790849670615
2023-11-21,0.1984585741811145
2023-11-22,0.7469026548672519
2023-11-23,0.8329198153199557
2023-11-24,0.7307205687402297
2023-11-27,0.9047782957334859
2023-11-28,0.9265562610580054
2023-11-29,0.883271901283976
2023-11-30,0.8694890756218591
2023-12-01,0.9775558769483235
2023-12-04,0.884682489805116
2023-12-05,0.35832904478468686
2023-12-06,0.6112531969309459
2023-12-07,0.6297198538367852
2023-12-08,0.723132969034608
2023-12-11,0.7026548672566362
2023-12-12,0.8060913705583769
2023-12-13,0.4901380670611464
2023-12-14,0.3457216940363014
2023-12-15,0.0
2023-12-18,0.0
2023-12-19,0.07799227799227874
2023-12-20,0.08906525573192302
2023-12-21,0.178238341968912
2023-12-22,0.24571428571428608
2023-12-25,0.5905740106432014
2023-12-26,0.41539744154437724
2023-12-27,0.47259874542313385
2023-12-28,0.34868868756609944
2023-12-29,0.5887394564740607
2024-01-02,0.31067834038447995
2024-01-03,0.34241749525764537
2024-01-04,0.4867032107512027
2024-01-05,0.596918140308027
2024-01-08,0.24893314366998867
2024-01-09,0.3609022556391001
2024-01-10,0.3786982248520693
2024-01-11,0.3799212598425201
2024-01-12,0.25245901639344226
2024-01-15,0.4853658536585396
2024-01-16,0.3768115942029038
2024-01-17,0.5207468879668115
2024-01-18,0.21348314606742116
2024-01-19,0.367346938775514
2024-01-22,0.361556064073224
2024-01-23,0.6741379310344798
2024-01-24,0.6050509247529723
2024-01-25,0.7197361634340071
2024-01-26,0.7111822384708878
2024-01-29,0.7061848811288605
2024-01-30,0.21292445099278504
2024-01-31,0.21850524728880752
2024-02-01,0.3229729178829841
2024-02-02,0.14073527149073467
2024-02-05,0.4347043680524071
2024-02-06,0.44886363636364046
2024-02-07,0.409326424870472
2024-02-08,0.4874715261959062
2024-02-19,0.569920844327185
2024-02-20,0.09948542024014005
2024-02-21,0.24816176470588308
2024-02-22,0.4761215629522406
2024-02-23,0.5754052286505054
2024-02-26,0.6537317451524243
2024-02-27,1.0
2024-02-28,0.9631835284859785
2024-02-29,0.9612385249433231
2024-03-01,0.603395457962626
2024-03-04,0.49461601834739616
2024-03-05,0.3798264351076882
2024-03-06,0.5389811336332283
2024-03-07,0.23385012919896833
2024-03-08,0.3562992125984256
2024-03-11,0.24493243243243523
2024-03-12,0.44137022397892056
2024-03-13,0.27941176470588086
2024-03-14,0.6458333333333292
2024-03-15,0.6955810147299498
2024-03-18,0.8740458015267139
2024-03-19,0.7507002801120415
2024-03-20,0.7836257309941584
2024-03-21,0.464285714285723
2024-03-22,0.4685039370078736
2024-03-25,0.3481781376518102
2024-03-26,0.24362606232293849
2024-03-27,0.4049586776859433
2024-03-28,0.43749999999999273
2024-03-29,0.13895216400911317
2024-04-01,0.1383219954648556
2024-04-02,0.19003115264797793
2024-04-03,0.0
2024-04-08,0.2851711026615975
2024-04-09,0.5671296296296303
2024-04-10,0.5246252676659531
2024-04-11,0.6026119402985108
2024-04-12,0.8714285714285738
2024-04-15,0.8854545454545473
2024-04-16,0.9015721334519655
2024-04-17,1.0
2024-04-18,0.8356225542054367
2024-04-19,0.8647794876762129
2024-04-22,0.8136982860724946
2024-04-23,0.8032556474789607
2024-04-24,0.8315951254783589
2024-04-25,0.9948919556913008
2024-04-26,0.7153677543754724
2024-04-29,0.5165289256198358
2024-04-30,0.29172141918528044
2024-05-06,0.08647140864714097
2024-05-07,0.08005617977528567
2024-05-08,0.13287904599659592
2024-05-09,0.1491395793499067
2024-05-10,0.17687074829932245
2024-05-13,0.20526315789473712
2024-05-14,0.05722070844686039
2024-05-15,0.0
2024-05-16,0.25222551928782916
2024-05-17,0.8163522012578543
2024-05-20,0.9129186602870774
2024-05-21,0.9633339966904584
2024-05-22,1.0
2024-05-23,1.0
2024-05-24,0.6038817070153607
2024-05-27,0.3684504447103674
2024-05-28,0.17004112648244157
2024-05-29,0.11993369454596176
2024-05-30,0.03380193182582569
2024-05-31,0.057463998972590746
2024-06-03,0.6170468187274913
2024-06-04,0.7740963855421695
2024-06-05,0.7558823529411779
2024-06-06,0.5663082437276021
2024-06-07,0.5724637681159427
2024-06-11,0.0
2024-06-12,0.0
2024-06-13,0.14531043593130868
2024-06-14,0.17713365539452502
2024-06-17,0.1942078364565625
2024-06-18,0.5302325581395513
2024-06-19,0.4206642066420739
2024-06-20,0.009280742459401732
2024-06-21,0.1244019138756061
2024-06-24,0.11253056786200981
2024-06-25,0.09398410598922453
2024-06-26,0.377551080781989
2024-06-27,0.700840627386479
2024-06-28,0.5194580964226774
2024-07-01,0.591211218466606
2024-07-02,0.6330117454424011
2024-07-03,0.24111991265035906
2024-07-04,0.20735047391743572
2024-07-05,0.3333333333333382
2024-07-08,0.11357340720221953
2024-07-09,0.4713375796178279
2024-07-10,0.7224669603524181
2024-07-11,0.5950095969289814
2024-07-12,0.6265486725663679
2024-07-15,0.7849223946784962
2024-07-16,0.39770114942529333
2024-07-17,0.1364562118126262
2024-07-18,0.3123732251521302
2024-07-19,0.14821124361158514
2024-07-22,0.19205298013244979
2024-07-23,0.2885462555066036
2024-07-24,0.4542372881355901
2024-07-25,0.5964912280701721
2024-07-26,1.0
2024-07-29,0.9846153846153836
2024-07-30,0.9844720496894399
2024-07-31,0.992774566473988
2024-08-01,0.705547652916076
2024-08-02,0.617977528089888
2024-08-05,0.7069182389937115
2024-08-06,0.7185990338164271
2024-08-07,0.26941747572815733
2024-08-08,0.37984496124031125
2024-08-09,0.5510948905109508
2024-08-12,0.4259259259259298
2024-08-13,0.44970414201183645
2024-08-14,0.9927536231884098
2024-08-15,0.9923469387755144
2024-08-16,0.4905149051490483
2024-08-19,0.45939086294415415
2024-08-20,0.2589928057553899
2024-08-21,0.0023201856148463824
2024-08-22,0.16827852998065984
2024-08-23,0.35185185185185774
2024-08-26,0.27687159193356553
2024-08-27,0.33361287088449904
2024-08-28,0.5566033761298564
2024-08-29,0.23616518393487387
2024-08-30,0.09314239868963502
2024-09-02,0.3933580936409878
2024-09-03,0.39082018398459456
2024-09-04,0.43385595488993794
2024-09-05,0.6787675582364788
2024-09-06,0.9672727272727285
2024-09-09,0.771551724137931
2024-09-10,0.7885462555066075
2024-09-11,0.7832957110609466
2024-09-12,0.7142857142857123
2024-09-13,0.3039513677811515
2024-09-18,0.3205128205128162
2024-09-19,0.5255813953488336
2024-09-20,0.2377049180327847
2024-09-23,0.1815561959654167
2024-09-24,0.314960629921257
2024-09-25,0.36962902171342815
2024-09-26,0.15960197391684108
2024-09-27,0.3407520565694327
2024-09-30,0.772850330170409
2024-10-08,0.8668468109278105
2024-10-09,0.8476684366901172
2024-10-10,0.9796413037526964
2024-10-11,0.9797978624455904
2024-10-14,0.6693763338336041
2024-10-15,0.11773472429209944
2024-10-16,0.10836762688614404
2024-10-17,0.3460764587525182
2024-10-18,0.34607645875251664
2024-10-21,0.48477751756440435
2024-10-22,0.8930163447251132
2024-10-23,1.0
2024-10-24,0.4314162813889456
2024-10-25,0.3799298304573403
2024-10-28,0.25063308626006237
2024-10-29,0.02081869117231617
2024-10-30,0.0
2024-10-31,0.0
2024-11-01,0.14791628608332266
2024-11-04,0.3376889072489469
2024-11-05,0.38989169675090446
2024-11-06,0.667396061269148
2024-11-07,0.790143084260732
2024-11-08,0.7940717628705155
2024-11-11,0.8100719424460431
2024-11-12,1.0
2024-11-13,0.8506493506493534
2024-11-14,0.5115562403698011
2024-11-15,0.36428571428571355
2024-11-18,0.3079315707620559
2024-11-19,0.16598461028694575
2024-11-20,0.17169184143713603
2024-11-21,0.40439209406093096
2024-11-22,0.7897205478855756
2024-11-25,0.5498932618096227
2024-11-26,0.3586707024674228
2024-11-27,0.5084423088188004
2024-11-28,0.5218193693715031
2024-11-29,0.3329892656251043
2024-12-02,0.4971590909090841
2024-12-03,0.8759689922480641
2024-12-04,0.5640000000000026
2024-12-05,0.5708661417322867
2024-12-06,0.49828178694158276
2024-12-09,0.3584337349397661
2024-12-10,0.23859649122807464
2024-12-11,0.29565217391305126
2024-12-12,0.43157894736842706
2024-12-13,0.47490347490348017
2024-12-16,0.7857142857142873
2024-12-17,0.8370927318295764
2024-12-18,0.8940886699507381
2024-12-19,0.46574782332828163
2024-12-20,0.47761604546227093
2024-12-23,0.3437369566182649
2024-12-24,0.1230121512776977
2024-12-25,0.05333642424664482
2024-12-26,0.13958220503111166
2024-12-27,0.3886478418634189
2024-12-30,0.25174554707379365
2024-12-31,0.42007241440724
