date,FCT_Cr_Atr_Dfive
2015-03-27,
2015-03-30,
2015-03-31,
2015-04-01,
2015-04-02,
2015-04-03,
2015-04-07,
2015-04-08,
2015-04-09,
2015-04-10,
2015-04-13,-0.02242569293029764
2015-04-14,0.09352939310301069
2015-04-15,0.13455993162538807
2015-04-16,0.13700474321829806
2015-04-17,0.1754663347236792
2015-04-20,-0.04517289165958409
2015-04-21,-0.06308741616460156
2015-04-22,-0.15926302296846312
2015-04-23,-0.12517463054724848
2015-04-24,0.09521282398275827
2015-04-27,0.35646888343178246
2015-04-28,0.16664880114765054
2015-04-29,0.4305243445692884
2015-04-30,0.4600341841541672
2015-05-04,-0.013782592163611884
2015-05-05,-0.3154549774293181
2015-05-06,-0.09779775109212009
2015-05-07,-0.2567831041604417
2015-05-08,-0.4463115211433755
2015-05-11,-0.07176852075850904
2015-05-12,0.06070016939582157
2015-05-13,-0.07268249354005168
2015-05-14,0.025420036504261105
2015-05-15,-0.002824309433193506
2015-05-18,-0.10317964945486091
2015-05-19,-0.10686622794246113
2015-05-20,0.09631658075601374
2015-05-21,-0.21649748336736874
2015-05-22,0.42228570934508214
2015-05-25,0.16544386773011122
2015-05-26,0.04051558585118181
2015-05-27,-0.14958525891693328
2015-05-28,0.1264721165094764
2015-05-29,-0.5469853680438269
2015-06-01,-0.1431543720301078
2015-06-02,0.14756950123018042
2015-06-03,0.10543039500987537
2015-06-04,0.10006272432880048
2015-06-05,0.054233824607681946
2015-06-08,0.16313477088291217
2015-06-09,-0.29091160541701566
2015-06-10,-0.09978951796940208
2015-06-11,-0.2089080045996539
2015-06-12,0.489156118371604
2015-06-15,-0.1591264614063243
2015-06-16,0.303841327003878
2015-06-17,0.13574580868872496
2015-06-18,0.1634434420026753
2015-06-19,-0.5278668473557546
2015-06-23,0.052020660517756084
2015-06-24,-0.29657115814834384
2015-06-25,-0.07989243285563719
2015-06-26,0.16655284635100728
2015-06-29,0.5047982866570948
2015-06-30,0.11153586967337206
2015-07-01,0.33803629226637755
2015-07-02,0.10231812447435108
2015-07-03,-0.14270100438462724
2015-07-06,-0.3142131645769488
2015-07-07,0.0032902550150064047
2015-07-08,-0.3368582688786011
2015-07-09,0.583772597392895
2015-07-10,-0.04855959234363552
2015-07-13,-0.017828230071161615
2015-07-14,-0.14317030417181087
2015-07-15,0.265873258663508
2015-07-16,-0.9866451379677439
2015-07-17,-0.05831824424209005
2015-07-20,-0.15432586032316534
2015-07-21,0.10995361055543326
2015-07-22,-0.054638694638693794
2015-07-23,0.19420384138785657
2015-07-24,0.15694599491243028
2015-07-27,0.2788308945900224
2015-07-28,-0.08666773133475766
2015-07-29,-0.19156708270632367
2015-07-30,0.1408333333333331
2015-07-31,-0.1503719345944987
2015-08-03,-0.027509741275514005
2015-08-04,-0.04951401351367493
2015-08-05,0.12648700149721054
2015-08-06,-0.08524590163934316
2015-08-07,0.059339692753458954
2015-08-10,-0.17064677124429578
2015-08-11,0.20406469797950597
2015-08-12,0.16887366232966297
2015-08-13,0.14839289956894886
2015-08-14,0.012479074545224837
2015-08-17,-0.02351559644082822
2015-08-18,-0.14120939828187634
2015-08-19,-0.31881809024144037
2015-08-20,-0.025014877493692973
2015-08-21,-0.00046766643363359154
2015-08-24,0.42148141042613113
2015-08-25,0.17252382512478112
2015-08-26,0.22631442402526358
2015-08-27,-0.034073678877470745
2015-08-28,0.10102268891082362
2015-08-31,-0.35813318983422476
2015-09-01,-0.3157099325356394
2015-09-02,-0.14396189408798038
2015-09-07,-0.11471834003560079
2015-09-08,-0.20621587800799573
2015-09-09,0.010801666526856976
2015-09-10,0.16807999053169953
2015-09-11,0.12893369619000541
2015-09-14,0.1946293641260148
2015-09-15,0.05109653353913447
2015-09-16,0.0433609200614741
2015-09-17,-0.07481279387009057
2015-09-18,-0.1387956536579831
2015-09-21,-0.054470940575108394
2015-09-22,0.027287891628661624
2015-09-23,-0.16662486733254867
2015-09-24,0.031869400318809825
2015-09-25,0.181980677755784
2015-09-28,-0.24777263674887334
2015-09-29,0.21699599350029503
2015-09-30,0.20845026130570166
2015-10-08,0.11236462652391471
2015-10-09,0.05166735652455627
2015-10-12,0.4211312545322655
2015-10-13,-0.23539603705874623
2015-10-14,-0.06912989241307418
2015-10-15,-0.03885551068649848
2015-10-16,-0.27744138420356745
2015-10-19,-0.2688542734166808
2015-10-20,-0.006399801511287807
2015-10-21,0.011631263103462752
2015-10-22,0.029679349121539092
2015-10-23,0.20239171749992446
2015-10-26,0.06454364218744915
2015-10-27,0.015676252188439925
2015-10-28,0.01788008252719947
2015-10-29,-0.16078133192194527
2015-10-30,0.06854044666807736
2015-11-02,-0.08691175463232798
2015-11-03,0.04155643816739326
2015-11-04,0.030352177942542084
2015-11-05,0.24294836554319788
2015-11-06,-0.26670810045728066
2015-11-09,0.16830254707965608
2015-11-10,0.09787310869397364
2015-11-11,-0.03278316172017026
2015-11-12,-0.2768522280915626
2015-11-13,0.15284914361000973
2015-11-16,-0.16017504553140222
2015-11-17,0.06044676206531531
2015-11-18,0.10088991646127152
2015-11-19,0.20619235836627325
2015-11-20,-0.029086641058468254
2015-11-23,0.4736026703661185
2015-11-24,-0.20041102062795813
2015-11-25,0.085265401271898
2015-11-26,0.19378821724316697
2015-11-27,0.11848058045240845
2015-11-30,-0.5387906295974193
2015-12-01,-0.012397285646932911
2015-12-02,-0.2808555583990636
2015-12-03,-0.44377185491579174
2015-12-04,-0.27299675041610416
2015-12-07,0.1433401949523262
2015-12-08,0.1268706612040515
2015-12-09,0.0338403433174717
2015-12-10,0.04185791300087949
2015-12-11,0.27951966730851047
2015-12-14,-0.0278290241793899
2015-12-15,-0.1630588890576718
2015-12-16,0.02150087287236517
2015-12-17,0.08294955368723224
2015-12-18,-0.29459704228053096
2015-12-21,0.020275717117552085
2015-12-22,-0.014743196916996978
2015-12-23,0.05566352351615067
2015-12-24,0.042437792434615006
2015-12-25,0.16316599309862173
2015-12-28,0.07035309851126233
2015-12-29,0.1613153798327912
2015-12-30,0.055670483517462635
2015-12-31,-0.027093271281753418
2016-01-04,0.2596822538734409
2016-01-05,-0.10510392813105396
2016-01-06,-0.07687628977951602
2016-01-07,-0.01575039298419418
2016-01-08,0.15332873245916623
2016-01-11,-0.30157868217318157
2016-01-12,0.12683958352395744
2016-01-13,-0.05782582751237408
2016-01-14,-0.058142382636115104
2016-01-15,-0.11336537687743353
2016-01-18,0.06239749224775169
2016-01-19,-0.10925646791371507
2016-01-20,0.15456138864816613
2016-01-21,-0.09690763000245894
2016-01-22,-0.07608632584263467
2016-01-25,-0.020577880484515143
2016-01-26,-0.0768273897479812
2016-01-27,-0.11386236535936997
2016-01-28,0.09192651762653495
2016-01-29,-0.023699669280046937
2016-02-01,-0.0013771174324333502
2016-02-02,0.08078681637876127
2016-02-03,0.02103722427463255
2016-02-04,0.0180954414433634
2016-02-05,0.15335617307447957
2016-02-15,0.12271333403828082
2016-02-16,0.0828471001757485
2016-02-17,-0.043256831399899554
2016-02-18,-0.05473272874322882
2016-02-19,-0.13984531154948662
2016-02-22,-0.1543932258217961
2016-02-23,-0.06367647058823458
2016-02-24,0.07992491390806422
2016-02-25,0.1695557858908328
2016-02-26,0.2195858520900296
2016-02-29,0.008220711872393954
2016-03-01,0.028566660924981745
2016-03-02,0.005181866104375009
2016-03-03,-0.1898557526365043
2016-03-04,0.07593353115727042
2016-03-07,0.2238805202288375
2016-03-08,0.4456980449573692
2016-03-09,0.11380952380952342
2016-03-10,0.11795676588944026
2016-03-11,-0.30953912556286434
2016-03-14,-0.29769329769329744
2016-03-15,-0.7816347469220233
2016-03-16,-0.4124894514767917
2016-03-17,-0.10190773646224441
2016-03-18,0.18228438228438182
2016-03-21,0.22735648501665087
2016-03-22,0.2709964490496826
2016-03-23,0.35317610945158584
2016-03-24,0.004961548002974221
2016-03-25,-0.24385363064608218
2016-03-28,-0.30953468194894784
2016-03-29,0.008510173895479985
2016-03-30,0.023757786469647102
2016-03-31,0.09503845199702553
2016-04-01,0.1609090532936104
2016-04-05,0.21799790722009074
2016-04-06,0.08121937586222935
2016-04-07,-0.3095843935538549
2016-04-08,-0.036847290640397
2016-04-11,0.06172122876163251
2016-04-12,-0.032582381387989495
2016-04-13,0.2748053666982514
2016-04-14,0.25167750472522193
2016-04-15,-0.007446504493772739
2016-04-18,0.027684183353562944
2016-04-19,0.13659314196514968
2016-04-20,-0.46850936868876825
2016-04-21,0.13056666077241563
2016-04-22,0.32263083629100875
2016-04-25,-0.021391294374034267
2016-04-26,-0.1663638435739654
2016-04-27,0.10118847345209508
2016-04-28,-0.28716594478328505
2016-04-29,-0.597697240575203
2016-05-03,-0.0021100756110432883
2016-05-04,0.1645605004825542
2016-05-05,0.10368000603018149
2016-05-06,0.32078636607622135
2016-05-09,0.3979840333980298
2016-05-10,-0.21716326951415346
2016-05-11,-0.2798821174958325
2016-05-12,-0.0908065114877249
2016-05-13,-0.32163840859492987
2016-05-16,-0.33487383397966786
2016-05-17,0.09870596923867124
2016-05-18,0.26496953283683294
2016-05-19,-0.03575910266805778
2016-05-20,-0.10954599920117378
2016-05-23,0.35358817301875567
2016-05-24,0.049150441187197004
2016-05-25,-0.16361730013106396
2016-05-26,0.04954041971107639
2016-05-27,0.27793784029038293
2016-05-30,-0.3202662762005488
2016-05-31,0.035921789952451315
2016-06-01,0.09836717119862581
2016-06-02,0.08019507060390804
2016-06-03,-0.21211221651690307
2016-06-06,0.3025148365326767
2016-06-07,-0.06621798893515242
2016-06-08,-0.10429690939509043
2016-06-13,-0.04360567756514094
2016-06-14,0.17705838876570612
2016-06-15,-0.19676718905942625
2016-06-16,0.17866992875421192
2016-06-17,0.15503501569669514
2016-06-20,0.04294025302428506
2016-06-21,0.07019987105093531
2016-06-22,0.08180781944603072
2016-06-23,-0.21487327620590208
2016-06-24,0.03400598915477071
2016-06-27,-0.11769624237654835
2016-06-28,-0.044373794190375564
2016-06-29,-0.014113879559480385
2016-06-30,0.1461802740783652
2016-07-01,-0.14039723366038956
2016-07-04,0.32790060701771867
2016-07-05,0.34258747037651605
2016-07-06,0.3117973884469066
2016-07-07,0.02827692988276799
2016-07-08,0.05180552277554916
2016-07-11,-0.30562029147928466
2016-07-12,-0.5592306986993879
2016-07-13,-0.4405919349018877
2016-07-14,-0.22425294828556483
2016-07-15,-0.12050001776893399
2016-07-18,-0.005404936181821904
2016-07-19,0.2250850209973576
2016-07-20,-0.012851942649134002
2016-07-21,0.11225133437660334
2016-07-22,0.15239493137536855
2016-07-25,0.01004297964570465
2016-07-26,-0.15844338781209572
2016-07-27,0.13306195140567464
2016-07-28,-0.028962257329814473
2016-07-29,-0.18371771573710907
2016-08-01,0.0818227725239691
2016-08-02,0.06774677663860952
2016-08-03,0.075050144080397
2016-08-04,0.12128450857520173
2016-08-05,0.1001569409990192
2016-08-08,-0.046360556425380436
2016-08-09,-0.01598972377828952
2016-08-10,-0.12413176422313146
2016-08-11,-0.16199448150157475
2016-08-12,-0.01996549942741991
2016-08-15,-0.09377765790998299
2016-08-16,-0.022323088457297864
2016-08-17,-0.01138667648609925
2016-08-18,-0.01553450517535701
2016-08-19,-0.035889660929557886
2016-08-22,0.03177665492777994
2016-08-23,0.0975298394139915
2016-08-24,0.049125276698188045
2016-08-25,0.4631345806376437
2016-08-26,0.080124631964096
2016-08-29,0.012202144183050948
2016-08-30,-0.050559144817670446
2016-08-31,0.009716891585160566
2016-09-01,-0.7027580295037108
2016-09-02,0.20929675111553925
2016-09-05,-0.03167139021479666
2016-09-06,0.12829209183940896
2016-09-07,0.029658401863822195
2016-09-08,0.2706263292012377
2016-09-09,-0.4428930331432991
2016-09-12,0.5083968495934966
2016-09-13,-0.18751582437215591
2016-09-14,0.06471222668889143
2016-09-19,0.1361490420239189
2016-09-20,0.348982850679483
2016-09-21,-0.6785490931832409
2016-09-22,0.227364391502287
2016-09-23,-0.1673997109005337
2016-09-26,-0.07211197989678307
2016-09-27,-0.0024638633377123964
2016-09-28,0.32110912343470793
2016-09-29,-0.14946070878274012
2016-09-30,0.16958229662918506
2016-10-10,0.015883775672812375
2016-10-11,-0.23623110151187998
2016-10-12,-0.10425085007582684
2016-10-13,0.013732833957548707
2016-10-14,-0.09005800285879527
2016-10-17,-0.09003610305782023
2016-10-18,0.06613826331559503
2016-10-19,0.12256480356419758
2016-10-20,-0.09484816982573749
2016-10-21,-0.030935960591133543
2016-10-24,0.1383624413943554
2016-10-25,0.1251996472750565
2016-10-26,-0.1242634940255477
2016-10-27,0.07348174808192749
2016-10-28,0.03970822281166986
2016-10-31,-0.031939442772654474
2016-11-01,-0.11941884839081252
2016-11-02,0.14991353665129362
2016-11-03,-0.01289092760712661
2016-11-04,-0.002682009492252684
2016-11-07,0.40808310315126783
2016-11-08,0.22967348509517427
2016-11-09,-0.09044423965678605
2016-11-10,0.20573393947715626
2016-11-11,0.16062492246001484
2016-11-14,-0.21098240339552632
2016-11-15,-0.15692562718205838
2016-11-16,-0.06525259855592053
2016-11-17,-0.289945658200059
2016-11-18,-0.25555250767413
2016-11-21,-0.5674941034862973
2016-11-22,-0.10223014484220855
2016-11-23,-0.030523780701436992
2016-11-24,0.34333558265049086
2016-11-25,0.12532162626455362
2016-11-28,0.32140795175274683
2016-11-29,0.14870210883160373
2016-11-30,0.2752316828094378
2016-12-01,-0.32620132255996426
2016-12-02,-0.06447735378685202
2016-12-05,0.026417749923655164
2016-12-06,-0.23379547157535074
2016-12-07,-0.3770547461721796
2016-12-08,0.11440136146833492
2016-12-09,0.09854183803202816
2016-12-12,-0.049913746359341746
2016-12-13,0.12856207393422714
2016-12-14,0.2333754510839523
2016-12-15,-0.05045979106122232
2016-12-16,-0.1361857487656933
2016-12-19,-0.07983992838958151
2016-12-20,0.06508360986482972
2016-12-21,-0.23306618383514044
2016-12-22,0.0695228163803634
2016-12-23,0.06103019065097194
2016-12-26,0.5131150469127334
2016-12-27,-0.060376551515207856
2016-12-28,0.22590016187601045
2016-12-29,-0.133941882960389
2016-12-30,-0.0129798203220105
2017-01-03,-0.7480818652064274
2017-01-04,0.13679167742996234
2017-01-05,-0.12699606158252663
2017-01-06,0.04650397785731881
2017-01-09,0.04990996906118883
2017-01-10,0.3876968796433875
2017-01-11,-0.3170278215836308
2017-01-12,0.27723998690385104
2017-01-13,0.1962716249380406
2017-01-16,0.05489939044373139
2017-01-17,0.06875331564986464
2017-01-18,0.24152455731403
2017-01-19,-0.3738777224578434
2017-01-20,-0.11986570179925225
2017-01-23,-0.16732765160344282
2017-01-24,-0.30430026627909923
2017-01-25,-0.07075409231973895
2017-01-26,0.2992204063394256
2017-02-03,-0.12226212478650317
2017-02-06,0.09341423441867253
2017-02-07,0.18485811452472145
2017-02-08,0.026482795284178427
2017-02-09,-0.26174175610630757
2017-02-10,-0.06429244394196211
2017-02-13,0.1477143274426795
2017-02-14,0.07819938462771929
2017-02-15,0.13140117707161744
2017-02-16,0.3928611642832981
2017-02-17,0.22829240361369146
2017-02-20,-0.22207870921897255
2017-02-21,-0.07851972283513427
2017-02-22,-0.08327283482562817
2017-02-23,-0.33829119702528065
2017-02-24,-0.09666395946256483
2017-02-27,0.17242646074336238
2017-02-28,-0.005760463816933585
2017-03-01,-0.09569386755844819
2017-03-02,-0.032132060474783425
2017-03-03,-0.0063034614471241986
2017-03-06,-0.2582891302874219
2017-03-07,0.007818231479244597
2017-03-08,0.20600567556610785
2017-03-09,0.5476435363075625
2017-03-10,0.014789248106287062
2017-03-13,0.24503097518757702
2017-03-14,0.06052733788170915
2017-03-15,-0.2399885734376357
2017-03-16,-0.747372887348843
2017-03-17,0.006262313537856748
2017-03-20,-0.25232694234639264
2017-03-21,-0.09249664734462425
2017-03-22,0.14648319709354923
2017-03-23,0.38545575981171737
2017-03-24,-0.007428248461248528
2017-03-27,0.4073750790638826
2017-03-28,0.06071336455739454
2017-03-29,-0.10754405422057883
2017-03-30,-0.12138697362782948
2017-03-31,0.012775842044135592
2017-04-05,-0.3906726629138343
2017-04-06,-0.1208680970753736
2017-04-07,0.22735598006118657
2017-04-10,0.15902214566834988
2017-04-11,0.002193769517222503
2017-04-12,0.3677758600921254
2017-04-13,0.16105966331085864
2017-04-14,-0.3121951474836935
2017-04-17,-0.19641428611991535
2017-04-18,0.012662312191225636
2017-04-19,-0.4138105864468994
2017-04-20,-0.028417134635251855
2017-04-21,0.06329032546822538
2017-04-24,0.0689144920242195
2017-04-25,-0.016038114805375477
2017-04-26,0.02870878154149495
2017-04-27,-0.1442431363831253
2017-04-28,0.2344262295081917
2017-05-02,-0.06254196872184102
2017-05-03,-0.039813574516540585
2017-05-04,0.5277022449071753
2017-05-05,0.15843498490945837
2017-05-08,-0.2178939879046561
2017-05-09,0.05162568964593968
2017-05-10,0.0685185433932838
2017-05-11,-0.5308853598691377
2017-05-12,-0.10042559523809588
2017-05-15,-0.04186153630784695
2017-05-16,0.18086444482153588
2017-05-17,-0.07571570686415244
2017-05-18,0.25296049326903647
2017-05-19,0.0907956989247335
2017-05-22,0.21388586875380994
2017-05-23,-0.2550751684810811
2017-05-24,0.18177120245688555
2017-05-25,-0.2521762268597687
2017-05-26,-0.06322580645161638
2017-05-31,0.02641784290343678
2017-06-01,0.11067437379576234
2017-06-02,-0.21085115864527576
2017-06-05,0.25329516708826644
2017-06-06,-0.024821961698097673
2017-06-07,-0.37102437792093157
2017-06-08,0.05321110677683827
2017-06-09,-0.030177129460797758
2017-06-12,-0.15854873526318308
2017-06-13,0.20854524191574436
2017-06-14,0.30119047619047606
2017-06-15,-0.13961292071993087
2017-06-16,0.18460119204509662
2017-06-19,0.08532206642523192
2017-06-20,-0.1891028253745699
2017-06-21,-0.13752081252081128
2017-06-22,0.04971553538542673
2017-06-23,-0.008866054583197017
2017-06-26,-0.11875860881542723
2017-06-27,-0.02913505505711117
2017-06-28,-0.010567210567209967
2017-06-29,0.09724378881987863
2017-06-30,-0.15399956644265908
2017-07-03,0.2148228609625663
2017-07-04,0.3041856318333269
2017-07-05,0.052114773230309074
2017-07-06,-0.16044252907376183
2017-07-07,0.10931310577327907
2017-07-10,-0.1341434988981191
2017-07-11,-0.38375072801397814
2017-07-12,0.19153750295621177
2017-07-13,0.0956826644805084
2017-07-14,0.005219623745040581
2017-07-17,0.21485078181128694
2017-07-18,0.13531480587545777
2017-07-19,-0.264926337554923
2017-07-20,0.06478339179069383
2017-07-21,-0.023999166695603213
2017-07-24,-0.27261552102855724
2017-07-25,0.11639482466076052
2017-07-26,0.1915127480005329
2017-07-27,-0.11200088516382742
2017-07-28,0.01282129621020068
2017-07-31,0.042184670465143355
2017-08-01,-0.17457810376820812
2017-08-02,-0.17035994725759596
2017-08-03,0.14389792868877635
2017-08-04,-0.07825404941821967
2017-08-07,0.09704844715165417
2017-08-08,0.025027606192318474
2017-08-09,0.4457168644009737
2017-08-10,-0.2119727493050233
2017-08-11,0.2474479388294999
2017-08-14,-0.11105076953115472
2017-08-15,0.06648514878670435
2017-08-16,-0.6489069123499767
2017-08-17,0.2632583459247375
2017-08-18,-0.32459462130275707
2017-08-21,0.28193920984043025
2017-08-22,-0.055452885785663986
2017-08-23,0.4074156921414236
2017-08-24,-0.12215467572974067
2017-08-25,0.10353032972198778
2017-08-28,-0.309821038847666
2017-08-29,0.12496586145211863
2017-08-30,-0.1559160784979172
2017-08-31,-0.16522990581823224
2017-09-01,0.07622201635085546
2017-09-04,0.15917415048303812
2017-09-05,-0.2252303535496884
2017-09-06,0.05631598233783229
2017-09-07,0.24647217117353834
2017-09-08,0.16744987258583763
2017-09-11,-0.09005369817673585
2017-09-12,0.1740620219857093
2017-09-13,-0.030374903215885887
2017-09-14,-0.054707996641832735
2017-09-15,-0.3464459013150305
2017-09-18,-0.0026109179437831843
2017-09-19,-0.00980345301070984
2017-09-20,0.09867761410478972
2017-09-21,-0.0799389759650615
2017-09-22,0.33567050789585884
2017-09-25,-0.06618052369431171
2017-09-26,-0.06132545794676594
2017-09-27,-0.25423350829371333
2017-09-28,-0.03222658964413133
2017-09-29,-0.4343208365212936
2017-10-09,0.10833915116451062
2017-10-10,0.02531645569620267
2017-10-11,0.17058018264675556
2017-10-12,0.16584236037377817
2017-10-13,0.2646149875718353
2017-10-16,-0.035170103878709794
2017-10-17,0.05486284289276706
2017-10-18,-0.004262204778626388
2017-10-19,-0.2170632037171601
2017-10-20,0.1355525328426539
2017-10-23,0.1498491320192774
2017-10-24,-0.06325535419037742
2017-10-25,0.00729997783687961
2017-10-26,0.004849197965833968
2017-10-27,-0.20456956981495644
2017-10-30,-0.32360171363718965
2017-10-31,0.04846374905362072
2017-11-01,0.1651594606164368
2017-11-02,0.20488551176887462
2017-11-03,-0.014453839148538143
2017-11-06,0.3000604945479539
2017-11-07,-0.12019356191503199
2017-11-08,-0.3269363888079256
2017-11-09,-0.0522811810514805
2017-11-10,-0.012643226267900175
2017-11-13,-0.22076038937813652
2017-11-14,0.22337970414113162
2017-11-15,0.37389088456567654
2017-11-16,-0.2085511522419854
2017-11-17,0.1181231024660439
2017-11-20,0.050822619921430334
2017-11-21,-0.20338622751253202
2017-11-22,-0.5336744928364894
2017-11-23,0.30133922091678556
2017-11-24,0.07556464868329973
2017-11-27,0.27325090758054793
2017-11-28,0.112112431661748
2017-11-29,0.32413337862745184
2017-11-30,-0.16313315024958022
2017-12-01,-0.2529786256562446
2017-12-04,-0.3099786718138462
2017-12-05,-0.07606063068028182
2017-12-06,0.06393620388748236
2017-12-07,-0.03984882842025768
2017-12-08,0.12246326745868924
2017-12-11,-0.0010348811325630591
2017-12-12,-0.0012726038006946258
2017-12-13,-0.17409207576115326
2017-12-14,0.11443050669182714
2017-12-15,-0.07719992008837213
2017-12-18,0.31545125345506486
2017-12-19,0.026165976880263044
2017-12-20,0.0012699434524030273
2017-12-21,-0.10835130733531599
2017-12-22,0.14368081180811781
2017-12-25,-0.3519565531661309
2017-12-26,-0.06481632653061338
2017-12-27,0.21196546339287006
2017-12-28,0.1545158864924673
2017-12-29,-0.08897309991460409
2018-01-02,-0.006033300987324117
2018-01-03,0.054945674044266535
2018-01-04,-0.15759360492863125
2018-01-05,-0.23874841815339523
2018-01-08,0.057723099914604746
2018-01-09,0.15371120107962138
2018-01-10,0.03973614413755021
2018-01-11,-0.004824293845388416
2018-01-12,0.2579386686611824
2018-01-15,0.014296558704451942
2018-01-16,0.08568520862809377
2018-01-17,-0.06639610389609871
2018-01-18,-0.030662846135993273
2018-01-19,-0.2065122962144243
2018-01-22,-0.08537884381975695
2018-01-23,-0.12333496789357185
2018-01-24,0.0312943962115207
2018-01-25,0.57537795503741
2018-01-26,0.03104590965980289
2018-01-29,0.16704893893180228
2018-01-30,0.021584657017064895
2018-01-31,0.09723831768704298
2018-02-01,-0.7574190831568965
2018-02-02,0.2194480141603199
2018-02-05,-0.052726140815794575
2018-02-06,0.050594122388945555
2018-02-07,-0.1236635854945839
2018-02-08,0.3581060629678596
2018-02-09,-0.21956943887699487
2018-02-12,-0.19234980343966818
2018-02-13,-0.18423275880132617
2018-02-14,0.05730430127917478
2018-02-22,-0.19806635526692523
2018-02-23,0.021507298268089056
2018-02-26,0.06415085054126449
2018-02-27,0.16009874905580415
2018-02-28,-0.08819827440365195
2018-03-01,0.06848294794621426
2018-03-02,-0.0005821929109195122
2018-03-05,0.010061495183832099
2018-03-06,-0.047192222648611976
2018-03-07,0.004303232998879344
2018-03-08,0.06951687220968805
2018-03-09,-0.07292574708365247
2018-03-12,0.353991772300078
2018-03-13,-0.05112451514180849
2018-03-14,0.025630471804467647
2018-03-15,-0.0674457113119124
2018-03-16,0.1299106892669191
2018-03-19,-0.5000493080437896
2018-03-20,0.10816305469555856
2018-03-21,0.07792466072704958
2018-03-22,0.12921926133706882
2018-03-23,0.23062388144293516
2018-03-26,0.28855505517022273
2018-03-27,-0.0005545984083945646
2018-03-28,-0.031442784128304146
2018-03-29,-0.17954656316938958
2018-03-30,-0.4410681214811666
2018-04-02,-0.18655935292733883
2018-04-03,-0.14762661868867533
2018-04-04,-0.06772447956642655
2018-04-09,0.10520784812962455
2018-04-10,0.23530220720009334
2018-04-11,-0.026979350557941095
2018-04-12,0.18298068233771625
2018-04-13,0.25388924836777765
2018-04-16,-0.09615824370079665
2018-04-17,-0.10190445592269767
2018-04-18,0.24431775840226888
2018-04-19,0.04356322064475274
2018-04-20,-0.20774835714395043
2018-04-23,0.05016822895378703
2018-04-24,0.09780275154525278
2018-04-25,-0.21555555555556005
2018-04-26,-0.3211656222949685
2018-04-27,-0.09904644486487685
2018-05-02,0.0389748134295874
2018-05-03,-0.15955980088425764
2018-05-04,0.13623267439218573
2018-05-07,0.2716869386085835
2018-05-08,0.09943184310973091
2018-05-09,-0.06220270583993642
2018-05-10,0.08134974412287127
2018-05-11,-0.168636214823568
2018-05-14,0.037075750122972054
2018-05-15,-0.038448675070751656
2018-05-16,0.13581788453873256
2018-05-17,0.029355703931978113
2018-05-18,0.3084860659098833
2018-05-21,-0.14755639097744466
2018-05-22,0.051793026286954376
2018-05-23,-0.16894885147025418
2018-05-24,-0.03131731392600965
2018-05-25,-0.07514062511167957
2018-05-28,-0.024457634056490395
2018-05-29,0.1161448675890277
2018-05-30,0.01780080860998582
2018-05-31,0.21218582812785008
2018-06-01,0.053388195567125596
2018-06-04,0.10958852924229459
2018-06-05,-0.1626643097389217
2018-06-06,0.15034888051525908
2018-06-07,-0.2607959657896793
2018-06-08,-0.2811597567136062
2018-06-11,-0.09007301169709697
2018-06-12,0.008101253444852026
2018-06-13,-0.20606330331536926
2018-06-14,0.20292408458446942
2018-06-15,-0.022030531131378983
2018-06-19,0.1059549096882655
2018-06-20,0.025465979421372364
2018-06-21,0.1979274313515481
2018-06-22,-0.19394207562349067
2018-06-25,0.09768516874292138
2018-06-26,-0.040208901727920174
2018-06-27,0.03934638041468546
2018-06-28,-0.09430816133335941
2018-06-29,0.09462831246357287
2018-07-02,0.10459066102820266
2018-07-03,-0.12532090874170573
2018-07-04,0.12702314823137034
2018-07-05,-0.05180614185705399
2018-07-06,-0.004481779818507208
2018-07-09,-0.13674389762670192
2018-07-10,0.15910293015330218
2018-07-11,-0.11236348357170631
2018-07-12,0.32656807690088435
2018-07-13,-0.08900367975147336
2018-07-16,0.12804131440541439
2018-07-17,-0.05127373117909624
2018-07-18,-0.23755162189037313
2018-07-19,-0.5397453960982801
2018-07-20,0.133556208934356
2018-07-23,-0.16179533290612394
2018-07-24,-0.06755724556076532
2018-07-25,0.21778328212203338
2018-07-26,0.1800154604993296
2018-07-27,-0.08089789007670478
2018-07-30,0.09951577113155478
2018-07-31,0.028417293518731117
2018-08-01,-0.046202197372286175
2018-08-02,0.4084463011907827
2018-08-03,-0.01776262117413728
2018-08-06,0.08682576639502793
2018-08-07,0.21203780069098596
2018-08-08,0.06264920045522651
2018-08-09,-0.5181361387872921
2018-08-10,0.04975298338654607
2018-08-13,-0.1579332990090746
2018-08-14,-0.20215299508702694
2018-08-15,0.0006806924663158576
2018-08-16,0.33193336142429164
2018-08-17,-0.009313418328390928
2018-08-20,0.13795201058352413
2018-08-21,-0.13143475556237608
2018-08-22,-0.08797845726377738
2018-08-23,-0.15579596556597952
2018-08-24,-0.06477088849662134
2018-08-27,-0.048306909501559275
2018-08-28,0.1580327174956334
2018-08-29,-0.002488418173332757
2018-08-30,-0.08634205925322522
2018-08-31,0.1754114420062711
2018-09-03,0.11534500833095068
2018-09-04,0.09133540116243635
2018-09-05,0.05351607592224629
2018-09-06,0.12620218040512488
2018-09-07,-0.10185534242525107
2018-09-10,-0.29073769507998615
2018-09-11,-0.15648307405480125
2018-09-12,0.04677005091255257
2018-09-13,0.011969895175712841
2018-09-14,-0.1846573645240239
2018-09-17,0.3046206790961211
2018-09-18,0.06598174487553832
2018-09-19,-0.06462443304548382
2018-09-20,-0.12980777163600346
2018-09-21,0.28449384458558213
2018-09-25,-0.3163572577724251
2018-09-26,-0.04041681577819059
2018-09-27,0.007177033492817068
2018-09-28,0.18797831300177703
2018-10-08,-0.11422828299886109
2018-10-09,0.3318215479622313
2018-10-10,0.12237788138917202
2018-10-11,0.08825531067280863
2018-10-12,-0.04403213877101193
2018-10-15,-0.04725324549507428
2018-10-16,-0.09225852711197238
2018-10-17,-0.169678336149541
2018-10-18,-0.10331497054231717
2018-10-19,-0.011809754878252088
2018-10-22,0.06316016097257027
2018-10-23,-0.22524969145908152
2018-10-24,0.08753428578818076
2018-10-25,0.05452336673968877
2018-10-26,-0.045420795930979516
2018-10-29,-0.05887538322813166
2018-10-30,0.12960178654343435
2018-10-31,0.003103853478668625
2018-11-01,-0.17979166888597797
2018-11-02,-0.04692937129619867
2018-11-05,0.1461842589677777
2018-11-06,0.06774120659787866
2018-11-07,0.07052245482197106
2018-11-08,0.13700057343428768
2018-11-09,-0.03329994590165004
2018-11-12,-0.1286141388975413
2018-11-13,-0.09769921081261898
2018-11-14,-0.10093239271016971
2018-11-15,0.010392630275382963
2018-11-16,0.12521237931726503
2018-11-19,0.016493590879557977
2018-11-20,0.03668232303965671
2018-11-21,0.07131059482616625
2018-11-22,0.0140084214850563
2018-11-23,0.10419081307543956
2018-11-26,0.014126336422139625
2018-11-27,0.09742968587872772
2018-11-28,-0.1080095610735195
2018-11-29,-0.10571835571835264
2018-11-30,-0.2893245457986806
2018-12-03,0.17503718329362455
2018-12-04,-0.13540090199879298
2018-12-05,0.07126121770039641
2018-12-06,0.1377769947537369
2018-12-07,0.1626579080018069
2018-12-10,-0.39152802056983715
2018-12-11,0.06738596990591496
2018-12-12,-0.09569778071729428
2018-12-13,-0.04742402186741054
2018-12-14,-0.12874683866799014
2018-12-17,0.2876086386760547
2018-12-18,-0.04768637058299403
2018-12-19,0.25567108528873006
2018-12-20,-0.0625098905092411
2018-12-21,0.1714010513599138
2018-12-24,-0.18229406250181673
2018-12-25,0.1880213968024992
2018-12-26,-0.2343218853163433
2018-12-27,0.09589120236637266
2018-12-28,-0.1080580222279797
2019-01-02,0.21466159695817022
2019-01-03,-0.0907511279112318
2019-01-04,0.09211285990410739
2019-01-07,-0.033396917673419554
2019-01-08,0.04635066648923434
2019-01-09,-0.2101256890848912
2019-01-10,-0.2653779177147275
2019-01-11,-0.17876039304610314
2019-01-14,-0.05764815611996174
2019-01-15,0.06295372050816511
2019-01-16,0.1488503267660543
2019-01-17,0.18885844363881718
2019-01-18,0.26238364902687733
2019-01-21,0.19157180085036773
2019-01-22,0.02713345130486105
2019-01-23,-0.091645353793693
2019-01-24,0.03363218390804541
2019-01-25,-0.1076651986448261
2019-01-28,-0.20510909225688045
2019-01-29,-0.12802208261945536
2019-01-30,0.229793336903161
2019-01-31,0.030899835796386922
2019-02-01,-0.01717100894768899
2019-02-11,0.1488374984458521
2019-02-12,0.09297683831241552
2019-02-13,-0.17628080547058605
2019-02-14,-0.012405880701394617
2019-02-15,0.09284744693444626
2019-02-18,-0.07168454035923776
2019-02-19,-0.10281934280732362
2019-02-20,-0.10182556895728907
2019-02-21,-0.060849652645577484
2019-02-22,-0.14139241382416434
2019-02-25,-0.12801056469093153
2019-02-26,0.10610002996216109
2019-02-27,0.032772022144146346
2019-02-28,0.060933711734981466
2019-03-01,0.11448672894455739
2019-03-04,0.18093784604900887
2019-03-05,0.02293481277688548
2019-03-06,0.03831872188797879
2019-03-07,0.09719010175763143
2019-03-08,-0.06784105534105643
2019-03-11,-0.10990690384021844
2019-03-12,-0.13405717988631818
2019-03-13,0.2200974069992599
2019-03-14,-0.22438238875142258
2019-03-15,-0.04931455633100837
2019-03-18,0.06258957147454497
2019-03-19,0.13053351748948425
2019-03-20,-0.39531377239413823
2019-03-21,0.06610256982311771
2019-03-22,0.14649699717783288
2019-03-25,0.012676745431677306
2019-03-26,-0.24655298487818056
2019-03-27,0.31243921261840335
2019-03-28,0.07258506050340885
2019-03-29,-0.19579355195793502
2019-04-01,0.10004963164944153
2019-04-02,0.22857419329867532
2019-04-03,-0.053362422503398774
2019-04-04,-0.07043375491349915
2019-04-08,0.07102672292545906
2019-04-09,-0.2221096611721603
2019-04-10,-0.08559104931171076
2019-04-11,-0.15553884693690756
2019-04-12,0.12396032337337055
2019-04-15,0.06419002918339564
2019-04-16,0.17701047081173657
2019-04-17,0.09700369620360239
2019-04-18,0.2481636209823697
2019-04-19,-0.23129411557945015
2019-04-22,0.051026634134534656
2019-04-23,-0.22226875583380323
2019-04-24,-0.15493001547149488
2019-04-25,-0.4221612846378552
2019-04-26,0.2251776935842449
2019-04-29,-0.16731977513227836
2019-04-30,0.1225520755688695
2019-05-06,0.8458122768277654
2019-05-07,0.2508579788273387
2019-05-08,-0.14048345153626177
2019-05-09,0.07438537377912816
2019-05-10,0.15702628727612905
2019-05-13,-1.1090018743859487
2019-05-14,0.1877545081581492
2019-05-15,0.15070531584410207
2019-05-16,0.026862148870927055
2019-05-17,-0.27673938690890887
2019-05-20,0.36283756975304704
2019-05-21,-0.22112543784014518
2019-05-22,-0.14285786491581903
2019-05-23,-0.04844117595526026
2019-05-24,0.9846554038842996
2019-05-27,0.020500207114432678
2019-05-28,0.016355105517285903
2019-05-29,0.06267283471387212
2019-05-30,0.030078827723809428
2019-05-31,-1.271048284173892
2019-06-03,-0.020048511225749494
2019-06-04,-0.012976079319465553
2019-06-05,-0.10633847740512745
2019-06-06,0.22522881869012723
2019-06-10,0.4409499256946654
2019-06-11,0.03383207043563942
2019-06-12,0.08165195297876046
2019-06-13,0.288651289227539
2019-06-14,-0.24628268786832502
2019-06-17,-0.05719973855844236
2019-06-18,-0.1897328525312881
2019-06-19,0.04493308627135506
2019-06-20,-0.38752076475758623
2019-06-21,0.0721915523844238
2019-06-24,0.026614128869195668
2019-06-25,0.2421588261630685
2019-06-26,-0.1865028325130193
2019-06-27,0.22435428151414957
2019-06-28,-0.1852412475095928
2019-07-01,0.28350643215068705
2019-07-02,-0.030054037362968383
2019-07-03,0.0852302400784969
2019-07-04,-0.0682693602693589
2019-07-05,0.1803147710843001
2019-07-08,-0.29057531121608854
2019-07-09,-0.1864815735703549
2019-07-10,0.31079156396528673
2019-07-11,0.07449234307807119
2019-07-12,-0.06565808327335973
2019-07-15,0.06654133349420427
2019-07-16,0.41101153508766564
2019-07-17,-0.37129860280295146
2019-07-18,0.2897711959489101
2019-07-19,0.12934161408608108
2019-07-22,0.0191359370815274
2019-07-23,-0.40840140659376356
2019-07-24,0.08861875776834204
2019-07-25,-0.4419721679387437
2019-07-26,-0.12871741201225934
2019-07-29,-0.17755212974400936
2019-07-30,0.24932529352386573
2019-07-31,-0.03157088985756977
2019-08-01,0.0007909654493570978
2019-08-02,0.11996173469388008
2019-08-05,0.3161694692601911
2019-08-06,-0.22619338151119645
2019-08-07,0.08287344455133472
2019-08-08,0.5618029991541906
2019-08-09,-0.09815834670494226
2019-08-12,-0.04960039496001048
2019-08-13,0.10332258281260498
2019-08-14,-0.09860862527170328
2019-08-15,-0.729903982976722
2019-08-16,0.02188581434569234
2019-08-19,-0.5258405505663366
2019-08-20,-0.004310570917233054
2019-08-21,0.18759250072347172
2019-08-22,0.31145434505704017
2019-08-23,-0.15045970581784587
2019-08-26,0.4575521841324377
2019-08-27,-0.04643642365480573
2019-08-28,-0.25406045699440183
2019-08-29,-0.1539197335320015
2019-08-30,0.32389075138062706
2019-09-02,-0.3052044857012235
2019-09-03,0.808948908526816
2019-09-04,0.1887449854147173
2019-09-05,0.327086595542077
2019-09-06,-0.16609136241683967
2019-09-09,0.3839548303656979
2019-09-10,-0.9867868208637627
2019-09-11,-0.16408885285979274
2019-09-12,-0.3781410202090535
2019-09-16,0.06795325737657297
2019-09-17,-0.13527538172787462
2019-09-18,0.21029603464804197
2019-09-19,0.04888789798923458
2019-09-20,0.23527882369288372
2019-09-23,-0.26881067721206325
2019-09-24,-0.11344244923956073
2019-09-25,-0.056969798917556054
2019-09-26,0.054337502378058775
2019-09-27,-0.20756992920181347
2019-09-30,0.10402666631040393
2019-10-08,0.2023025348466597
2019-10-09,-0.03330436533437761
2019-10-10,0.06075153004182636
2019-10-11,0.15122036473174577
2019-10-14,0.24907911420146783
2019-10-15,-0.06664218359004451
2019-10-16,0.12461038629228366
2019-10-17,0.10587323916465512
2019-10-18,-0.00012143852658158018
2019-10-21,-0.12555710445654802
2019-10-22,-0.22902921502305068
2019-10-23,0.296513471728531
2019-10-24,-0.2545618612994954
2019-10-25,-0.012860296436455209
2019-10-28,-0.1280821393363378
2019-10-29,0.32831241993891436
2019-10-30,-0.5392258676916994
2019-10-31,-0.1102329084825347
2019-11-01,-0.00873749970679543
2019-11-04,-0.0590130023640668
2019-11-05,-0.264772918400194
2019-11-06,0.1359843614727311
2019-11-07,0.4370984987518427
2019-11-08,-0.04993260200985314
2019-11-11,0.2889775917159413
2019-11-12,0.10678096969191957
2019-11-13,0.17376878175920085
2019-11-14,-0.4257610534597861
2019-11-15,0.23891019285866855
2019-11-18,-0.059067551764209705
2019-11-19,-0.04417431275911094
2019-11-20,-0.07641985617946617
2019-11-21,0.19438471512453442
2019-11-22,-0.27783832540058095
2019-11-25,-0.17952052153813336
2019-11-26,0.008913649577141067
2019-11-27,-0.08108744208216229
2019-11-28,-0.01394899334461771
2019-11-29,0.09372383681746511
2019-12-02,0.05724700035773042
2019-12-03,-0.033744702656195745
2019-12-04,0.3245299444908841
2019-12-05,-0.15413347981323855
2019-12-06,0.0610936682365246
2019-12-09,0.09597918370800818
2019-12-10,0.15625779795872563
2019-12-11,-0.3322059881482027
2019-12-12,0.23494624786498253
2019-12-13,-0.10624966166837849
2019-12-16,-0.13712161963909691
2019-12-17,-0.1060978620451315
2019-12-18,0.006276901004303323
2019-12-19,-0.053500273022712395
2019-12-20,0.0016954292898772316
2019-12-23,0.03764331838890774
2019-12-24,0.08996453716077521
2019-12-25,-0.02597370006022877
2019-12-26,-0.18835145606799594
2019-12-27,0.1608970124054927
2019-12-30,0.026472834991322258
2019-12-31,-0.06600352362956129
2020-01-02,0.138306384202239
2020-01-03,0.42944546247776494
2020-01-06,-0.1792342233226178
2020-01-07,0.040375714354989
2020-01-08,-0.031232735313874802
2020-01-09,0.017623314005281263
2020-01-10,-0.5101264395317953
2020-01-13,0.0785451794546064
2020-01-14,0.1471349337142851
2020-01-15,-0.008684834159177188
2020-01-16,-0.11448609447509903
2020-01-17,0.4827325157080229
2020-01-20,-0.07523755984572394
2020-01-21,-0.261421477321619
2020-01-22,0.15756329520627252
2020-01-23,0.07166032414147713
2020-02-03,-0.42126092092069856
2020-02-04,0.22884213857611482
2020-02-05,0.0002923858505016752
2020-02-06,-0.2280238869181173
2020-02-07,-0.12479940836441583
2020-02-10,0.15001209869119875
2020-02-11,-0.23595062258167843
2020-02-12,0.1460291524015681
2020-02-13,0.11895130627295733
2020-02-14,0.19693874423207594
2020-02-17,-0.02732286294463894
2020-02-18,0.04898093422307104
2020-02-19,-0.21435363004509939
2020-02-20,-0.04019930875576386
2020-02-21,-0.1971120056226515
2020-02-24,0.12249074584167594
2020-02-25,-0.049408461628672684
2020-02-26,0.23260231833275974
2020-02-27,0.03314285714286382
2020-02-28,0.18855997533149288
2020-03-02,0.11176404910354307
2020-03-03,0.140256977545398
2020-03-04,-0.17120218185928954
2020-03-05,0.06488499194025706
2020-03-06,-0.21211412829390197
2020-03-09,-0.278506954182778
2020-03-10,0.1083960872543279
2020-03-11,0.2150317922077655
2020-03-12,-0.10428147140379945
2020-03-13,0.41291337962809116
2020-03-16,0.0693728294702467
2020-03-17,-0.36999688725638247
2020-03-18,0.09282628805856391
2020-03-19,0.3009027556141673
2020-03-20,-0.39092350927155733
2020-03-23,0.04145068589367615
2020-03-24,0.284634165746735
2020-03-25,-0.3370371930810109
2020-03-26,-0.47321237826768975
2020-03-27,0.05661005137556009
2020-03-30,-0.07287512987199475
2020-03-31,-0.145211815014155
2020-04-01,-0.03568191681553544
2020-04-02,0.41841605882701777
2020-04-03,0.021170453176912452
2020-04-07,-0.04749236861139628
2020-04-08,0.13171522496894628
2020-04-09,0.16547625218127265
2020-04-10,-0.3070817039218524
2020-04-13,0.05259607901271634
2020-04-14,0.07200407689560934
2020-04-15,-0.17305417640569457
2020-04-16,0.017464317854866365
2020-04-17,0.1025743903837022
2020-04-20,0.27850331486694435
2020-04-21,0.11560443072403673
2020-04-22,0.24291907537382465
2020-04-23,-0.027967822597021182
2020-04-24,-0.011554680579955923
2020-04-27,-0.36870466014093467
2020-04-28,-0.11824459969484928
2020-04-29,-0.3150500457238804
2020-04-30,-0.022148196006140243
2020-05-06,0.1320957197186158
2020-05-07,-0.03748593383100787
2020-05-08,0.04262672811059655
2020-05-11,0.19648119004577264
2020-05-12,0.11068812288286009
2020-05-13,-0.27118118231046273
2020-05-14,0.03867370718900609
2020-05-15,-0.07960151802656745
2020-05-18,-0.025399221112592144
2020-05-19,-0.10781660670762733
2020-05-20,0.058775052742608094
2020-05-21,0.31450987062412694
2020-05-22,0.8346490032528352
2020-05-25,-0.04388060287563046
2020-05-26,-0.03606264163524729
2020-05-27,0.13190140927177685
2020-05-28,-0.3499598586293374
2020-05-29,-1.3016591057126892
2020-06-01,0.3691680023599405
2020-06-02,0.04762065928467562
2020-06-03,-0.06465611601049115
2020-06-04,0.14353856630700068
2020-06-05,0.5574028211519185
2020-06-08,-0.5903630634564796
2020-06-09,0.022561395101986653
2020-06-10,0.04947742459880963
2020-06-11,0.05912561716049551
2020-06-12,-0.06001014220870114
2020-06-15,0.35511720722086837
2020-06-16,0.16736063081916286
2020-06-17,-0.06757751198201829
2020-06-18,-0.235967956270752
2020-06-19,0.0842877476048235
2020-06-22,-0.05107351948564993
2020-06-23,-0.33916287186129246
2020-06-24,-0.02511123470522745
2020-06-29,0.23773584905661174
2020-06-30,-0.14009290691441892
2020-07-01,-0.13367446800616267
2020-07-02,0.19179650942741125
2020-07-03,0.3299676282042398
2020-07-06,-0.0541373156757823
2020-07-07,0.12103572169880465
2020-07-08,0.07667397163650361
2020-07-09,-0.03479686211079403
2020-07-10,-0.18938681594366163
2020-07-13,0.005260254266961764
2020-07-14,0.04215593828515714
2020-07-15,0.01549243278053051
2020-07-16,0.13081184861756665
2020-07-17,-0.2398738021446255
2020-07-20,-0.15854942015559692
2020-07-21,-0.17480135731869817
2020-07-22,0.037903322883923646
2020-07-23,-0.333345283664081
2020-07-24,0.36468917793141703
2020-07-27,0.19946999790609182
2020-07-28,0.30346531409828753
2020-07-29,-0.04016220223120244
2020-07-30,0.2802234831192003
2020-07-31,-0.2369801612185805
2020-08-03,-0.15372741688714003
2020-08-04,-0.33456079174684783
2020-08-05,0.03788574284186038
2020-08-06,0.0850227420402838
2020-08-07,0.07111075434049564
2020-08-10,0.13479084824257787
2020-08-11,0.17010345303058544
2020-08-12,-0.018047376250021684
2020-08-13,-0.35673126443885195
2020-08-14,-0.02063375092115148
2020-08-17,-0.17895976154993176
2020-08-18,-0.13504251418164895
2020-08-19,-0.12487392400660473
2020-08-20,0.3387095242391589
2020-08-21,-0.08704927638581667
2020-08-24,0.15919775070290798
2020-08-25,0.10979444535216107
2020-08-26,0.1933709054676757
2020-08-27,-0.23645601364595198
2020-08-28,0.04276264886479497
2020-08-31,-0.17707910023426465
2020-09-01,0.12649041860767557
2020-09-02,-0.16845923811788693
2020-09-03,0.33587492337289426
2020-09-04,0.07640548493802168
2020-09-07,0.1399303424546002
2020-09-08,-0.2619351975494135
2020-09-09,0.14776883699183108
2020-09-10,-0.44776384773193223
2020-09-11,-0.06292727122971885
2020-09-14,0.0742800114057642
2020-09-15,0.08145798801479173
2020-09-16,-0.142555403453811
2020-09-17,0.3218695387888437
2020-09-18,0.013010768080675875
2020-09-21,-0.10981004423627658
2020-09-22,0.3134593747488566
2020-09-23,0.13214197985753204
2020-09-24,-0.15789594497587645
2020-09-25,0.03011944551301226
2020-09-28,-0.023002339962430392
2020-09-29,-0.46777284210310643
2020-09-30,-0.049171082565241206
2020-10-09,0.07379452250728019
2020-10-12,-0.07006179719766537
2020-10-13,-0.027430163399141005
2020-10-14,0.1856902789484537
2020-10-15,-0.11882466548595164
2020-10-16,-0.08634914506183564
2020-10-19,0.008235352652879196
2020-10-20,0.08145568620228985
2020-10-21,0.06331406551059864
2020-10-22,0.177133793907914
2020-10-23,-0.06523849017981614
2020-10-26,0.209851201711327
2020-10-27,0.04765133026002469
2020-10-28,0.42620709605875384
2020-10-29,-0.04345869803063611
2020-10-30,0.3173166364936628
2020-11-02,-0.21318493150684362
2020-11-03,-0.11481571782681156
2020-11-04,-0.7121255021369669
2020-11-05,-0.08966265412480819
2020-11-06,-0.39678036107238646
2020-11-09,0.21412478647972552
2020-11-10,0.16615377257943803
2020-11-11,0.16676152437740033
2020-11-12,0.13615992826811002
2020-11-13,0.1963996411211976
2020-11-16,-0.3080778165919736
2020-11-17,0.04285083843124214
2020-11-18,0.006110350535837916
2020-11-19,-0.14443549253410654
2020-11-20,-0.03361275283855877
2020-11-23,0.16853966007246368
2020-11-24,-0.29195482362306724
2020-11-25,0.14020865613056746
2020-11-26,0.1051976647879958
2020-11-27,0.16260640314055802
2020-11-30,-0.007904375829536327
2020-12-01,0.22090676809616736
2020-12-02,-0.12291943614937521
2020-12-03,-0.050581814818243045
2020-12-04,-0.2255960693421871
2020-12-07,-0.014470203087232004
2020-12-08,-0.2557301412291091
2020-12-09,0.079447623409266
2020-12-10,0.13075981206397252
2020-12-11,0.4869591247837548
2020-12-14,0.11665705182171686
2020-12-15,0.19117884880428304
2020-12-16,0.15986400350446175
2020-12-17,-0.15971160330678602
2020-12-18,-0.5474370234840797
2020-12-21,-0.20292452528927002
2020-12-22,0.20955140813992865
2020-12-23,-0.22186050278190306
2020-12-24,0.03552871485976919
2020-12-25,0.13799542326846675
2020-12-28,-0.0037288040475239315
2020-12-29,-0.40437575484756094
2020-12-30,-0.15003932499952208
2020-12-31,0.004777430377371654
2021-01-04,0.2341945835587833
2021-01-05,0.05598783945064724
2021-01-06,0.13038528811152458
2021-01-07,0.3097678183013821
2021-01-08,0.11418900971529938
2021-01-11,-0.19706798411794332
2021-01-12,0.14187098988933539
2021-01-13,0.034298159689707584
2021-01-14,-0.20983330734524186
2021-01-15,-0.0590972585528483
2021-01-18,-0.1451632240671576
2021-01-19,-0.2555614219433961
2021-01-20,0.08010653335754278
2021-01-21,0.10860258026685721
2021-01-22,-0.10079386567555565
2021-01-25,0.22905592367683414
2021-01-26,0.14986327104972857
2021-01-27,-0.1688219793342004
2021-01-28,-0.13307328763888066
2021-01-29,0.005014705659405885
2021-02-01,-0.30793522920889427
2021-02-02,-0.042964872429437674
2021-02-03,0.20180310855376715
2021-02-04,0.048941752658494306
2021-02-05,0.09224420284952961
2021-02-08,0.15732634739477241
2021-02-09,0.0640903845630675
2021-02-10,-0.12876026028865467
2021-02-18,0.11660785704946582
2021-02-19,0.1054433350553994
2021-02-22,0.3360387388337511
2021-02-23,0.059005189620756474
2021-02-24,0.032863228491227706
2021-02-25,0.07299053686675108
2021-02-26,-0.10928887138126156
2021-03-01,-0.37561997340557873
2021-03-02,-0.12958459943728678
2021-03-03,-0.012042807613878728
2021-03-04,-0.23132797717268389
2021-03-05,-0.16518153438248423
2021-03-08,0.10864333807010507
2021-03-09,0.1602879384299314
2021-03-10,0.0020535472307510205
2021-03-11,0.0630598092022738
2021-03-12,0.08911012025343198
2021-03-15,-0.06318884822321172
2021-03-16,-0.30667682132531326
2021-03-17,-0.0390746147231654
2021-03-18,0.0019679767495454185
2021-03-19,0.05113755266455181
2021-03-22,-0.028468915309551167
2021-03-23,0.20322836629084284
2021-03-24,0.209232213539023
2021-03-25,0.0009617247110443039
2021-03-26,0.03786080486172782
2021-03-29,0.018715184759960063
2021-03-30,-0.06344558467854053
2021-03-31,-0.20406318510520138
2021-04-01,-0.05334643691953972
2021-04-02,-0.16177412997890878
2021-04-06,0.16978894188849628
2021-04-07,-0.0032552956981550182
2021-04-08,-0.04134900256764626
2021-04-09,0.1424086060089278
2021-04-12,0.28884304276794176
2021-04-13,-0.20919481308500223
2021-04-14,0.05209991649945353
2021-04-15,0.02806224899598759
2021-04-16,0.009069274698400145
2021-04-19,-0.26834939354715304
2021-04-20,0.09381126358938585
2021-04-21,0.05185049758975141
2021-04-22,0.06184461119686884
2021-04-23,-0.12442616848933741
2021-04-26,0.03949315575287106
2021-04-27,0.1686950146627502
2021-04-28,-0.06084719427392813
2021-04-29,0.039935303096857874
2021-04-30,0.14437420834308592
2021-05-06,0.11964678384155034
2021-05-07,-0.256631382316313
2021-05-10,0.06932221585558324
2021-05-11,-0.01174972351896332
2021-05-12,-0.1498873689123191
2021-05-13,-0.05136645719968527
2021-05-14,0.1297809969293428
2021-05-17,-0.06791277258567145
2021-05-18,-0.019270054170605927
2021-05-19,0.025540460569961683
2021-05-20,-0.015778030045157425
2021-05-21,0.0034890470995880066
2021-05-24,0.0018836739770845877
2021-05-25,-0.11896637723846099
2021-05-26,0.04358324135482829
2021-05-27,-0.11480700612088125
2021-05-28,0.11654167779173102
2021-05-31,-0.044852423977084374
2021-06-01,0.13121451278997837
2021-06-02,0.0037348309225480915
2021-06-03,0.13151144965886208
2021-06-04,-0.4103520566760652
2021-06-07,0.12689988342898229
2021-06-08,-0.07064462165692567
2021-06-09,0.03616579542506118
2021-06-10,-0.024368310293008736
2021-06-11,0.3829160316423539
2021-06-15,-0.025411339969430957
2021-06-16,0.16461540393034582
2021-06-17,-0.07097843916284871
2021-06-18,0.007808052105334574
2021-06-21,-0.19778126148084452
2021-06-22,-0.05180144720632268
2021-06-23,-0.28200336110137236
2021-06-24,-0.020758372463147698
2021-06-25,0.04203649971543572
2021-06-28,0.01198263323311017
2021-06-29,-0.13653705066678745
2021-06-30,0.2050454864789873
2021-07-01,0.11862454271519898
2021-07-02,-0.12478316242065926
2021-07-05,0.06674451677798104
2021-07-06,0.12097516699859343
2021-07-07,0.07988254628502794
2021-07-08,-0.17804124150197592
2021-07-09,0.20703023858607614
2021-07-12,0.022819288102894603
2021-07-13,-0.02311993290466984
2021-07-14,-0.2739734010178625
2021-07-15,0.1663378288378276
2021-07-16,-0.0877254917174253
2021-07-19,-0.0805083687693195
2021-07-20,0.1295244459293891
2021-07-21,0.20291294273419552
2021-07-22,-0.10352791148245406
2021-07-23,-0.08086963035891644
2021-07-26,0.09948357065451502
2021-07-27,-0.08688423038498413
2021-07-28,-0.0003098213215153578
2021-07-29,0.03556133213456656
2021-07-30,-0.007709952198461559
2021-08-02,-0.0337394382437175
2021-08-03,0.023013094347422026
2021-08-04,-0.17904505837643375
2021-08-05,-0.007266655159540937
2021-08-06,-0.00557016082250391
2021-08-09,0.0535748540736046
2021-08-10,-0.16287092377057785
2021-08-11,0.12523613913793966
2021-08-12,0.27542460296802945
2021-08-13,0.028311862501126175
2021-08-16,-0.2494852136396495
2021-08-17,0.12215233020477703
2021-08-18,0.03711677618962409
2021-08-19,-0.536965538529595
2021-08-20,0.11032078534503514
2021-08-23,0.3296781421710373
2021-08-24,0.03239591020188735
2021-08-25,-0.11096220960183967
2021-08-26,0.3274758693506739
2021-08-27,-0.10996085157200307
2021-08-30,-0.032834046907590286
2021-08-31,-0.012185591646611123
2021-09-01,0.08670284529508238
2021-09-02,-0.09142871616723262
2021-09-03,0.013624632069893002
2021-09-06,-0.2703104475240853
2021-09-07,-0.027315840180043943
2021-09-08,0.09240262277259308
2021-09-09,0.24205476130608305
2021-09-10,0.13592521405972574
2021-09-13,0.25264720375784666
2021-09-14,0.04097705363286546
2021-09-15,-0.1756153422864657
2021-09-16,-0.15179419338343533
2021-09-17,-0.19605251999415138
2021-09-22,-0.18867094733162035
2021-09-23,-0.0439409704912847
2021-09-24,0.19378624518449422
2021-09-27,-0.11950474766054095
2021-09-28,0.13278756161667238
2021-09-29,-0.035067627334706794
2021-09-30,0.08761685205811534
2021-10-08,-0.13092778584684767
2021-10-11,0.00483924095025446
2021-10-12,-0.1238003857618073
2021-10-13,0.22151858331980734
2021-10-14,-0.022285612780938074
2021-10-15,-0.0521797194629801
2021-10-18,0.06682151611275414
2021-10-19,0.024490123408722066
2021-10-20,0.008629715393148704
2021-10-21,0.24114748417306825
2021-10-22,0.1697562470392716
2021-10-25,-0.0041643968114575755
2021-10-26,0.07815817790723736
2021-10-27,-0.15956116892308211
2021-10-28,-0.5310859492197835
2021-10-29,-0.267398152716113
2021-11-01,-0.014548797888581969
2021-11-02,0.02015272569696816
2021-11-03,-0.002157286214368781
2021-11-04,0.271215175504783
2021-11-05,0.17731063541081105
2021-11-08,-0.05220048320621478
2021-11-09,-0.17467881768532495
2021-11-10,0.016457603579022265
2021-11-11,-0.021167154366348556
2021-11-12,-0.1304208904763683
2021-11-15,0.07277111474985418
2021-11-16,0.1490171869127995
2021-11-17,-0.06344118766653956
2021-11-18,-0.16338136258202382
2021-11-19,0.4884650612042485
2021-11-22,-0.06589526160162573
2021-11-23,0.07611423185193752
2021-11-24,0.11568360847139458
2021-11-25,0.2225916324087614
2021-11-26,-0.4983001646071415
2021-11-29,0.14019745804672878
2021-11-30,-0.22349041150309928
2021-12-01,0.01936366000685863
2021-12-02,-0.11293374792143139
2021-12-03,0.08920996351993164
2021-12-06,-0.023449209654368558
2021-12-07,0.059361806230078085
2021-12-08,-0.0861001603835131
2021-12-09,0.08146024982676509
2021-12-10,-0.13583623935430827
2021-12-13,-0.278547121466888
2021-12-14,0.16950098135779726
2021-12-15,0.047330320067614506
2021-12-16,-0.021177413839858404
2021-12-17,0.24306747244526358
2021-12-20,0.39951509682300396
2021-12-21,-0.11910522160570361
2021-12-22,-0.02284407441669391
2021-12-23,-0.061027422038926575
2021-12-24,-0.19048985697017679
2021-12-27,-0.36379746313930167
2021-12-28,-0.049760213750495726
2021-12-29,0.12767954462880368
2021-12-30,0.004284457070514752
2021-12-31,0.15855610832847633
2022-01-04,0.25215107283783794
2022-01-05,0.16499955071599326
2022-01-06,-0.14157473690740222
2022-01-07,0.18921699268158024
2022-01-10,0.030551816221776697
2022-01-11,0.13073195505427365
2022-01-12,-0.06893905887713858
2022-01-13,0.1256026511356158
2022-01-14,-0.10985490923947117
2022-01-17,0.04022780437481399
2022-01-18,-0.30628364012046805
2022-01-19,-0.06628318568617073
2022-01-20,0.21276686467486033
2022-01-21,-0.035624745503270897
2022-01-24,-0.053621490278066994
2022-01-25,0.22363740767913506
2022-01-26,0.03703860001786531
2022-01-27,-0.5106795837068749
2022-01-28,-0.06515546373857134
2022-02-07,-0.08661900404947674
2022-02-08,-0.2071045320951198
2022-02-09,0.0975879148811992
2022-02-10,0.1979787074893961
2022-02-11,0.15510310161503665
2022-02-14,0.0270263510948687
2022-02-15,0.1551276923284335
2022-02-16,-0.2546195254228644
2022-02-17,-0.03299716106342377
2022-02-18,-0.1430322714483901
2022-02-21,-0.12855436260678152
2022-02-22,-0.2495049295759759
2022-02-23,0.29555618274625234
2022-02-24,0.2625549802853299
2022-02-25,0.3310078948127808
2022-02-28,0.20760846606756078
2022-03-01,0.17314325036455436
2022-03-02,-0.1979870405612535
2022-03-03,0.1920095889874903
2022-03-04,-0.3833240774731824
2022-03-07,0.23776112580491915
2022-03-08,-0.04991609558111915
2022-03-09,-0.025479189955855457
2022-03-10,-0.8489952128491418
2022-03-11,-0.13042779119207637
2022-03-14,0.25731147742649635
2022-03-15,0.6254552593256749
2022-03-16,0.506863503143101
2022-03-17,0.6041687813277681
2022-03-18,0.3306681145689277
2022-03-21,-0.7720448513749075
2022-03-22,-0.679784159737993
2022-03-23,-0.6361313713612591
2022-03-24,-0.07159506317001604
2022-03-25,0.3122560694927703
2022-03-28,0.38016799508525256
2022-03-29,0.12600961180325776
2022-03-30,0.27449845889482727
2022-03-31,-0.1335209519727103
2022-04-01,-0.6561229454841542
2022-04-06,-0.46705190782715206
2022-04-07,-0.034155495877662145
2022-04-08,-0.24443493391204313
2022-04-11,-0.039562506552655134
2022-04-12,0.2647238263386327
2022-04-13,0.3937769286507131
2022-04-14,-0.05097214185576977
2022-04-15,0.17720137573788447
2022-04-18,0.01948551917400146
2022-04-19,0.09792298027948962
2022-04-20,-0.18130908441706506
2022-04-21,0.03503764084910441
2022-04-22,-0.0390314725391532
2022-04-25,0.3298054423478575
2022-04-26,-0.1525210824734091
2022-04-27,0.0572443214558559
2022-04-28,0.03919355325189671
2022-04-29,0.11629216140090082
2022-05-05,-0.46564606986769347
2022-05-06,0.046636436306557845
2022-05-09,-0.0396809682769611
2022-05-10,0.043517145413318456
2022-05-11,-0.08415748068163578
2022-05-12,0.19736709421221152
2022-05-13,0.016711326515214973
2022-05-16,0.03501559659177621
2022-05-17,-0.045226612563470464
2022-05-18,-0.029680239952005832
2022-05-19,-0.0018068486685421051
2022-05-20,-0.025117211931545085
2022-05-23,-0.0052472255940946115
2022-05-24,-0.04551892572092749
2022-05-25,-0.042896497764642674
2022-05-26,-0.09298863403276637
2022-05-27,-0.1456924530575754
2022-05-30,0.06933421359582091
2022-05-31,0.035111566421328934
2022-06-01,0.10529825824523129
2022-06-02,0.1146048504090709
2022-06-06,0.17386929394944875
2022-06-07,-0.16087467518516785
2022-06-08,0.18013195378374858
2022-06-09,-0.010891227955729232
2022-06-10,-0.04559370793592229
2022-06-13,0.04624320411291652
2022-06-14,0.10436046933572951
2022-06-15,-0.2932645320742644
2022-06-16,-0.067340897947221
2022-06-17,-0.007375568405613268
2022-06-20,-0.22071241863120716
2022-06-21,0.13009442365329343
2022-06-22,0.28906932035790134
2022-06-23,0.14312701167209796
2022-06-24,0.4000984895515022
2022-06-27,0.3536012011302561
2022-06-28,-0.10800346128463709
2022-06-29,-0.18735218621989555
2022-06-30,-0.16514812289597475
2022-07-01,-0.5055011640169428
2022-07-04,-0.38695161145243473
2022-07-05,-0.10126682748530695
2022-07-06,0.007538037166851927
2022-07-07,0.1919922289362419
2022-07-08,0.05547488858168169
2022-07-11,0.2202212076976482
2022-07-12,0.11450073361412358
2022-07-13,-0.05672154439991888
2022-07-14,-0.08549026192401912
2022-07-15,0.2352722269284067
2022-07-18,-0.04102454409701664
2022-07-19,-0.040799892313887025
2022-07-20,0.15852777994279627
2022-07-21,-0.16151663274815875
2022-07-22,-0.3683190652931414
2022-07-25,-0.04803957142555097
2022-07-26,0.07615699312759192
2022-07-27,-0.10253724741266952
2022-07-28,0.20812574389393737
2022-07-29,0.3189744799239681
2022-08-01,0.14785794130369423
2022-08-02,-0.07284722239987038
2022-08-03,-0.09113858917524198
2022-08-04,-0.16578340155159574
2022-08-05,-0.06953259080342417
2022-08-08,-0.231206842330819
2022-08-09,-0.13220877330679645
2022-08-10,0.11518237971878445
2022-08-11,0.23607476635514074
2022-08-12,-0.21330796312105255
2022-08-15,0.1403877100938031
2022-08-16,0.18394424705302828
2022-08-17,-0.01750110508240859
2022-08-18,-0.25387048197140905
2022-08-19,0.10651022990558448
2022-08-22,0.0805608758023624
2022-08-23,-0.1445539716788506
2022-08-24,0.08634249990805441
2022-08-25,0.14015682672738028
2022-08-26,0.07015560050223348
2022-08-29,0.05461475358981069
2022-08-30,0.15539410762079275
2022-08-31,-0.09507510313699183
2022-09-01,-0.02088268342950569
2022-09-02,0.05965349112347868
2022-09-05,-0.23638107805524958
2022-09-06,-0.04335366399881206
2022-09-07,-0.07137973662035096
2022-09-08,-0.055334998934298676
2022-09-09,0.2851494029216075
2022-09-13,0.09898852810005915
2022-09-14,0.03809571689261288
2022-09-15,0.17531028654918612
2022-09-16,-0.012416975020853545
2022-09-19,-0.46262685632941436
2022-09-20,-0.07010689121842154
2022-09-21,-0.0267211469930552
2022-09-22,-0.060221094181756765
2022-09-23,0.09997634176152981
2022-09-26,0.00970256641052579
2022-09-27,0.0373310017250737
2022-09-28,0.000538747275083587
2022-09-29,-0.09379097265079907
2022-09-30,-0.0753973710297514
2022-10-10,0.11148885624729642
2022-10-11,-0.01600219656972424
2022-10-12,-0.06496253573542178
2022-10-13,0.09944248798620274
2022-10-14,0.15558830114969338
2022-10-17,-0.07136616565323996
2022-10-18,-0.0015232317307571075
2022-10-19,-0.03543097741941472
2022-10-20,-0.009869734658636078
2022-10-21,-0.22653252785371436
2022-10-24,0.18491779549339493
2022-10-25,0.09122101030159094
2022-10-26,0.046709957361762436
2022-10-27,-0.09593120850427447
2022-10-28,0.09279875251136008
2022-10-31,-0.09170768478419646
2022-11-01,0.19855918179980656
2022-11-02,0.09084030024174468
2022-11-03,0.05714679511030284
2022-11-04,-0.028612243618527135
2022-11-07,-0.00740180913073564
2022-11-08,-0.45223190554172155
2022-11-09,-0.14857468203327276
2022-11-10,0.12810870541109734
2022-11-11,0.16437165804446505
2022-11-14,-0.010182297024926335
2022-11-15,0.23444691371012147
2022-11-16,0.14548486784734316
2022-11-17,-0.13432704139676346
2022-11-18,-0.2389813512486422
2022-11-21,-0.08568447449419248
2022-11-22,-0.04335249971282328
2022-11-23,-0.08094010623637618
2022-11-24,-0.015636387107017865
2022-11-25,0.04404876501569424
2022-11-28,0.14634374504695918
2022-11-29,0.01713116037076154
2022-11-30,-0.02901407804215053
2022-12-01,-0.019202421025953785
2022-12-02,-0.017146190378697246
2022-12-05,0.04719737938508904
2022-12-06,-0.06206175758464931
2022-12-07,0.1374597384038327
2022-12-08,0.2859642078279238
2022-12-09,0.22398070259856886
2022-12-12,-0.23469082575281563
2022-12-13,0.12098429951690352
2022-12-14,-0.11995131568510843
2022-12-15,-0.4184492910860068
2022-12-16,-0.11166493888689968
2022-12-19,0.09317531517097354
2022-12-20,0.020063420364442558
2022-12-21,-0.02190208322937899
2022-12-22,0.32843150186795533
2022-12-23,-0.17731428149946385
2022-12-26,-0.06602612994736408
2022-12-27,0.030167593454901553
2022-12-28,0.07882782655863298
2022-12-29,-0.2565049470942531
2022-12-30,0.221894473617279
2023-01-03,0.13158319530470478
2023-01-04,-0.299746442250273
2023-01-05,0.08346032890759718
2023-01-06,0.4606215536382936
2023-01-09,-0.10462024069024166
2023-01-10,-0.007284375784277569
2023-01-11,0.1772866930297563
2023-01-12,-0.03160425122541058
2023-01-13,-0.5180802455734685
2023-01-16,0.101604733131525
2023-01-17,-0.07486382775842951
2023-01-18,0.015866790213068215
2023-01-19,-0.09574251329635823
2023-01-20,0.25691794702845927
2023-01-30,-0.10243229071539128
2023-01-31,0.03895012366190875
2023-02-01,-0.0014623451460655038
2023-02-02,0.02220161765624946
2023-02-03,-0.22232800735453428
2023-02-06,0.11749803542608799
2023-02-07,-0.0040863268377552015
2023-02-08,0.02419720784737827
2023-02-09,-0.12458387047887316
2023-02-10,0.3094275328591686
2023-02-13,-0.11406337680601003
2023-02-14,-0.04137513876189388
2023-02-15,-0.03720517889730701
2023-02-16,0.07198963998525026
2023-02-17,-0.34134779323695275
2023-02-20,-0.15833689421363537
2023-02-21,0.19677613279380662
2023-02-22,0.04539259357755371
2023-02-23,0.08717583212290686
2023-02-24,0.16206411170186638
2023-02-27,0.2403553567938813
2023-02-28,-0.27831909330878557
2023-03-01,-0.13564824638011508
2023-03-02,0.2415739967145539
2023-03-03,-0.04101269120263176
2023-03-06,-0.1434145735173325
2023-03-07,0.16925514098078506
2023-03-08,0.09241733241593549
2023-03-09,-0.498779798274569
2023-03-10,0.2547494943378991
2023-03-13,0.22142059162254696
2023-03-14,-0.022658815328454734
2023-03-15,-0.020618301484439064
2023-03-16,0.3259129375116837
2023-03-17,-0.29364635389472826
2023-03-20,-0.15956572880694964
2023-03-21,0.02510264108283286
2023-03-22,0.08585653454402539
2023-03-23,-0.14827123279493054
2023-03-24,0.2870323405636345
2023-03-27,0.10678750482177538
2023-03-28,-0.07889497173238609
2023-03-29,-0.030838439691557147
2023-03-30,0.0481637128344966
2023-03-31,-0.3623276671664096
2023-04-03,-0.19625633886454127
2023-04-04,0.11900957501609224
2023-04-06,-0.11297059876810081
2023-04-07,0.024262535449127327
2023-04-10,0.17628907021973594
2023-04-11,0.05678722756082413
2023-04-12,-0.17706180581788436
2023-04-13,0.0485954456364462
2023-04-14,-0.12939007166130964
2023-04-17,0.0905128395904626
2023-04-18,0.10878255333518153
2023-04-19,0.26194082690419407
2023-04-20,0.16566340823453005
2023-04-21,0.20967474655618323
2023-04-24,-0.13161733928976546
2023-04-25,-0.10469183432039433
2023-04-26,-0.23787892912367317
2023-04-27,-0.23119863990572312
2023-04-28,-0.20368249907095914
2023-05-04,-0.0053998157746461585
2023-05-05,0.18212883645816083
2023-05-08,0.03443678133951532
2023-05-09,0.24593962344399717
2023-05-10,-0.01564485589066608
2023-05-11,0.1882309664607757
2023-05-12,-0.27090934950876944
2023-05-15,-0.018498257111754825
2023-05-16,-0.11745402991839188
2023-05-17,0.17424943139927038
2023-05-18,-0.30989533341379444
2023-05-19,0.2899507619991081
2023-05-22,0.17417909305937507
2023-05-23,-0.027804857340210844
2023-05-24,-0.09082396625229817
2023-05-25,0.24764703457900397
2023-05-26,-0.227926247660044
2023-05-29,-0.15756203688952494
2023-05-30,0.0015439152810193548
2023-05-31,0.23257554965101063
2023-06-01,-0.08699578632076437
2023-06-02,0.12379870058701936
2023-06-05,0.07031082926570417
2023-06-06,-0.10410641989589228
2023-06-07,-0.36821723116077004
2023-06-08,-0.07744319894398462
2023-06-09,-0.034355962243395294
2023-06-12,-0.16257386747963967
2023-06-13,0.1820772982425349
2023-06-14,0.3737078247122682
2023-06-15,0.02852336722006627
2023-06-16,-0.11590958724612205
2023-06-19,0.27371161671353667
2023-06-20,-0.19298617813508678
2023-06-21,-0.43942803179281137
2023-06-26,0.11225975657009976
2023-06-27,0.10194623911642438
2023-06-28,-0.34258483171709686
2023-06-29,0.19237737968698665
2023-06-30,0.26681540947621024
2023-07-03,-0.10371649701520833
2023-07-04,-0.045089308056382706
2023-07-05,0.16629653567411157
2023-07-06,0.25766330081212174
2023-07-07,-0.08470034934439316
2023-07-10,-0.04295331491946064
2023-07-11,0.11434916192620559
2023-07-12,0.07622782139898454
2023-07-13,-0.5389886479895414
2023-07-14,0.0701777168304669
2023-07-17,0.28109364368212025
2023-07-18,-0.03854004825847589
2023-07-19,0.006147725109825496
2023-07-20,0.2880541763697858
2023-07-21,0.0009141835928075624
2023-07-24,-0.2833690314491646
2023-07-25,-0.014478910224847827
2023-07-26,-0.08505547484332127
2023-07-27,-0.1579657391634961
2023-07-28,-0.09775651820144374
2023-07-31,0.016542673415403802
2023-08-01,-0.0541066483092532
2023-08-02,-0.07267527690693044
2023-08-03,0.008888092672058798
2023-08-04,0.18978114017387496
2023-08-07,0.04975502511866961
2023-08-08,-0.07148751728491325
2023-08-09,0.16539690826151235
2023-08-10,-0.02511565167796999
2023-08-11,-0.26322591286118974
2023-08-14,0.16107588247727184
2023-08-15,0.23704702625896346
2023-08-16,-0.029420383975920828
2023-08-17,0.09273917220308794
2023-08-18,0.16713991121054375
2023-08-21,-0.3021182377164723
2023-08-22,-0.12624680159735055
2023-08-23,-0.08674111497676101
2023-08-24,0.031649763002956674
2023-08-25,0.0030380292853997605
2023-08-28,0.3637980963256786
2023-08-29,0.02007561107119912
2023-08-30,-0.00020185686208040038
2023-08-31,0.006502927556663908
2023-09-01,0.11493695390401497
2023-09-04,-0.1854438139521037
2023-09-05,-0.04956351295707209
2023-09-06,0.14468356744062671
2023-09-07,0.011031973211637347
2023-09-08,-0.24618235638740865
2023-09-11,-0.18584784010316027
2023-09-12,0.1623638361546563
2023-09-13,-0.11233846165694666
2023-09-14,-0.1302412582165997
2023-09-15,0.04123433671956786
2023-09-18,0.20826420622677527
2023-09-19,-0.2998679153839313
2023-09-20,0.21467975875270665
2023-09-21,0.22815595907800826
2023-09-22,0.07867317294034437
2023-09-25,-0.09184134435836223
2023-09-26,0.15591223649114236
2023-09-27,-0.1609863897998728
2023-09-28,-0.27226417559716193
2023-10-09,0.09446811958240013
2023-10-10,0.08693794574771252
2023-10-11,0.018978638084142213
2023-10-12,-0.038125071965934634
2023-10-13,0.12368342934192968
2023-10-16,-0.16911054543163337
2023-10-17,0.036541086541085774
2023-10-18,-0.0006741988988834338
2023-10-19,-0.08648377410835069
2023-10-20,0.20472695143915082
2023-10-23,0.041387744419731275
2023-10-24,-0.11910936910936853
2023-10-25,-0.011853712499170398
2023-10-26,0.09854790807772365
2023-10-27,-0.431619607070198
2023-10-30,-0.053347147401028014
2023-10-31,0.18069307359961292
2023-11-01,0.04117217128375142
2023-11-02,-0.08732966021181823
2023-11-03,0.22573725412902448
2023-11-06,0.13830923574866125
2023-11-07,-0.2758566476364255
2023-11-08,0.05134219937175594
2023-11-09,0.09942408376963519
2023-11-10,0.06966924700914856
2023-11-13,0.03226505774801737
2023-11-14,0.11891761995982332
2023-11-15,-0.2553136340072588
2023-11-16,-0.0340476190476232
2023-11-17,-0.06070733513461618
2023-11-20,-0.18462883244380454
2023-11-21,0.09231791860924643
2023-11-22,0.40742138364779934
2023-11-23,0.1171392083859048
2023-11-24,-0.060764468832956574
2023-11-27,0.2719805663186492
2023-11-28,0.11462751280521634
2023-11-29,-0.24914908392292368
2023-11-30,-0.07369108450025223
2023-12-01,0.10231590398101234
2023-12-04,-0.20609736162678965
2023-12-05,-0.28857103580783416
2023-12-06,0.1401601167199627
2023-12-07,0.013623799356403472
2023-12-08,0.10054405479010049
2023-12-11,-0.007167827145141307
2023-12-12,0.06442504798031456
2023-12-13,-0.24587145506343522
2023-12-14,-0.13284848436037677
2023-12-15,-0.3260901386088475
2023-12-18,-0.09221868099820764
2023-12-19,0.0965081667687811
2023-12-20,0.02056829031927679
2023-12-21,0.1392269318857669
2023-12-22,0.09359561104765615
2023-12-25,0.29101560263307763
2023-12-26,-0.15420390150317764
2023-12-27,0.05182389109104787
2023-12-28,-0.11996454162106748
2023-12-29,0.25072005318094437
2024-01-02,-0.2824163068451704
2024-01-03,0.030052397031793535
2024-01-04,0.1386486628628218
2024-01-05,0.10090292050553304
2024-01-08,-0.32454274999264554
2024-01-09,0.12425971261498568
2024-01-10,0.01156603866883859
2024-01-11,0.010096111012118547
2024-01-12,-0.12484712919285687
2024-01-15,0.19052628024045704
2024-01-16,-0.08088339268768638
2024-01-17,0.1079038421036817
2024-01-18,-0.2524158653846173
2024-01-19,0.14271031902060946
2024-01-22,0.00010886587453422247
2024-01-23,0.2622968710572776
2024-01-24,-0.07083678378835191
2024-01-25,0.07157914378426179
2024-01-26,-0.016629387839087947
2024-01-29,-0.010332931623004929
2024-01-30,-0.2867028612087608
2024-01-31,0.004384793536523643
2024-02-01,0.07138024928830802
2024-02-02,-0.076818044424397
2024-02-05,0.10976989475763999
2024-02-06,0.005318149429314398
2024-02-07,-0.028314991762766376
2024-02-08,0.05041151194358027
2024-02-19,0.051878434807731244
2024-02-20,-0.4303224907710561
2024-02-21,0.1764416835832321
2024-02-22,0.24509797048616855
2024-02-23,0.14388110092509404
2024-02-26,0.1425329614614539
2024-02-27,0.3558001670645806
2024-02-28,-0.10553419220619775
2024-02-29,-0.10870340175097624
2024-03-01,-0.3422052283944657
2024-03-04,-0.12031142559082506
2024-03-05,-0.07517669437453157
2024-03-06,0.11157993612733914
2024-03-07,-0.2794432242429724
2024-03-08,0.14960470000792359
2024-03-11,-0.11189794468697645
2024-03-12,0.1677427249555442
2024-03-13,-0.1413266050015037
2024-03-14,0.2922245104746457
2024-03-15,0.05606910620936147
2024-03-18,0.10864033677639029
2024-03-19,-0.16692327185142172
2024-03-20,0.01441950548832454
2024-03-21,-0.14953837761793706
2024-03-22,0.0019973649538836957
2024-03-25,-0.03699269355928402
2024-03-26,-0.06862502940484595
2024-03-27,0.07426525031515914
2024-03-28,0.016289310660486292
2024-03-29,-0.18696296296296086
2024-04-01,-0.005671175186344673
2024-04-02,0.07544009173743094
2024-04-03,-0.1643807799468195
2024-04-08,0.1614203664150903
2024-04-09,0.20674001924002064
2024-04-10,-0.025410890856866195
2024-04-11,0.06896107671437196
2024-04-12,0.19924952097083135
2024-04-15,0.00659605310589606
2024-04-16,0.03464241163298304
2024-04-17,0.0813979716413009
2024-04-18,-0.1197368722335442
2024-04-19,0.06131361439746141
2024-04-22,-0.14679497083884532
2024-04-23,-0.03686293340196416
2024-04-24,0.03893728201575427
2024-04-25,0.08434380094773358
2024-04-26,-0.19919036835036322
2024-04-29,-0.08866211816822542
2024-04-30,-0.16584293992655924
2024-05-06,-0.13459471039802226
2024-05-07,0.006015464071411427
2024-05-08,0.07191894127377872
2024-05-09,0.013640062810320167
2024-05-10,0.02860013090867708
2024-05-13,0.027230573939123724
2024-05-14,-0.060921247047374325
2024-05-15,-0.04297658862876093
2024-05-16,0.13529046788768087
2024-05-17,0.43025900771267966
2024-05-20,0.1799502665276172
2024-05-21,0.14550979880020268
2024-05-22,0.05767397984894719
2024-05-23,-0.0023192908797361397
2024-05-24,-0.550917250404886
2024-05-27,-0.28677734721249815
2024-05-28,-0.23117761779792517
2024-05-29,-0.04718403357452375
2024-05-30,-0.033859844056306765
2024-05-31,0.15713012659995673
2024-06-03,0.40927946536939663
2024-06-04,0.08527876657935864
2024-06-05,-0.003845207613875242
2024-06-06,-0.11527205171272824
2024-06-07,0.006161285602918506
2024-06-11,-0.47387705621280474
2024-06-12,0.013645712587311466
2024-06-13,0.0992686761751825
2024-06-14,0.054312226102618676
2024-06-17,0.022341003644834625
2024-06-18,0.19481795188518616
2024-06-19,-0.03688081075126884
2024-06-20,-0.26275980657388137
2024-06-21,0.07967441648965032
2024-06-24,-0.012976650057685262
2024-06-25,-0.07323917595739825
2024-06-26,0.2204334162377869
2024-06-27,0.21452844751402614
2024-06-28,-0.10832502498676227
2024-07-01,0.05566286144435007
2024-07-02,0.029396726696991206
2024-07-03,-0.2689563728902883
2024-07-04,-0.00985048606262488
2024-07-05,0.08769723058111727
2024-07-08,-0.1559307971848372
2024-07-09,0.23363075681771095
2024-07-10,0.1895143201675875
2024-07-11,-0.08177805800756402
2024-07-12,0.0345347139253914
2024-07-15,0.10126297940416562
2024-07-16,-0.3085984562887101
2024-07-17,-0.2353835542721156
2024-07-18,0.15764336405905627
2024-07-19,-0.21145471253345935
2024-07-22,0.04273206601451382
2024-07-23,0.14662504603405152
2024-07-24,0.1498922055973804
2024-07-25,0.11625653516834966
2024-07-26,0.25658168232167794
2024-07-29,-0.0374767819115257
2024-07-30,-0.006810958491619534
2024-07-31,0.3012039251626174
2024-08-01,-0.3349232938553064
2024-08-02,-0.12247730643495693
2024-08-05,0.13377541998231682
2024-08-06,0.01929005167751667
2024-08-07,-0.5370039736121294
2024-08-08,0.14529142544765367
2024-08-09,0.18981307245982093
2024-08-12,-0.13174072304506973
2024-08-13,0.021301214675125385
2024-08-14,0.3029552573514298
2024-08-15,-0.01826840928507877
2024-08-16,-0.28131297647920717
2024-08-19,-0.017347082353417094
2024-08-20,-0.11837659758862579
2024-08-21,-0.16224684597026306
2024-08-22,0.07206669811059248
2024-08-23,0.14953175291565662
2024-08-26,-0.07860289019237124
2024-08-27,0.0559733680336904
2024-08-28,0.1328079520555862
2024-08-29,-0.20340620046191477
2024-08-30,-0.1917255856808372
2024-09-02,0.2898616007606635
2024-09-03,-0.004732113341285515
2024-09-04,0.04554532131251228
2024-09-05,0.23981540529217005
2024-09-06,0.2651896579958355
2024-09-09,-0.2537694544038233
2024-09-10,0.010649748468569238
2024-09-11,-0.02541543158380686
2024-09-12,-0.0955773955773955
2024-09-13,-0.2026229508196724
2024-09-18,0.006974659192169871
2024-09-19,0.10919560356919639
2024-09-20,-0.2548959952935244
2024-09-23,-0.10835697576029082
2024-09-24,0.16861308918277276
2024-09-25,0.06766666444343787
2024-09-26,-0.19326104627251317
2024-09-27,0.2098146394944989
2024-09-30,0.322149510871908
2024-10-08,0.23232579127899763
2024-10-09,-0.021507073921166638
2024-10-10,0.12682232964368112
2024-10-11,-0.003214533853600243
2024-10-14,-0.35404111199266086
2024-10-15,-0.5619248284000333
2024-10-16,-0.05793448242137246
2024-10-17,0.28399933041586184
2024-10-18,0.002953287865137962
2024-10-21,0.1785485348701214
2024-10-22,0.38591674784443036
2024-10-23,0.0770863886216307
2024-10-24,-0.5597840665370064
2024-10-25,-0.06293222131789508
2024-10-28,-0.1895731815614395
2024-10-29,-0.3033575208224534
2024-10-30,-0.030524009897868746
2024-10-31,0.214816274495341
2024-11-01,0.12778790892400863
2024-11-04,0.18712825196470542
2024-11-05,0.02733992295859053
2024-11-06,0.2720842321146324
2024-11-07,0.220331563313852
2024-11-08,-0.014889396986308825
2024-11-11,0.028355817068500995
2024-11-12,0.26189225025013607
2024-11-13,-0.3131290700780861
2024-11-14,-0.3555798631647291
2024-11-15,-0.17368156531581957
2024-11-18,-0.03991717560951625
2024-11-19,-0.07324325220116917
2024-11-20,-0.0035598276022612563
2024-11-21,0.20493847462258835
2024-11-22,0.234211854212667
2024-11-25,-0.13386533606647907
2024-11-26,-0.17108800936511456
2024-11-27,0.14994107979393284
2024-11-28,0.013618006475340672
2024-11-29,-0.15418491980940485
2024-12-02,0.11937653835186082
2024-12-03,0.1715567762618656
2024-12-04,-0.14976765611760173
2024-12-05,0.0018914408986830666
2024-12-06,-0.030427422486976066
2024-12-09,-0.083462012221136
2024-12-10,-0.04851807300521521
2024-12-11,0.04350431447747004
2024-12-12,0.059483580240947284
2024-12-13,0.020738876508106338
2024-12-16,0.17821810431841523
2024-12-17,0.06962060182006391
2024-12-18,0.04319665949535654
2024-12-19,-0.2936992957424136
2024-12-20,0.010352475558054543
2024-12-23,-0.09258567144861389
2024-12-24,-0.1925962549221475
2024-12-25,-0.11030630992840743
2024-12-26,0.18910218428928116
2024-12-27,0.14107422274364617
2024-12-30,-0.14472728325279707
2024-12-31,0.1632010981408924
