date,FCT_Cr_Atr_Dfive
2013-09-06,
2013-09-09,
2013-09-10,
2013-09-11,
2013-09-12,
2013-09-13,
2013-09-16,
2013-09-17,
2013-09-18,
2013-09-23,
2013-09-24,0.16796774026779326
2013-09-25,0.09194027388218932
2013-09-26,-0.9333447799740993
2013-09-27,-0.018156548219754265
2013-09-30,-0.0731079234972723
2013-10-08,-0.007090078539994572
2013-10-09,-0.07855466281483048
2013-10-10,0.3285543608124051
2013-10-11,-0.10161270368026931
2013-10-14,0.021857923497268093
2013-10-15,0.15555874623644106
2013-10-16,0.22255276459463935
2013-10-17,-0.021428571428545238
2013-10-18,0.12839401131463093
2013-10-21,-0.1490909090909092
2013-10-22,-0.262181484144093
2013-10-23,-0.26169912839754456
2013-10-24,0.18901098901095573
2013-10-25,0.05282095319879585
2013-10-28,0.12904636566106428
2013-10-29,0.244658119658097
2013-10-30,0.07206040992450685
2013-10-31,-0.19718072625046335
2013-11-01,-0.08697167755992144
2013-11-04,0.2447636445534436
2013-11-05,-0.1341743119265939
2013-11-06,0.09629629629627724
2013-11-07,0.36762647768215356
2013-11-08,0.6410274051140982
2013-11-11,-0.03762759785562486
2013-11-12,0.1296147799238604
2013-11-13,0.056870506870509076
2013-11-14,-0.3712691662440044
2013-11-15,-0.8237068315487859
2013-11-18,-0.2803180145571219
2013-11-19,-0.0770669740213506
2013-11-20,-0.16107031869156418
2013-11-21,-0.05611724809908267
2013-11-22,0.28008506526868204
2013-11-25,0.14255761496807595
2013-11-26,-0.21150098401573403
2013-11-27,0.10024068027571616
2013-11-28,0.2050219768188696
2013-11-29,-0.1397021556795901
2013-12-02,-0.08513965250734498
2013-12-03,0.25398938035360524
2013-12-04,-0.007901822622024463
2013-12-05,-0.15601885659075143
2013-12-06,0.02990441861766409
2013-12-09,-0.024824140099517222
2013-12-10,-0.13731184354108894
2013-12-11,-0.17608557224069102
2013-12-12,0.010674759804079455
2013-12-13,0.06759906990547634
2013-12-16,0.06522511143078004
2013-12-17,-0.022835761058402418
2013-12-18,0.14720578566732095
2013-12-19,-0.06311572749931854
2013-12-20,-0.036818937534611636
2013-12-23,0.04990349030371634
2013-12-24,0.1853968253968358
2013-12-25,-0.08320413436694063
2013-12-26,0.08778356146782768
2013-12-27,0.018410284400839937
2013-12-30,-0.16338202044110225
2013-12-31,-0.15745942571783214
2014-01-02,0.25471452546498446
2014-01-03,0.023692481515088296
2014-01-06,-0.003852241444086976
2014-01-07,0.08937391251259828
2014-01-08,0.04261697132312166
2014-01-09,-0.20509341232152764
2014-01-10,0.006862833976679004
2014-01-13,-0.053503518285640796
2014-01-14,-0.11040906472057886
2014-01-15,0.015797708291125763
2014-01-16,-0.1205981345970296
2014-01-17,-0.17336887112000027
2014-01-20,0.11024220397997479
2014-01-21,0.39581721359973054
2014-01-22,-0.08969193578375953
2014-01-23,0.16617235494039645
2014-01-24,0.21234221598878508
2014-01-27,-0.02130488559060173
2014-01-28,-0.3388886544871364
2014-01-29,0.10754683061874275
2014-01-30,-0.06591576588846954
2014-02-07,0.0009790786355006464
2014-02-10,0.038582981236650486
2014-02-11,0.0799564890307769
2014-02-12,-0.093545049607398
2014-02-13,0.017702672791872497
2014-02-14,-0.10488914706170765
2014-02-17,-0.15532612242775626
2014-02-18,-0.0052514595337331705
2014-02-19,0.09610242224353484
2014-02-20,0.033388928560991626
2014-02-21,-0.059753483358400104
2014-02-24,0.02105595493622031
2014-02-25,0.19048945417911983
2014-02-26,0.0033043007110251515
2014-02-27,0.2460041731918753
2014-02-28,0.18227397362084358
2014-03-03,0.20786567214469714
2014-03-04,-0.1832376395199405
2014-03-05,0.12117659297022605
2014-03-06,-0.3276611584777134
2014-03-07,-0.08128493024232906
2014-03-10,-0.2539175678862432
2014-03-11,-0.1874256818878337
2014-03-12,-0.3542129593683779
2014-03-13,0.04849548033694254
2014-03-14,-0.06404257756399337
2014-03-17,0.122567777110828
2014-03-18,0.307009117760379
2014-03-19,0.13808183557534795
2014-03-20,-0.030148087287359453
2014-03-21,0.030586980232337496
2014-03-24,-0.15616452766675648
2014-03-25,-0.25404558726697835
2014-03-26,-0.02511086250355564
2014-03-27,-0.08427203604623448
2014-03-28,-0.04931087878582881
2014-03-31,0.07770861700065201
2014-04-01,0.10543111833606592
2014-04-02,0.3129514021162217
2014-04-03,0.18374792703156428
2014-04-04,0.16869081293814442
2014-04-08,0.18444280420099762
2014-04-09,-0.04515050167229603
2014-04-10,-0.30773870942139187
2014-04-11,0.011111111111081075
2014-04-14,0.07012877939528085
2014-04-15,-0.18461173189997962
2014-04-16,0.07620640229339162
2014-04-17,0.26820020222441465
2014-04-18,-0.0628681698151646
2014-04-21,-0.28312493942039574
2014-04-22,0.4620226185298031
2014-04-23,0.028050028050005442
2014-04-24,-0.3986680070368946
2014-04-25,-0.09506398537477742
2014-04-28,0.0804236852666669
2014-04-29,-0.7261990797890484
2014-04-30,-0.1431399854112603
2014-05-05,0.22010095253606893
2014-05-06,0.3602163208888058
2014-05-07,0.019875769389201006
2014-05-08,0.21613927117659815
2014-05-09,0.3779862966907145
2014-05-12,0.2144366197182604
2014-05-13,-0.18641114982583976
2014-05-14,0.1220736050652699
2014-05-15,0.2902462121212044
2014-05-16,-0.39773691545071677
2014-05-19,-0.26627777868064223
2014-05-20,-0.2310710891558232
2014-05-21,-0.17268624954010056
2014-05-22,-0.3231321611477115
2014-05-23,0.1785390651322626
2014-05-26,-0.06983333243047424
2014-05-27,0.3235314066162055
2014-05-28,0.4216054449031686
2014-05-29,0.2525426221406318
2014-05-30,0.1670030901115863
2014-06-03,0.24688134609805562
2014-06-04,-0.11216475095791581
2014-06-05,-0.24005112354415872
2014-06-06,-0.14431082331175876
2014-06-09,-0.33200723975411073
2014-06-10,-0.1346221293612018
2014-06-11,-0.12626542233471955
2014-06-12,-0.3872996526296596
2014-06-13,0.030884557721158026
2014-06-16,0.2087622454974345
2014-06-17,0.05545566795914894
2014-06-18,0.07454128440367955
2014-06-19,0.32444348557267655
2014-06-20,0.767772640070775
2014-06-23,-0.1687202323654451
2014-06-24,-0.1860564234545636
2014-06-25,-0.04191616766466429
2014-06-26,-0.07336309523812448
2014-06-27,-1.4470366868873397
2014-06-30,0.053439619675483246
2014-07-01,0.8726033348013146
2014-07-02,0.21283954683949027
2014-07-03,0.16275866890381696
2014-07-04,0.9995067032660925
2014-07-07,0.04043052245299503
2014-07-08,-0.9626896530984891
2014-07-09,-0.28062802052503866
2014-07-10,-0.12149188375371149
2014-07-11,-0.60914351851851
2014-07-14,0.005038855615504267
2014-07-15,0.36086659129316556
2014-07-16,0.22977968825452347
2014-07-17,-0.02110870307303723
2014-07-18,0.47336611675127904
2014-07-21,-0.0458017432077274
2014-07-22,-0.22429705544069628
2014-07-23,-0.21531314214241867
2014-07-24,-0.09521290663845763
2014-07-25,-0.21803523439835087
2014-07-28,0.04765518685232187
2014-07-29,0.10072091160429258
2014-07-30,0.08748615725363473
2014-07-31,0.24393503289474644
2014-08-01,-0.043608112198533576
2014-08-04,-0.07518054230825363
2014-08-05,-0.0508898808493486
2014-08-06,0.3041229057263897
2014-08-07,-0.29108245042767844
2014-08-08,-0.031189513273646496
2014-08-11,-0.01716293267291124
2014-08-12,0.23313840155942409
2014-08-13,-0.3366640080349485
2014-08-14,0.25781552285887716
2014-08-15,0.13528632629714926
2014-08-18,0.12478269990159903
2014-08-19,-0.19854872307868857
2014-08-20,-0.0213440285417702
2014-08-21,-0.16738149684493317
2014-08-22,0.005162559679235467
2014-08-25,-0.14958214245015547
2014-08-26,-0.07166000557406293
2014-08-27,0.00041257903888348296
2014-08-28,0.10110698419633946
2014-08-29,-0.02198894202030645
2014-09-01,0.17171735331556046
2014-09-02,0.11609782999122428
2014-09-03,0.11972540387271433
2014-09-04,-0.13066756777051217
2014-09-05,-0.06350128068474276
2014-09-09,-0.13536405152911005
2014-09-10,-0.16453316913505533
2014-09-11,-0.22196245253833558
2014-09-12,0.08291644333266114
2014-09-15,0.11890119579000108
2014-09-16,0.028503445742552994
2014-09-17,0.2022095274066093
2014-09-18,0.7778574253509736
2014-09-19,0.2936525367890182
2014-09-22,0.08245245407028377
2014-09-23,0.23152809485240713
2014-09-24,-0.09339566515067393
2014-09-25,-0.7236016630627019
2014-09-26,-0.4015465381165382
2014-09-29,-0.2620462580857398
2014-09-30,-0.45356889963895575
2014-10-08,-0.0845094171008334
2014-10-09,-0.03662755716008405
2014-10-10,0.08547256237962517
2014-10-13,0.2050705393319129
2014-10-14,0.8614862287327295
2014-10-15,0.23589806419994602
2014-10-16,0.20840443686010157
2014-10-17,0.11990722496289649
2014-10-20,-0.05876304201566125
2014-10-21,-0.7102043107319398
2014-10-22,-0.11106422494435714
2014-10-23,-0.10338743005736575
2014-10-24,-0.062269351678929996
2014-10-27,-0.1258185968076617
2014-10-28,-0.041463366648289465
2014-10-29,-0.1402825764024464
2014-10-30,0.1537435182096785
2014-10-31,-0.17345822799191746
2014-11-03,0.2627859268449566
2014-11-04,0.293538044830146
2014-11-05,0.2710206208375753
2014-11-06,-0.21612969112065478
2014-11-07,0.2290234829654609
2014-11-10,-0.06350136955031384
2014-11-11,-0.030706577337023505
2014-11-12,-0.06057759656478917
2014-11-13,0.22439209051964462
2014-11-14,-0.0761928298930916
2014-11-17,-0.09867420348068263
2014-11-18,-0.1432370784446307
2014-11-19,-0.20245107167004786
2014-11-20,-0.1826710725595216
2014-11-21,0.11715732352995425
2014-11-24,-0.04603252619295811
2014-11-25,-0.06322944814748035
2014-11-26,0.16216177652635821
2014-11-27,0.01728672492715483
2014-11-28,-0.2273574682128635
2014-12-01,0.11599955486942393
2014-12-02,0.012562105645916602
2014-12-03,0.044073272956910964
2014-12-04,0.2561726919365064
2014-12-05,0.19590947817260485
2014-12-08,-0.05141689033958091
2014-12-09,0.3158207389673077
2014-12-10,-0.13188050276276425
2014-12-11,-0.24928066135062743
2014-12-12,-0.1512900218798987
2014-12-15,-0.15219137495056345
2014-12-16,-0.5119392881696712
2014-12-17,0.047950474082836834
2014-12-18,-0.06237573062320198
2014-12-19,0.03818394720034461
2014-12-22,0.2141340937221753
2014-12-23,0.2410440539852486
2014-12-24,-0.18088597210829616
2014-12-25,0.08946395199511527
2014-12-26,0.01007666224384338
2014-12-29,-0.17344909559149263
2014-12-30,0.057925504297807726
2014-12-31,0.2540929042457948
2015-01-05,0.08985160137071166
2015-01-06,-0.03066489753794819
2015-01-07,0.11789709718508234
2015-01-08,-0.13236481644651388
2015-01-09,-0.19402902537902877
2015-01-12,-0.24107728260463196
2015-01-13,0.12373425824621881
2015-01-14,-0.05838343903578101
2015-01-15,0.28696574564698873
2015-01-16,0.11578309288347595
2015-01-19,0.24740318909487283
2015-01-20,-0.01758919501052683
2015-01-21,0.014044720299219724
2015-01-22,-0.30315110743664087
2015-01-23,-0.06595296449489829
2015-01-26,-0.13686798063997496
2015-01-27,-0.13087438285387717
2015-01-28,0.04349849557327629
2015-01-29,0.16414261709575195
2015-01-30,-0.013120889047436093
2015-02-02,0.1288923987591896
2015-02-03,-0.013767292562275074
2015-02-04,-0.10170922716868759
2015-02-05,-0.019374943526099288
2015-02-06,0.05753423546993081
2015-02-09,-0.3139714030615184
2015-02-10,0.0011775266179526317
2015-02-11,0.342342872804616
2015-02-12,-0.02953048795997051
2015-02-13,0.11963932634662706
2015-02-16,0.3326727233997405
2015-02-17,0.15300738986975132
2015-02-25,-0.38811808364437994
2015-02-26,-0.004444444444452386
2015-02-27,-0.17989585214610876
2015-03-02,0.15057901784098904
2015-03-03,-0.09995846363056525
2015-03-04,0.13948256467941916
2015-03-05,0.020925110132154617
2015-03-06,0.2734462717125359
2015-03-09,-0.2508423797594608
2015-03-10,0.12852911851237084
2015-03-11,0.1356659140145968
2015-03-12,-0.04553833094788736
2015-03-13,-0.22081837123730777
2015-03-16,-0.09291660787357336
2015-03-17,-0.10952370586443202
2015-03-18,-0.18434060596170734
2015-03-19,-0.02691589522950237
2015-03-20,-0.14752045113510348
2015-03-23,0.05489038552144747
2015-03-24,-0.020190974074467308
2015-03-25,-0.15631345572089245
2015-03-26,0.2902834413047652
2015-03-27,0.3818894723335663
2015-03-30,0.24297384026042917
2015-03-31,0.029377289377291952
2015-04-01,0.27487057206077403
2015-04-02,-0.3537369036567418
2015-04-03,-0.2639774776756281
2015-04-07,-0.30836888248535843
2015-04-08,0.12251920122887036
2015-04-09,-0.19166458891729077
2015-04-10,0.12409419570930609
2015-04-13,0.0681377863884082
2015-04-14,0.1422381755225411
2015-04-15,-0.20101970781448186
2015-04-16,0.0750642139457631
2015-04-17,0.009800912238739969
2015-04-20,-0.061953669611843745
2015-04-21,-0.08102542327898722
2015-04-22,-0.0395658714807484
2015-04-23,0.10534562211979004
2015-04-24,-0.010976021614304539
2015-04-27,0.1158631273178887
2015-04-28,-0.04667428839448062
2015-04-29,0.07326617380234479
2015-04-30,-0.1584313725489896
2015-05-04,-0.02617359000341879
2015-05-05,-0.31713025035956266
2015-05-06,0.47457124206284185
2015-05-07,0.17524838353573474
2015-05-08,0.16934046345809514
2015-05-11,0.542046605876419
2015-05-12,0.3712025928792616
2015-05-13,-0.4731483038968828
2015-05-14,-0.1353878425422035
2015-05-15,-0.11678428116783518
2015-05-18,-0.8675595238095226
2015-05-19,-0.10378688731191359
2015-05-20,0.14764351342912646
2015-05-21,0.04560282362499572
2015-05-22,-0.031232718958873314
2015-05-25,0.3695802608127738
2015-05-26,0.1480802188453859
2015-05-27,-0.04926958112922933
2015-05-28,0.1304739720941025
2015-05-29,0.11921971045986263
2015-06-01,0.19054400819309136
2015-06-02,-0.299701985379625
2015-06-03,0.0707427422395543
2015-06-04,-0.2746937367930207
2015-06-05,-0.04655310251521641
2015-06-08,-0.4002182801479225
2015-06-09,0.021913559989497233
2015-06-10,-0.08187725819448646
2015-06-11,-0.01072910994129421
2015-06-12,0.044527138182845344
2015-06-15,0.17979542814608318
2015-06-16,0.27954438247454544
2015-06-17,-0.09448079565530484
2015-06-18,0.18121460438858106
2015-06-19,-0.06724147197247547
2015-06-23,-0.012167633220221675
2015-06-24,-0.3748324845885838
2015-06-25,0.166612991909512
2015-06-26,-0.15198930232747399
2015-06-29,0.07227191413237208
2015-06-30,0.038050277351559775
2015-07-01,0.2344322344322343
2015-07-02,-0.1650449487705904
2015-07-03,0.29727865715354207
2015-07-06,-0.02571665430428431
2015-07-07,-0.018223952832106823
2015-07-08,0.5262866629773187
2015-07-09,0.2714204626082061
2015-07-10,-0.2591327915695198
2015-07-13,-0.085506182142534
2015-07-14,0.012501599537775666
2015-07-15,-0.8586171232147535
2015-07-16,-0.43968270355839545
2015-07-17,0.004276587179805447
2015-07-20,-0.07066626640213874
2015-07-21,-0.13630401553333604
2015-07-22,0.18184706385239774
2015-07-23,0.2742008291110059
2015-07-24,0.028538075604763347
2015-07-27,0.13837776205081967
2015-07-28,0.12925575180106785
2015-07-29,0.055135630378561715
2015-07-30,0.038388278388285575
2015-07-31,0.14855875831488116
2015-08-03,-0.034938271604978456
2015-08-04,0.02066628562095662
2015-08-05,0.0778836028730401
2015-08-06,-0.009058636308010563
2015-08-07,-0.31458145814583066
2015-08-10,0.05851405622492657
2015-08-11,0.12012617805127167
2015-08-12,0.1293785645215249
2015-08-13,-0.11917043309753908
2015-08-14,0.15452113931773692
2015-08-17,-0.08401567434788532
2015-08-18,-0.33894342070956307
2015-08-19,-0.3371783636028779
2015-08-20,0.0429863552122933
2015-08-21,-0.0067973964535871165
2015-08-24,0.02232699981473134
2015-08-25,0.15630062768264524
2015-08-26,0.1571414068040875
2015-08-27,0.2210297801113379
2015-08-28,0.07846455862285893
2015-08-31,0.11862062769790652
2015-09-01,0.03278688524594636
2015-09-02,0.12231277413768855
2015-09-07,-0.3003651778646119
2015-09-08,-0.01816915520151573
2015-09-09,-0.20179113264796134
2015-09-10,0.19285714285711977
2015-09-11,-0.19145415239812602
2015-09-14,0.08705873210154716
2015-09-15,-0.04349995464030604
2015-09-16,0.08231734548052363
2015-09-17,-0.32359919232711587
2015-09-18,0.1557129643153076
2015-09-21,0.010669562995159008
2015-09-22,0.013698630137025634
2015-09-23,-0.053227124182980486
2015-09-24,0.13496145875265625
2015-09-25,-0.13674250187884313
2015-09-28,0.010098349139447254
2015-09-29,-0.09216589861754293
2015-09-30,0.11627351448188367
2015-10-08,-0.10616115685548272
2015-10-09,0.7122643652056145
2015-10-12,0.15151652605158664
2015-10-13,0.30665865224070477
2015-10-14,0.14285887355682694
2015-10-15,0.1541505829141795
2015-10-16,-0.7622034247988942
2015-10-19,-0.2037876147321923
2015-10-20,-0.19346471624001238
2015-10-21,-0.2892306516004519
2015-10-22,-0.09037677427267876
2015-10-23,0.11654347913888649
2015-10-26,0.16059921922769127
2015-10-27,-0.08932072030999251
2015-10-28,0.1792205302694469
2015-10-29,0.0939931816497464
2015-10-30,-0.03504834884142971
2015-11-02,-0.13542759451372574
2015-11-03,-0.04198300629623308
2015-11-04,-0.07290022859670732
2015-11-05,-0.030615158684828003
2015-11-06,0.06466930469191037
2015-11-09,0.08461898083213484
2015-11-10,0.17437825332561113
2015-11-11,-0.09720006787714278
2015-11-12,-0.006642444776324807
2015-11-13,0.009648224043719851
2015-11-16,-0.09661044702798888
2015-11-17,-0.13876923076923692
2015-11-18,0.10885733134264929
2015-11-19,-0.12029106060966366
2015-11-20,-0.07931493719349916
2015-11-23,0.27553798299097165
2015-11-24,0.16459727683506548
2015-11-25,-0.09678467946399603
2015-11-26,0.18031420726021707
2015-11-27,0.058298396154961456
2015-11-30,-0.3998146327371447
2015-12-01,-0.13524783071221125
2015-12-02,0.0889872840676559
2015-12-03,-0.18203906176990275
2015-12-04,-0.04698316758617855
2015-12-07,0.08490875912404967
2015-12-08,-0.05868277945617358
2015-12-09,-0.03627938517175665
2015-12-10,0.048402404302395396
2015-12-11,0.00797745943375388
2015-12-14,0.10769174338853821
2015-12-15,0.10892610837439087
2015-12-16,0.0071778711483922696
2015-12-17,-0.004954128440341973
2015-12-18,0.22546994422645
2015-12-21,-0.0022433596554783455
2015-12-22,0.03016161092382437
2015-12-23,-0.005815885676265346
2015-12-24,0.15565217391305586
2015-12-25,-0.32640999662280573
2015-12-28,-0.049967234600259224
2015-12-29,-0.011391036833732316
2015-12-30,0.03931261770242852
2015-12-31,-0.09108596386735303
2016-01-04,0.11219336219338619
2016-01-05,0.10187753360361784
2016-01-06,0.11108592623116166
2016-01-07,0.14319923371651036
2016-01-08,-0.02112250143641655
2016-01-11,-0.017676767676791983
2016-01-12,-0.11538147694819686
2016-01-13,-0.178900255754461
2016-01-14,-0.184011199528485
2016-01-15,0.04817684475037615
2016-01-18,0.16300940438875466
2016-01-19,0.038788096521172086
2016-01-20,-0.007428744693773179
2016-01-21,-0.07452619843921546
2016-01-22,-0.11226571464996835
2016-01-25,-0.1182193990724276
2016-01-26,-0.04120899593130588
2016-01-27,0.03319776789938388
2016-01-28,0.059393200595955535
2016-01-29,1.0708890637293758
2016-02-01,-0.08526831785345113
2016-02-02,0.12536826783120372
2016-02-03,0.05795258424923962
2016-02-04,0.061103693814000645
2016-02-05,-1.4925803510371827
2016-02-15,0.13792971488114364
2016-02-16,-0.17439081223469483
2016-02-17,-0.2112208157204164
2016-02-18,-0.03607364821180113
2016-02-19,0.5330523138342307
2016-02-22,-0.09822383252816819
2016-02-23,-0.019506938276534186
2016-02-24,0.12995018865772565
2016-02-25,0.3431129856858345
2016-02-26,0.05125134787859552
2016-02-29,0.020974450386184288
2016-03-01,0.17842008728093964
2016-03-02,0.17273462783162732
2016-03-03,-0.43338309386073437
2016-03-04,0.023802017654524305
2016-03-07,0.1288976723759488
2016-03-08,0.051869820093004955
2016-03-09,-0.15571584848888695
2016-03-10,0.07119505430656593
2016-03-11,-0.13573177758569663
2016-03-14,-0.21294275642107177
2016-03-15,-0.22579445571329565
2016-03-16,0.01008478052777784
2016-03-17,0.0016183244118034082
2016-03-18,-0.11289459604070771
2016-03-21,0.18758043758048257
2016-03-22,0.0955854490337204
2016-03-23,-0.08599555242172985
2016-03-24,0.009638038123819852
2016-03-25,0.18744313011830185
2016-03-28,-0.2601626016260315
2016-03-29,0.29055759055755814
2016-03-30,0.2110237754969506
2016-03-31,0.11384995609896441
2016-04-01,-0.0013167564918831198
2016-04-05,0.38420254018209604
2016-04-06,-0.4420130053717614
2016-04-07,-0.22055685939833536
2016-04-08,-0.12508770982891337
2016-04-11,-0.07000719868369032
2016-04-12,-0.37770294221909734
2016-04-13,0.6315150902381759
2016-04-14,0.46755780646764533
2016-04-15,0.06608247422683264
2016-04-18,0.03644670577850445
2016-04-19,0.18315018315020978
2016-04-20,-0.5996521083075779
2016-04-21,-0.5223012281835567
2016-04-22,-0.09578947368422025
2016-04-25,-0.00031906650250398093
2016-04-26,0.08485390578413445
2016-04-27,0.01743188157052282
2016-04-28,0.09271978021978496
2016-04-29,-0.006749386419433276
2016-05-03,0.004056053579144937
2016-05-04,-0.21178125385536495
2016-05-05,0.09501966504229879
2016-05-06,0.13874710556302466
2016-05-09,0.2730683802522198
2016-05-10,0.06695628510954225
2016-05-11,0.10480450966929965
2016-05-12,0.05648825251952472
2016-05-13,-0.04844990276585347
2016-05-16,-0.2853509487200071
2016-05-17,-0.21698737590394163
2016-05-18,0.04320063066621373
2016-05-19,0.08189024859543995
2016-05-20,-0.15053475935823993
2016-05-23,0.045273405972588804
2016-05-24,0.13658536585374922
2016-05-25,-0.12213359920248867
2016-05-26,-0.2115282919090689
2016-05-27,0.1537815126050195
2016-05-30,0.004582987633782384
2016-05-31,0.05072463768106946
2016-06-01,0.0606490872211295
2016-06-02,0.04003660489588276
2016-06-03,-0.013909774436090785
2016-06-06,0.04242772153224641
2016-06-07,-0.21368760064406586
2016-06-08,0.08953310955145735
2016-06-13,0.04007092198589292
2016-06-14,0.06875238944817409
2016-06-15,-0.07832882829947614
2016-06-16,0.34940364092903453
2016-06-17,-0.09766118836919045
2016-06-20,0.06851851851845342
2016-06-21,-0.09739794700401824
2016-06-22,0.1500028323797986
2016-06-23,-0.31977401129943184
2016-06-24,0.25109890109889604
2016-06-27,0.06207219878104765
2016-06-28,0.1518085787451593
2016-06-29,-0.06908643939124247
2016-06-30,0.2328358208955584
2016-07-01,-0.27873303167422037
2016-07-04,-0.11392405063288223
2016-07-05,-0.24662384716727687
2016-07-06,-0.00458577038198265
2016-07-07,-0.16471987886658956
2016-07-08,0.13892981163849655
2016-07-11,-0.1243243243242741
2016-07-12,0.07273215244224857
2016-07-13,-0.03772254539037813
2016-07-14,0.018550724637723733
2016-07-15,0.0013416815741741778
2016-07-18,0.16328536328525675
2016-07-19,0.005709876543227084
2016-07-20,0.11018014243817864
2016-07-21,0.14907630522082094
2016-07-22,-0.1534258091635209
2016-07-25,-0.08629831706748144
2016-07-26,0.180357142857149
2016-07-27,-0.1377046866177464
2016-07-28,-0.09662929173332786
2016-07-29,-0.015451290748036361
2016-08-01,0.04100816418242866
2016-08-02,-0.2001819836215033
2016-08-03,0.04626909518212513
2016-08-04,-0.129068018053764
2016-08-05,0.09195402298847637
2016-08-08,-0.0014833860759086845
2016-08-09,-0.0056672852198152435
2016-08-10,0.173177379059803
2016-08-11,0.26904269164873296
2016-08-12,0.12736512169895997
2016-08-15,0.13760163569895603
2016-08-16,0.10820431942597013
2016-08-17,-0.26383785568012286
2016-08-18,-0.15639331828814382
2016-08-19,-0.07897802492473371
2016-08-22,-0.19132759723740977
2016-08-23,0.04768398142157122
2016-08-24,0.1891739901338541
2016-08-25,-0.0077948818511674785
2016-08-26,-0.12819930334698512
2016-08-29,-0.014992150706474493
2016-08-30,-0.16471937928321373
2016-08-31,-0.09690476190476588
2016-09-01,0.012409083337970712
2016-09-02,0.001024327784920398
2016-09-05,0.07653061224492644
2016-09-06,-0.04659784821180389
2016-09-07,-0.08511016346841618
2016-09-08,0.0308174848152198
2016-09-09,0.15136852394914938
2016-09-12,0.04511278195482907
2016-09-13,0.16878076486196236
2016-09-14,0.1929053363321219
2016-09-19,-0.09354338842967391
2016-09-20,-0.15982896730892415
2016-09-21,-0.08923042901360692
2016-09-22,-0.111898173768824
2016-09-23,-0.2680215584999327
2016-09-26,0.03904702970290752
2016-09-27,0.10765648541292348
2016-09-28,0.024117647058747117
2016-09-29,-0.040502354788017746
2016-09-30,0.1039493293591709
2016-10-10,-0.03127263945887833
2016-10-11,-0.11131725417441649
2016-10-12,0.20571428571421416
2016-10-13,0.28276370789281924
2016-10-14,0.190630797773693
2016-10-17,0.14279379157401198
2016-10-18,0.07410236822009358
2016-10-19,-0.13443223443217367
2016-10-20,-0.15633264766386146
2016-10-21,-0.16213151927440894
2016-10-24,0.14132231404976628
2016-10-25,0.17896888485120563
2016-10-26,0.23941562313662745
2016-10-27,0.06569984618766549
2016-10-28,0.0479470024924609
2016-10-31,-0.2887142663596249
2016-11-01,-0.19286391654814933
2016-11-02,-0.55314111333268
2016-11-03,-0.2189244459183422
2016-11-04,-0.022348969852140566
2016-11-07,0.0012880562060531286
2016-11-08,0.2749765635463442
2016-11-09,0.5630569358464989
2016-11-10,0.20531765085308978
2016-11-11,0.09378814028724444
2016-11-14,0.19940632827469684
2016-11-15,-0.2790825629544703
2016-11-16,-0.4183355725379322
2016-11-17,-0.0638250671767403
2016-11-18,-0.10887029991167262
2016-11-21,-0.2638759787958076
2016-11-22,-0.004601113200934585
2016-11-23,0.22028617816953597
2016-11-24,-0.0917279952899708
2016-11-25,0.029166666666617658
2016-11-28,0.08330081935230949
2016-11-29,0.35686918445535204
2016-11-30,-0.030274945937558986
2016-12-01,0.24760909328456937
2016-12-02,0.016025641025677325
2016-12-05,0.17479208488672207
2016-12-06,-0.3928793118737207
2016-12-07,-0.1327121173515937
2016-12-08,-0.17818562809353283
2016-12-09,0.00020812520810640708
2016-12-12,-0.09099888128520822
2016-12-13,-0.0015040825096659105
2016-12-14,0.17042296072507873
2016-12-15,0.27090756351211415
2016-12-16,0.44090909090910196
2016-12-19,0.08421036146087013
2016-12-20,0.30254170865524127
2016-12-21,0.004014251781461017
2016-12-22,-0.31243396915041594
2016-12-23,-0.6357945425361169
2016-12-26,-0.1909484724122088
2016-12-27,-0.43560394744434566
2016-12-28,-0.2868767053130658
2016-12-29,0.29386933710262003
2016-12-30,0.2130097324095388
2017-01-03,-0.0015306171256918855
2017-01-04,0.22314321044900126
2017-01-05,0.14317785241842915
2017-01-06,-0.5103830536876659
2017-01-09,-0.12313089296927833
2017-01-10,0.03841144528821482
2017-01-11,-0.09303955154155087
2017-01-12,-0.08285559181287608
2017-01-13,0.14087483027130107
2017-01-16,0.31698861358783936
2017-01-17,0.004491597614824348
2017-01-18,0.09029832347139574
2017-01-19,0.26374294206692084
2017-01-20,0.22233398226256454
2017-01-23,-0.4434746232206619
2017-01-24,0.3846659159159044
2017-01-25,0.01926235090659182
2017-01-26,-0.24173013511466712
2017-02-03,0.171444540571697
2017-02-06,0.2922505472516183
2017-02-07,-0.45987093436840826
2017-02-08,-0.0116609995552551
2017-02-09,0.0728282709295523
2017-02-10,-0.5867867484511998
2017-02-13,-0.07368043338767158
2017-02-14,0.03622544481944587
2017-02-15,-0.11342437844202198
2017-02-16,0.2325428650442359
2017-02-17,0.425929144578673
2017-02-20,-0.01784614199903431
2017-02-21,0.05125733812320386
2017-02-22,0.30498719874735525
2017-02-23,-0.31632889851484075
2017-02-24,-0.08958039913904182
2017-02-27,0.03350507342280108
2017-02-28,-0.0065273332077940595
2017-03-01,-0.30740692527984764
2017-03-02,0.03823213646664873
2017-03-03,-0.07440673912461121
2017-03-06,-0.1691408381660542
2017-03-07,-0.02691617533968479
2017-03-08,0.12736195193540306
2017-03-09,0.2476792415563956
2017-03-10,0.016355322155297822
2017-03-13,0.5220118036988481
2017-03-14,0.037666455294891814
2017-03-15,-0.11730182242571033
2017-03-16,-0.15235625866271707
2017-03-17,0.04999706762067954
2017-03-20,-0.587527429744496
2017-03-21,0.12124060150376226
2017-03-22,0.0974122596976425
2017-03-23,-0.13716551224676676
2017-03-24,0.21572471198505216
2017-03-27,0.17208162334701216
2017-03-28,-0.1623860182370891
2017-03-29,0.02240497980044226
2017-03-30,0.05851169046960665
2017-03-31,-0.3414631319044382
2017-04-05,0.23917660688235998
2017-04-06,-0.0007974032796728842
2017-04-07,-0.10696984882649213
2017-04-10,0.025457090368303955
2017-04-11,0.020141541489925294
2017-04-12,-0.31110980432511803
2017-04-13,0.16508174841509282
2017-04-14,0.16803597568210293
2017-04-17,0.12483046426709105
2017-04-18,0.12061223504420678
2017-04-19,0.03684932401538313
2017-04-20,-0.20158058414290642
2017-04-21,-0.0931174089068776
2017-04-24,-0.09198495370373777
2017-04-25,0.0382861288901216
2017-04-26,0.060506706408359506
2017-04-27,0.10378278634511479
2017-04-28,-0.09489051094891543
2017-05-02,-0.08833165322577319
2017-05-03,-0.11854462072800606
2017-05-04,0.33299663299663546
2017-05-05,-0.02185706833596722
2017-05-08,0.22609618470777965
2017-05-09,0.03899534836687155
2017-05-10,0.2880389172581411
2017-05-11,-0.399470899470899
2017-05-12,0.16829381343146907
2017-05-15,0.18629318798038863
2017-05-16,0.04876054797403693
2017-05-17,-0.35852878484579187
2017-05-18,0.0031584484876990837
2017-05-19,-0.25427481572428884
2017-05-22,-0.6610886053289969
2017-05-23,0.04745075688486549
2017-05-24,0.19736912764662484
2017-05-25,0.07804936030632018
2017-05-26,0.0030578578900913173
2017-05-31,0.41203080822854093
2017-06-01,-0.07994606316724015
2017-06-02,-0.19011070110700756
2017-06-05,0.04477058991162221
2017-06-06,0.12171142966985787
2017-06-07,-0.19536414156187115
2017-06-08,-0.018295263925253342
2017-06-09,0.11082568807337247
2017-06-12,0.0049739822467775655
2017-06-13,0.008076977103573899
2017-06-14,0.1992635024549786
2017-06-15,0.10313964058457915
2017-06-16,-0.024407777625609348
2017-06-19,0.023201773201718942
2017-06-20,-0.07592409188207459
2017-06-21,-0.08732169894016648
2017-06-22,-0.10531715854910259
2017-06-23,0.045486851456991564
2017-06-26,-0.15185101067453582
2017-06-27,0.05319510012654591
2017-06-28,-0.11527082743203117
2017-06-29,-0.05962418030526777
2017-06-30,-0.07104454685101402
2017-07-03,0.11092436974790482
2017-07-04,-0.08931623931626549
2017-07-05,0.15420419664865914
2017-07-06,0.11899313501139364
2017-07-07,0.17408231368188926
2017-07-10,-0.13681885125184584
2017-07-11,0.06066152858058613
2017-07-12,0.02283152992261453
2017-07-13,-0.01754385964905616
2017-07-14,-0.18198163488089264
2017-07-17,0.14417556639295895
2017-07-18,0.08092485549135293
2017-07-19,-0.17110795005531448
2017-07-20,-0.006172839506206103
2017-07-21,0.08567264651794528
2017-07-24,-0.15178180224913532
2017-07-25,-0.09005381702209193
2017-07-26,0.2158736200990065
2017-07-27,0.05778574273198082
2017-07-28,-0.07384826429907194
2017-07-31,0.22624326892622504
2017-08-01,0.03823351482146366
2017-08-02,-0.1547676865792553
2017-08-03,-0.17431228972885923
2017-08-04,0.09017975889141633
2017-08-07,-0.12390312390312523
2017-08-08,-0.08603701033399856
2017-08-09,0.2396889790398264
2017-08-10,0.12866661015340664
2017-08-11,-0.029122648434786128
2017-08-14,0.0932026708593402
2017-08-15,0.07958207088292656
2017-08-16,-0.34077942986097365
2017-08-17,-0.01948073716387809
2017-08-18,-0.04693827694119819
2017-08-21,-0.2939748716315502
2017-08-22,-0.08381619292526168
2017-08-23,0.2623480573120437
2017-08-24,0.09387065637069246
2017-08-25,-0.00022642363863920045
2017-08-28,0.2660098522166699
2017-08-29,0.16289120715346533
2017-08-30,-0.12059560666377296
2017-08-31,-0.15728021978025647
2017-09-01,-0.0086776859504481
2017-09-04,-0.13944343617654492
2017-09-05,-0.15747162673396176
2017-09-06,0.03286566932798306
2017-09-07,0.30141287284147955
2017-09-08,0.3083333333333703
2017-09-11,0.18705704658994723
2017-09-12,0.1034522706210221
2017-09-13,0.0362023495564872
2017-09-14,-0.18004535147394934
2017-09-15,-0.3753546099290825
2017-09-18,0.009095986595361386
2017-09-19,-0.07962283918286173
2017-09-20,-0.12037526427070247
2017-09-21,-0.07511929107021653
2017-09-22,0.13600861836793468
2017-09-25,-0.2575020579210672
2017-09-26,-0.01491589971436149
2017-09-27,0.04285588442575218
2017-09-28,-0.17732515337423202
2017-09-29,0.0012146784298191528
2017-10-09,0.3866920853575443
2017-10-10,0.06639416058399562
2017-10-11,0.03894425987440644
2017-10-12,0.4048503937007768
2017-10-13,-0.05309675704411559
2017-10-16,-0.3668754630564772
2017-10-17,0.38262499999989874
2017-10-18,0.059479222400648464
2017-10-19,-0.08632407791129099
2017-10-20,0.06607009229235851
2017-10-23,0.17053610434998545
2017-10-24,-0.6108893171805656
2017-10-25,0.1190249476289596
2017-10-26,-0.15814536340852253
2017-10-27,0.20182464454975532
2017-10-30,0.20567915908331919
2017-10-31,0.2916928886091825
2017-11-01,-0.2500770416024428
2017-11-02,-0.01710587147480165
2017-11-03,-0.3526470588235411
2017-11-06,-0.5097086607922339
2017-11-07,0.029635258358647443
2017-11-08,0.1699165568731216
2017-11-09,0.06909173132088299
2017-11-10,0.08721227621485708
2017-11-13,0.45905890855722653
2017-11-14,-0.03069798016457219
2017-11-15,-0.1802786138297493
2017-11-16,-0.004758649211835369
2017-11-17,-0.00766748783219981
2017-11-20,-0.3139608693415705
2017-11-21,-0.1903658496226669
2017-11-22,0.21036205695664661
2017-11-23,-0.021830385237431325
2017-11-24,0.07901136134994449
2017-11-27,0.0521448754174246
2017-11-28,0.08261682242992702
2017-11-29,0.07237422771404195
2017-11-30,0.11459170013391573
2017-12-01,0.003208556149776144
2017-12-04,0.11127683129343624
2017-12-05,0.06768620787314494
2017-12-06,-0.4734437464306382
2017-12-07,-0.17236947791172302
2017-12-08,-0.029624893435670895
2017-12-11,-0.06482226693493012
2017-12-12,-0.12253604001181356
2017-12-13,0.2486631016042868
2017-12-14,0.020217391304368997
2017-12-15,-0.0376141409063995
2017-12-18,0.03679909833758331
2017-12-19,0.05734928877854336
2017-12-20,-0.0140777011790424
2017-12-21,0.05357142857146274
2017-12-22,0.016871387283269385
2017-12-25,-0.11209110193149688
2017-12-26,0.04877260981910474
2017-12-27,-0.03837266875726514
2017-12-28,0.028270003653607403
2017-12-29,0.078192446043081
2018-01-02,0.4097758642522701
2018-01-03,-0.054705215419498444
2018-01-04,0.2014718740892441
2018-01-05,-0.05492267329466567
2018-01-08,-0.10592302856738126
2018-01-09,-0.5817678999021881
2018-01-10,0.15725468269499895
2018-01-11,-0.06549406082757833
2018-01-12,0.06734660838597277
2018-01-15,0.056202804746491475
2018-01-16,0.3098099191609931
2018-01-17,-0.09039668949772692
2018-01-18,-0.1283983681604643
2018-01-19,0.03578751164953447
2018-01-22,-0.037373737373755433
2018-01-23,-0.06911928651056608
2018-01-24,0.9476425438596984
2018-01-25,0.09558037225044252
2018-01-26,-0.11666202284755633
2018-01-29,-0.025389025389024333
2018-01-30,0.01719032141566842
2018-01-31,-1.5617523923445265
2018-02-01,-0.16570114942526876
2018-02-02,0.02258222876772687
2018-02-05,0.04867062184138348
2018-02-06,0.0487732848704951
2018-02-07,0.6190759337562127
2018-02-08,0.26637282862319545
2018-02-09,0.2622201198361217
2018-02-12,-0.056265102473057535
2018-02-13,-0.07403652955909124
2018-02-14,-0.05426992672936956
2018-02-22,-0.212732603512171
2018-02-23,-0.49003681674133254
2018-02-26,0.4274453659999363
2018-02-27,0.26496394891396535
2018-02-28,0.043566743319274376
2018-03-01,0.012717640732148386
2018-03-02,0.2729028164594724
2018-03-05,-0.5511853448277388
2018-03-06,-0.3193003144654103
2018-03-07,-0.05478732714865705
2018-03-08,0.17896233120116214
2018-03-09,0.06205673758866799
2018-03-12,0.059448964497087864
2018-03-13,0.03471698113200708
2018-03-14,0.1964545896066646
2018-03-15,-0.25974025974030407
2018-03-16,-0.16134751773051448
2018-03-19,0.14319526627218782
2018-03-20,0.03840796019906773
2018-03-21,-0.36651728553148233
2018-03-22,0.38354978354981767
2018-03-23,0.35493726132022374
2018-03-26,-0.024745134383703314
2018-03-27,-0.056930914290794395
2018-03-28,0.29486803519072713
2018-03-29,-0.33868695407156185
2018-03-30,-0.447975708501963
2018-04-02,0.13683304647150657
2018-04-03,0.33574517631397127
2018-04-04,-0.1452676355902553
2018-04-09,0.14128939039489943
2018-04-10,0.2045721846515054
2018-04-11,-0.07799227799216173
2018-04-12,-0.36541173152848916
2018-04-13,0.14534053517103884
2018-04-16,0.13028678153996162
2018-04-17,-0.01139565926726012
2018-04-18,0.09097929097926215
2018-04-19,0.12399475275201248
2018-04-20,-0.09405848388898821
2018-04-23,-0.29230798537033176
2018-04-24,-0.05978079757102679
2018-04-25,-0.3862789384528399
2018-04-26,-0.09591823779599595
2018-04-27,0.13171178415083498
2018-05-02,0.22943163751988283
2018-05-03,0.14497397693639813
2018-05-04,0.24805592798313364
2018-05-07,0.09509134932860785
2018-05-08,-0.06025217031835685
2018-05-09,-0.15969540969539678
2018-05-10,-0.1658944790284622
2018-05-11,-0.030954478707802248
2018-05-14,-0.0802035802035286
2018-05-15,-0.1634903900737701
2018-05-16,0.14189883962330563
2018-05-17,0.1316968920516233
2018-05-18,0.045221599252495054
2018-05-21,0.12889173557195038
2018-05-22,0.04675766326743645
2018-05-23,-0.21531153803600442
2018-05-24,-0.19134608717908433
2018-05-25,0.16922905251657588
2018-05-28,-0.11219364212970459
2018-05-29,0.12660601954947576
2018-05-30,0.18355855855851524
2018-05-31,0.1565244733256481
2018-06-01,-0.4060353512225715
2018-06-04,0.16557180532246685
2018-06-05,-0.20611026988506226
2018-06-06,-0.08487434803223284
2018-06-07,-0.14100057504312433
2018-06-08,0.21696622555787906
2018-06-11,-0.3141875306823596
2018-06-12,0.15785213167831186
2018-06-13,0.05488721804517905
2018-06-14,0.3318693693693198
2018-06-15,-0.057245932884022674
2018-06-19,0.3857424626655204
2018-06-20,0.12900407687827048
2018-06-21,0.03980463980459155
2018-06-22,-0.23316666666660918
2018-06-25,0.14559934653871787
2018-06-26,-0.3011056882477182
2018-06-27,-0.24413012729841915
2018-06-28,-0.16659035409035378
2018-06-29,-0.03560396039607783
2018-07-02,-0.07978304972468529
2018-07-03,0.24725355747250422
2018-07-04,0.032616940581547786
2018-07-05,0.06083110814417657
2018-07-06,0.08814764971644573
2018-07-09,-0.1363592974417795
2018-07-10,-0.27753979586440103
2018-07-11,0.11370340573881581
2018-07-12,0.05452603471300049
2018-07-13,-0.09348750954507881
2018-07-16,0.16279956427017897
2018-07-17,0.10803576680983484
2018-07-18,-0.15309160973903121
2018-07-19,0.3331756141946667
2018-07-20,0.4647551409793574
2018-07-23,-0.007191713894877015
2018-07-24,0.028089887640429315
2018-07-25,0.09568043731185938
2018-07-26,-0.4203821656050752
2018-07-27,-0.8136469371930173
2018-07-30,-0.14156202488879605
2018-07-31,0.10691823899373695
2018-08-01,0.15589602091200128
2018-08-02,-0.018171599850129158
2018-08-03,0.5228678745028645
2018-08-06,0.13026634382562294
2018-08-07,-0.09302935010485355
2018-08-08,-0.09973017849730142
2018-08-09,0.13564908722110175
2018-08-10,-0.08376476835257526
2018-08-13,0.15646794150737192
2018-08-14,0.005934365160245647
2018-08-15,-0.08880316091902812
2018-08-16,0.03296848294567541
2018-08-17,0.035339507340126024
2018-08-20,-0.29437252014335547
2018-08-21,-0.029500673403919007
2018-08-22,-0.029189491498662117
2018-08-23,-0.22225078815985144
2018-08-24,-0.2096392551165599
2018-08-27,0.06766648339791735
2018-08-28,0.09663394109386736
2018-08-29,-0.0035903003981501216
2018-08-30,0.1323898391249611
2018-08-31,0.047692545145826326
2018-09-03,0.0677083333333255
2018-09-04,-0.20878393290653335
2018-09-05,0.06800256904304722
2018-09-06,-0.04224546494526213
2018-09-07,0.08740031897926197
2018-09-10,0.028175200803279822
2018-09-11,0.23611312545314664
2018-09-12,0.02498888394836532
2018-09-13,0.1412763767369944
2018-09-14,0.016770444167736393
2018-09-17,-0.15689543889852292
2018-09-18,-0.24363894811651798
2018-09-19,-0.01934065934058137
2018-09-20,-0.12910026140488862
2018-09-21,0.03599247918341632
2018-09-25,0.0526785714285906
2018-09-26,0.21122457886006224
2018-09-27,-0.0006177606177772913
2018-09-28,-0.008580319647050638
2018-10-08,-0.13747521480500535
2018-10-09,0.17804878048787187
2018-10-10,-0.21700648016434315
2018-10-11,0.12043918918917292
2018-10-12,0.03707861848903786
2018-10-15,0.03395894796308844
2018-10-16,-0.1163528740551546
2018-10-17,0.16403686923915484
2018-10-18,-0.3278792134831794
2018-10-19,0.1019588146660444
2018-10-22,0.00623119896865465
2018-10-23,0.008304093567350155
2018-10-24,-0.028901734104037277
2018-10-25,0.24891679518257562
2018-10-26,-0.19028797289667776
2018-10-29,0.18328912466838296
2018-10-30,-0.0922891566266028
2018-10-31,0.04545454545456461
2018-11-01,-0.008809320829843363
2018-11-02,0.2005693581780555
2018-11-05,-0.2150978564771151
2018-11-06,0.18275427290560198
2018-11-07,-0.04021894336033497
2018-11-08,-0.03826992753620857
2018-11-09,-0.17891068344438005
2018-11-12,0.05903431521405986
2018-11-13,-0.2013742071881227
2018-11-14,0.0010143979057388374
2018-11-15,-0.09837603519669698
2018-11-16,0.2831996593086559
2018-11-19,0.16462953521345447
2018-11-20,0.06134531922398393
2018-11-21,0.0343481765439353
2018-11-22,0.19072112878700828
2018-11-23,-0.26771326334343015
2018-11-26,-0.1581329166501331
2018-11-27,0.10099234311363725
2018-11-28,-0.12948706543278596
2018-11-29,-0.1951144025333971
2018-11-30,0.04601759507241598
2018-12-03,0.01572834748187323
2018-12-04,-0.09316770186332646
2018-12-05,0.20555555555556335
2018-12-06,0.14731221939083144
2018-12-07,0.025694889202038322
2018-12-10,-0.17061342413455946
2018-12-11,-0.045299975710478634
2018-12-12,-0.17055888223556037
2018-12-13,0.1021474903961514
2018-12-14,-0.003984167491312596
2018-12-17,0.4164550142384489
2018-12-18,0.09312606266696458
2018-12-19,0.07084136811125699
2018-12-20,-0.19773206751056568
2018-12-21,-0.044795815538135095
2018-12-24,-0.3613760556383608
2018-12-25,-0.07684837784150284
2018-12-26,-0.0009063717937141981
2018-12-27,0.014254385964878213
2018-12-28,0.1479969622176026
2019-01-02,0.08003565062388676
2019-01-03,0.08593730071680962
2019-01-04,0.05191838429987568
2019-01-07,0.004306220095752034
2019-01-08,-0.047947988622568084
2019-01-09,-0.0019219141400952308
2019-01-10,0.08699606630433733
2019-01-11,-0.08005793924208773
2019-01-14,0.09257884972167255
2019-01-15,-0.17952160991152497
2019-01-16,0.11338823980082632
2019-01-17,-0.2141719457013997
2019-01-18,-0.040766661929788194
2019-01-21,-0.18158519221640673
2019-01-22,0.13982657793908443
2019-01-23,0.9388166741371924
2019-01-24,0.07927735368963404
2019-01-25,-0.0038375948045066416
2019-01-28,0.18185284025924475
2019-01-29,-0.04412955465585987
2019-01-30,-1.6294477365587534
2019-01-31,-0.007144903358465786
2019-02-01,0.09724157146838194
2019-02-11,0.025335320417270726
2019-02-12,0.017124542124570902
2019-02-13,0.5737344209219024
2019-02-14,0.14332433979228346
2019-02-15,0.052866052866066035
2019-02-18,-0.26678848789401416
2019-02-19,0.15839140534258436
2019-02-20,0.35910938116468505
2019-02-21,-0.1030234558635744
2019-02-22,-0.1281414849877946
2019-02-25,0.3504214586529696
2019-02-26,-0.11400405724514856
2019-02-27,-0.49528221821479895
2019-02-28,-0.04832178047496173
2019-03-01,0.014243088302484115
2019-03-04,-0.22893536710737905
2019-03-05,-0.19772700254326475
2019-03-06,0.15032348312639382
2019-03-07,0.03323603979802448
2019-03-08,0.004534356470194616
2019-03-11,-0.0807418296957766
2019-03-12,0.15929203539818051
2019-03-13,-0.02171052631575612
2019-03-14,-0.08326967150499592
2019-03-15,0.2272250524422993
2019-03-18,0.10025141420486869
2019-03-19,0.04216867469872118
2019-03-20,0.03749999999999967
2019-03-21,0.03745965017641688
2019-03-22,-0.4100627863566701
2019-03-25,-0.017747858017094248
2019-03-26,-0.11359724612727602
2019-03-27,0.008547008546958765
2019-03-28,0.015038698932143414
2019-03-29,0.1900995285490022
2019-04-01,0.324561403508677
2019-04-02,0.12660098522169122
2019-04-03,0.43589743589743246
2019-04-04,0.14307078763706962
2019-04-08,0.23541629994713803
2019-04-09,-0.36103873545239246
2019-04-10,0.013668165917010852
2019-04-11,-0.6105461393596531
2019-04-12,-0.22740315638449213
2019-04-15,-0.3956704194627739
2019-04-16,0.15504297682511547
2019-04-17,0.04456148214551241
2019-04-18,0.08739799121155627
2019-04-19,0.12985660007348968
2019-04-22,0.04087095395556434
2019-04-23,-0.08853293599054794
2019-04-24,-0.2694714260175191
2019-04-25,0.2499365804160032
2019-04-26,0.0032913103530147307
2019-04-29,0.24807881773395618
2019-04-30,0.08892540066869044
2019-05-06,0.07951434023841315
2019-05-07,-0.3111292497693056
2019-05-08,-0.02941590925111675
2019-05-09,-0.24121212121216276
2019-05-10,-0.059429978888024496
2019-05-13,0.06970570885495897
2019-05-14,0.25024120064322325
2019-05-15,0.03707999700668046
2019-05-16,0.16338079591098661
2019-05-17,-0.13406418178197857
2019-05-20,-0.019640751156653934
2019-05-21,0.37945109078107425
2019-05-22,-0.09011643534846546
2019-05-23,-0.04663864876350414
2019-05-24,0.07375523079047488
2019-05-27,0.2801101842450282
2019-05-28,-0.7520762678761373
2019-05-29,0.15961919394526422
2019-05-30,0.04507911112057848
2019-05-31,0.1656075212185264
2019-06-03,-0.4816902934584891
2019-06-04,0.16000762223611237
2019-06-05,-0.15119157061031765
2019-06-06,-0.06727580372260175
2019-06-10,-0.22863347811560353
2019-06-11,0.32884536923708907
2019-06-12,0.10931498079385378
2019-06-13,0.02965389041338414
2019-06-14,0.026666666666657186
2019-06-17,0.10215264187873808
2019-06-18,-0.20222446916076098
2019-06-19,-0.0634938664243334
2019-06-20,0.055167055167074736
2019-06-21,0.03305785123979677
2019-06-24,0.10228571428564558
2019-06-25,0.0940963341857313
2019-06-26,0.01941457586614008
2019-06-27,-0.09572649572651445
2019-06-28,0.130876574989658
2019-07-01,-0.024619718309816824
2019-07-02,0.2656310868719172
2019-07-03,0.0738791423002151
2019-07-04,0.07676688793440892
2019-07-05,-0.2889344262294058
2019-07-08,-0.09766599597591494
2019-07-09,-0.483130216701316
2019-07-10,-0.044475693049426474
2019-07-11,0.03861772745019122
2019-07-12,0.09580291970800459
2019-07-15,0.19218045112789717
2019-07-16,0.1923845385384046
2019-07-17,-0.0527690967775097
2019-07-18,-0.16098901098900903
2019-07-19,0.03719708029199878
2019-07-22,-0.348370927318379
2019-07-23,0.23834988540880198
2019-07-24,0.08479292846625043
2019-07-25,0.04365079365082175
2019-07-26,-0.0673220338983179
2019-07-29,0.21750321750327345
2019-07-30,-0.31114551083603414
2019-07-31,0.014825442372061359
2019-08-01,0.186133572926009
2019-08-02,0.1769690927218913
2019-08-05,0.10831131883768595
2019-08-06,0.2708260718020783
2019-08-07,-0.08467023172909852
2019-08-08,-0.18811769991012053
2019-08-09,-0.20681903334590723
2019-08-12,-0.317156527682959
2019-08-13,-0.41342616177057306
2019-08-14,0.29609001942731106
2019-08-15,0.5388923959022847
2019-08-16,0.16963620402111834
2019-08-19,0.20489465769708465
2019-08-20,0.22012957402889827
2019-08-21,-0.29661248546699903
2019-08-22,-0.7023318680767087
2019-08-23,-0.10390172949889788
2019-08-26,0.0729235241211165
2019-08-27,0.020434403761403874
2019-08-28,-0.005493576740970958
2019-08-29,0.6242644998598028
2019-08-30,0.06232638888903573
2019-09-02,-0.16017112299461944
2019-09-03,0.013013555787222842
2019-09-04,0.08556149732616962
2019-09-05,-0.7085356503960022
2019-09-06,-0.030888888888921447
2019-09-09,0.11179017061365715
2019-09-10,0.001861471861507943
2019-09-11,-0.10927887901586911
2019-09-12,0.3863575448940574
2019-09-16,0.08290909090909723
2019-09-17,0.056547619047735
2019-09-18,0.13078902229842457
2019-09-19,0.12491172683103244
2019-09-20,-0.09948652118091791
2019-09-23,-0.23685503685505735
2019-09-24,-0.18011603375534943
2019-09-25,-0.2753510812440475
2019-09-26,0.021704814522479618
2019-09-27,0.08557504873293269
2019-09-30,0.4186732186731581
2019-10-08,0.004520795660027999
2019-10-09,0.15473778065982247
2019-10-10,-0.14119601328900694
2019-10-11,-0.09050925925931198
2019-10-14,-0.4082111436949298
2019-10-15,0.0639658848614099
2019-10-16,-0.055345464252386664
2019-10-17,0.03070494186036026
2019-10-18,0.03125000000002797
2019-10-21,0.11922370836606865
2019-10-22,0.007462686567199384
2019-10-23,0.045858447772276156
2019-10-24,0.00627561475410373
2019-10-25,-0.05084745762712993
2019-10-28,-0.09981126596973917
2019-10-29,-0.020202020202077755
2019-10-30,0.3628695578088427
2019-10-31,0.1530876371257564
2019-11-01,0.07098168581504008
2019-11-04,0.096334586466098
2019-11-05,0.29536980543694247
2019-11-06,-0.597449810092364
2019-11-07,-0.215538847117941
2019-11-08,-0.05772821315030896
2019-11-11,0.16817434210527202
2019-11-12,-0.5064603022416772
2019-11-13,0.26171401956208457
2019-11-14,0.19780219780225886
2019-11-15,0.08410561286938224
2019-11-18,-0.03732638888879869
2019-11-19,0.157959183673459
2019-11-20,-0.027814229568716337
2019-11-21,-0.15211495894560295
2019-11-22,-0.10622594430691232
2019-11-25,-0.3181627207176885
2019-11-26,0.1546658276662899
2019-11-27,-0.026275589304780904
2019-11-28,-0.02663961980900305
2019-11-29,0.13187926485348805
2019-12-02,0.11089776345261484
2019-12-03,-0.1451622815670808
2019-12-04,0.08687340696688363
2019-12-05,0.14002026342451998
2019-12-06,0.02783505154644675
2019-12-09,0.09615384615389294
2019-12-10,0.10019342359776898
2019-12-11,-0.02432216905896062
2019-12-12,-0.072233148578598
2019-12-13,-0.2355932203390077
2019-12-16,0.029411764705949354
2019-12-17,0.049350649350716015
2019-12-18,-0.10526315789473847
2019-12-19,0.045786538914745864
2019-12-20,0.333791418537137
2019-12-23,0.015701017248900065
2019-12-24,-0.15765673175756317
2019-12-25,0.04589963280282836
2019-12-26,-0.03738317757022691
2019-12-27,-0.371426544654815
2019-12-30,-0.09273182957391155
2019-12-31,0.041942446043246914
2020-01-02,0.0670502677217441
2020-01-03,1.7435328759320587e-14
2020-01-06,0.3496989346919806
2020-01-07,-0.010714285714234106
2020-01-08,0.0653982300884268
2020-01-09,0.2903339501276208
2020-01-10,0.12101910828032642
2020-01-13,-0.2844251336898476
2020-01-14,0.07107218683642745
2020-01-15,0.03378415984862856
2020-01-16,-0.6065862242332849
2020-01-17,-0.12901910828032345
2020-01-20,0.3176319648093556
2020-01-21,0.06726114649689523
2020-01-22,0.01723736314932428
2020-01-23,0.412433155080283
2020-02-03,0.20601980198023445
2020-02-04,-0.27166089042914526
2020-02-05,-0.04916299559473346
2020-02-06,-0.15906932573600374
2020-02-07,-0.21685169669043503
2020-02-10,-0.43069306930693435
2020-02-11,0.06843508397756347
2020-02-12,-0.005195978764243374
2020-02-13,0.028899572649585814
2020-02-14,0.20637932592394279
2020-02-17,0.2843974052577341
2020-02-18,0.00994182971971081
2020-02-19,-0.15968222386770825
2020-02-20,0.1254793413850792
2020-02-21,-0.257025323464828
2020-02-24,-0.08980692789637416
2020-02-25,-0.09030910434339859
2020-02-26,0.2737470805795842
2020-02-27,-0.055922889772180934
2020-02-28,0.10090249697573264
2020-03-02,0.16628791817046176
2020-03-03,0.17050657081139053
2020-03-04,-0.08271106370007979
2020-03-05,-0.06502213788739772
2020-03-06,0.07499037350784504
2020-03-09,-0.07989594946112491
2020-03-10,0.1153906577293626
2020-03-11,-0.007565160858170897
2020-03-12,0.05008525149187211
2020-03-13,0.03706751517814628
2020-03-16,-0.0417518016947993
2020-03-17,-0.3618187003707932
2020-03-18,0.004210188948620998
2020-03-19,0.054584980237166514
2020-03-20,-0.1512104419733964
2020-03-23,-0.10076027559988514
2020-03-24,0.24583713355049658
2020-03-25,-0.046340576670301704
2020-03-26,-0.06545454545454943
2020-03-27,0.08338279665627735
2020-03-30,0.20020996568853255
2020-03-31,-0.06724600638977596
2020-04-01,-0.03214399056987536
2020-04-02,-0.02547770700637389
2020-04-03,-0.018826371128193548
2020-04-07,0.2868500757193105
2020-04-08,0.015535050678827246
2020-04-09,-0.006405279503118911
2020-04-10,0.17063899732896545
2020-04-13,0.05181415289124832
2020-04-14,-0.6761271048343089
2020-04-15,-0.14508480025720383
2020-04-16,0.016500737463116054
2020-04-17,-0.35474212864594645
2020-04-20,-0.17577434302788073
2020-04-21,0.45494378171968564
2020-04-22,0.17771883289122486
2020-04-23,0.19162001083617414
2020-04-24,0.3107369076875029
2020-04-27,0.09642686709615289
2020-04-28,-0.18775961062724422
2020-04-29,-0.06057430308111815
2020-04-30,-0.3028761102295688
2020-05-06,-0.07661619206352904
2020-05-07,0.20363210586702393
2020-05-08,0.09456680354296684
2020-05-11,0.06815826841158847
2020-05-12,0.18877592470083443
2020-05-13,-0.10193295265702587
2020-05-14,-0.18704974157647677
2020-05-15,-0.1548573750378626
2020-05-18,-0.11143741406832458
2020-05-19,-0.0040794671919893236
2020-05-20,0.12041808948278071
2020-05-21,-0.07486239776635502
2020-05-22,0.19618076335763923
2020-05-25,0.02911377792831139
2020-05-26,0.12213679113167808
2020-05-27,0.045535871482495265
2020-05-28,0.06741300202424662
2020-05-29,-0.2484493409437021
2020-06-01,-0.049427500601703006
2020-06-02,-0.28619978753668546
2020-06-03,-0.06777566620933957
2020-06-04,0.12498657872534487
2020-06-05,0.20791323264862438
2020-06-08,0.05854352951642371
2020-06-09,-0.019395324499436165
2020-06-10,-0.11440224067612252
2020-06-11,-0.27274658509123134
2020-06-12,-0.19379343234773447
2020-06-15,-0.10278208487051971
2020-06-16,0.05185055865919379
2020-06-17,-0.04121443939756542
2020-06-18,0.4107066642277751
2020-06-19,0.1629680462392031
2020-06-22,0.058479349512241825
2020-06-23,0.21284840728102417
2020-06-24,0.2096817600753576
2020-06-29,-0.379215955817615
2020-06-30,-0.09956111743701107
2020-07-01,0.04983831716504328
2020-07-02,-0.3319847207468005
2020-07-03,-0.15681751251596274
2020-07-06,0.7442051333068166
2020-07-07,0.23620108379079174
2020-07-08,0.05775705775706273
2020-07-09,0.2788208760109948
2020-07-10,0.11589934884330944
2020-07-13,-0.8477316602316691
2020-07-14,-0.3358366417723996
2020-07-15,-0.03021337636721947
2020-07-16,-0.11226364658674856
2020-07-17,-0.03393213572854583
2020-07-20,0.12700906886953045
2020-07-21,0.1702342883247369
2020-07-22,-0.047563411600651466
2020-07-23,-0.035207124691153335
2020-07-24,0.054421768707487043
2020-07-27,0.13690922730682573
2020-07-28,-0.07260551948051028
2020-07-29,-0.16513211830736546
2020-07-30,-0.014693949997453784
2020-07-31,-0.10163206913668271
2020-08-03,0.2109851787271106
2020-08-04,0.11109601449274274
2020-08-05,0.3532483385324756
2020-08-06,0.12452977337369522
2020-08-07,0.025171732936092827
2020-08-10,-0.35873620098971387
2020-08-11,-0.061155727868535154
2020-08-12,-0.36384524486847936
2020-08-13,-0.0452418973932162
2020-08-14,-0.03222499839838264
2020-08-17,-0.027949665204344262
2020-08-18,-0.08209036930419152
2020-08-19,0.2221266185947619
2020-08-20,-0.007891467132448256
2020-08-21,0.12615735359225727
2020-08-24,0.18649897154474074
2020-08-25,0.1350488383361221
2020-08-26,0.05161470563130116
2020-08-27,6.340867479509224e-05
2020-08-28,-0.14699260193002622
2020-08-31,-0.017415322952922245
2020-09-01,-0.1122737556561681
2020-09-02,-0.1881609195402198
2020-09-03,0.07746641963868948
2020-09-04,0.07966502427491856
2020-09-07,-0.043822843822798704
2020-09-08,0.08101851851857786
2020-09-09,0.10242424242420944
2020-09-10,-0.03749337572864434
2020-09-11,0.01282509430216862
2020-09-14,0.7574980574980384
2020-09-15,0.0601055601055137
2020-09-16,-0.029592048043045636
2020-09-17,-0.06626859417558369
2020-09-18,-0.017391304347832738
2020-09-21,-1.1062227141363927
2020-09-22,-0.1468058968058793
2020-09-23,0.028631220252986908
2020-09-24,0.08668417104274581
2020-09-25,-0.03435114503817052
2020-09-28,0.2720448147411108
2020-09-29,0.01578007145692696
2020-09-30,0.1070772919710659
2020-10-09,-0.21347640629163078
2020-10-12,0.1323903607244527
2020-10-13,0.05021880293617053
2020-10-14,0.033710157939805696
2020-10-15,-0.23901689708142726
2020-10-16,0.23311174991011152
2020-10-19,-0.11824123588831165
2020-10-20,0.10649852724598019
2020-10-21,0.013837219853067198
2020-10-22,0.07502903600464823
2020-10-23,-0.1581382385729528
2020-10-26,-0.0971164155521612
2020-10-27,-0.04286832833096546
2020-10-28,0.1352891515407111
2020-10-29,0.09823103725543995
2020-10-30,0.14487850718216094
2020-11-02,0.21091449486745908
2020-11-03,-0.05952788231268705
2020-11-04,-0.23841600326599588
2020-11-05,-0.08102949681896043
2020-11-06,-0.10087070339178811
2020-11-09,-0.21224012690986954
2020-11-10,0.27130977130979017
2020-11-11,0.08193955399067927
2020-11-12,-0.04328736279205192
2020-11-13,0.21723422970601733
2020-11-16,0.16276171485544205
2020-11-17,-0.4326471650415271
2020-11-18,0.15545343137246265
2020-11-19,0.11132464349377524
2020-11-20,-0.1387479877987224
2020-11-23,-0.07782711929604647
2020-11-24,0.26697587165883896
2020-11-25,-0.09637960052350848
2020-11-26,-0.04089500911848901
2020-11-27,-0.14089938465099036
2020-11-30,0.22660287325241252
2020-12-01,-0.018289426748255705
2020-12-02,-0.13872322109288468
2020-12-03,0.0317094030578749
2020-12-04,0.029660160827625653
2020-12-07,-0.345274353396147
2020-12-08,-0.14231412861583143
2020-12-09,0.18022521840120104
2020-12-10,-0.10241723594321628
2020-12-11,0.08954646017693113
2020-12-14,0.08489628980424889
2020-12-15,0.1152424600828052
2020-12-16,-0.15195351632938733
2020-12-17,0.16605359957959814
2020-12-18,-0.018749999999974676
2020-12-21,0.1187667138587552
2020-12-22,-0.007541720154047991
2020-12-23,0.07139525845320706
2020-12-24,-0.10303030303025247
2020-12-25,0.06748466257666995
2020-12-28,-0.039787798408494654
2020-12-29,-0.06333148558761766
2020-12-30,0.05991631195442108
2020-12-31,0.1541666666665518
2021-01-04,-0.15206177700452433
2021-01-05,0.021114442778623795
2021-01-06,0.11955741626800902
2021-01-07,-0.10315329931276132
2021-01-08,-0.2456723975505208
2021-01-11,0.11347884853189898
2021-01-12,-0.026990718124148633
2021-01-13,-0.02931490738024744
2021-01-14,0.3342073203029905
2021-01-15,0.18730895137335127
2021-01-18,-0.040484745687052084
2021-01-19,-0.07202422752803841
2021-01-20,-0.09768355110910894
2021-01-21,-0.4938351254479777
2021-01-22,-0.17356964881766884
2021-01-25,0.042447209113817976
2021-01-26,0.18017870508981393
2021-01-27,0.12846987897601372
2021-01-28,0.2440647682858189
2021-01-29,0.22580997054654267
2021-02-01,-0.03086419753077389
2021-02-02,-0.19924254055988233
2021-02-03,-0.06521957592201119
2021-02-04,-0.035175879396963074
2021-02-05,-0.30801535335290586
2021-02-08,0.011235955056117342
2021-02-09,0.11324786324782457
2021-02-10,-0.06413235665571311
2021-02-18,0.040229885057495
2021-02-19,0.13939406315425718
2021-02-22,0.006484464570229236
2021-02-23,0.023277647212238316
2021-02-24,0.006386660348673731
2021-02-25,-0.17522090887787448
2021-02-26,0.07845059408846974
2021-03-01,-0.12397041962636332
2021-03-02,-0.07902745296203442
2021-03-03,0.19695769119711665
2021-03-04,0.13499102382037947
2021-03-05,0.09261314588735027
2021-03-08,0.22227209944747367
2021-03-09,0.07252648341755136
2021-03-10,-0.15810290156503767
2021-03-11,0.024038461538446538
2021-03-12,-0.2979891930198396
2021-03-15,-0.2054075743078392
2021-03-16,-0.17338881127371664
2021-03-17,-0.14071156798611595
2021-03-18,-0.08237179487171487
2021-03-19,0.2392704308447009
2021-03-22,0.09758219617181131
2021-03-23,0.10444411192571935
2021-03-24,0.15492957746481215
2021-03-25,0.04166666666657318
2021-03-26,-0.2660866956652092
2021-03-29,-0.07069672131142482
2021-03-30,0.24661246612478968
2021-03-31,0.10000000000003108
2021-04-01,0.03319559228648536
2021-04-02,0.27587157227501363
2021-04-06,0.06249999999993803
2021-04-07,-0.2744610281925033
2021-04-08,-0.15511811023627825
2021-04-09,0.00013774104695274403
2021-04-12,-0.03205384512859629
2021-04-13,0.10077519379848307
2021-04-14,-0.06747950388897794
2021-04-15,0.02311811023628508
2021-04-16,-0.05798898071634983
2021-04-19,-0.01427360090449483
2021-04-20,-0.3073867640464116
2021-04-21,0.20305164319249716
2021-04-22,0.03199999999987999
2021-04-23,0.06055308328032823
2021-04-26,-0.19404684450225698
2021-04-27,0.4288337924701999
2021-04-28,-0.11060606060610262
2021-04-29,0.11214953271043837
2021-04-30,0.1656431803492031
2021-05-06,0.1934965877157964
2021-05-07,-0.25623582766442704
2021-05-10,0.10473751600522282
2021-05-11,-0.0860057418607141
2021-05-12,-0.24219879034429798
2021-05-13,-0.029039677975875814
2021-05-14,-0.005986394557817076
2021-05-17,-0.08440923317694225
2021-05-18,-0.1450249097307351
2021-05-19,0.009705793145309727
2021-05-20,0.08773773773774933
2021-05-21,0.1544730264054634
2021-05-24,0.04176047511120366
2021-05-25,0.17198844681550868
2021-05-26,0.0357426297225678
2021-05-27,-0.24682087150443588
2021-05-28,-0.20336191529435804
2021-05-31,0.05461486364224845
2021-06-01,-0.10534613390454114
2021-06-02,0.12211263836899554
2021-06-03,0.15975401741632422
2021-06-04,0.2217560217560447
2021-06-07,-0.19436916591389958
2021-06-08,0.05913535769423147
2021-06-09,-0.2746197821163585
2021-06-10,-0.055168003720512414
2021-06-11,-0.2439782439782942
2021-06-15,0.13378442545113053
2021-06-16,-0.006896551724079662
2021-06-17,0.19242094482143304
2021-06-18,0.2500745156483056
2021-06-21,0.10359231411867019
2021-06-22,-0.10460372960379945
2021-06-23,-0.024590163934456268
2021-06-24,0.047592868923301446
2021-06-25,-0.3653409090909403
2021-06-28,0.11862990810359351
2021-06-29,0.06742424242429394
2021-06-30,0.08341369334620852
2021-07-01,-0.059757236227910626
2021-07-02,0.13281250000000777
2021-07-05,-0.2871111111111586
2021-07-06,-0.0013754045307701138
2021-07-07,0.15686274509804876
2021-07-08,0.05670762928831527
2021-07-09,0.18133223684213773
2021-07-12,0.4032727272727903
2021-07-13,0.004417732573077796
2021-07-14,-0.24760116812685318
2021-07-15,-0.12203119461182127
2021-07-16,-0.22147855187105586
2021-07-19,-0.4371492704826553
2021-07-20,0.07560350529102389
2021-07-21,-0.04837707718590085
2021-07-22,0.0018315018315524373
2021-07-23,0.1052504816955851
2021-07-26,0.2578765432099492
2021-07-27,0.3495348282442994
2021-07-28,0.09642100306096132
2021-07-29,0.026455026454945935
2021-07-30,0.012387387387416057
2021-08-02,0.08020512820504752
2021-08-03,-0.651665510062517
2021-08-04,-0.09305210918111043
2021-08-05,0.059625559625586105
2021-08-06,-0.20837504170842552
2021-08-09,-0.06981096762117586
2021-08-10,0.4525078369906299
2021-08-11,0.08257279443722226
2021-08-12,-0.044079515989623334
2021-08-13,0.27296505545097116
2021-08-16,-0.15435375654350597
2021-08-17,-0.3994606048931082
2021-08-18,0.2813204188237845
2021-08-19,0.027209263598434015
2021-08-20,-0.14404493037347077
2021-08-23,0.027344547759708668
2021-08-24,0.1450016727465156
2021-08-25,-0.4644849292373544
2021-08-26,-0.014397041466001351
2021-08-27,-0.03174199456599285
2021-08-30,0.19740292698772655
2021-08-31,0.04048068637013587
2021-09-01,0.29084812623273637
2021-09-02,-0.06707448412532199
2021-09-03,0.01892629663327275
2021-09-06,-0.22150311057592864
2021-09-07,0.029784940969033592
2021-09-08,-0.28938967136144256
2021-09-09,0.06842724806792334
2021-09-10,0.22465723847566185
2021-09-13,0.2855723746452121
2021-09-14,-0.09637658988600527
2021-09-15,0.30981429981155906
2021-09-16,-0.014164986075024602
2021-09-17,-0.2824858757062135
2021-09-22,-0.44285714285713995
2021-09-23,0.17654690618771626
2021-09-24,-0.29793706626101857
2021-09-27,0.08597512038523437
2021-09-28,0.09604519774011709
2021-09-29,0.3987603305785293
2021-09-30,-0.12386091127104483
2021-10-08,0.20765736534714438
2021-10-11,0.0029761904761712865
2021-10-12,0.012820512820540256
2021-10-13,-0.15508944450257106
2021-10-14,-0.05013059615997617
2021-10-15,0.057873090481796924
2021-10-18,-0.16922290388547037
2021-10-19,0.07442780932706362
2021-10-20,-0.018362244100645006
2021-10-21,0.050995726840261775
2021-10-22,-0.2287398863832518
2021-10-25,0.07129103040611823
2021-10-26,-0.19095202585128424
2021-10-27,-0.041424344454697934
2021-10-28,0.03287778649040182
2021-10-29,0.21359543158371963
2021-11-01,0.1574556830031534
2021-11-02,0.22870370370363624
2021-11-03,0.10315273951647269
2021-11-04,-0.080120101137765
2021-11-05,-0.11765343743233711
2021-11-08,-0.20129870129867347
2021-11-09,-0.22155172413783847
2021-11-10,-0.07520497596839566
2021-11-11,0.053571428571364405
2021-11-12,-0.04791853848457449
2021-11-15,0.06706224809675233
2021-11-16,0.0965517241378585
2021-11-17,0.012526913290280179
2021-11-18,-0.04385964912270675
2021-11-19,0.3552703817139836
2021-11-22,-0.05865572325758705
2021-11-23,-0.03760179626915239
2021-11-24,0.18339757699024126
2021-11-25,0.06440613367720897
2021-11-26,-0.4425719690155558
2021-11-29,0.01803503360233468
2021-11-30,0.07892411031880131
2021-12-01,-0.2847406783333051
2021-12-02,0.24308987908188326
2021-12-03,0.18105515587529292
2021-12-06,0.046184397163174025
2021-12-07,0.04259376986641604
2021-12-08,0.15279057859695638
2021-12-09,-0.2950829045168552
2021-12-10,-0.06633654115667188
2021-12-13,0.013212863110849786
2021-12-14,-0.13058275058271668
2021-12-15,0.023144597338237847
2021-12-16,-0.10188679245278599
2021-12-17,0.14425574425575233
2021-12-20,0.014856260852820866
2021-12-21,-0.007387387387321441
2021-12-22,-0.0275224775225559
2021-12-23,0.1613053613052787
2021-12-24,-0.11951857666146161
2021-12-27,-0.05623953511289621
2021-12-28,0.06114625263555594
2021-12-29,-0.14818913480883394
2021-12-30,0.13331829460869882
2021-12-31,0.041099773242617474
2022-01-04,-0.020260561356349648
2022-01-05,-0.007092198581578848
2022-01-06,0.11966836479875274
2022-01-07,-0.32557603686640846
2022-01-10,-0.06517094017090458
2022-01-11,0.08830062939647866
2022-01-12,-0.0256410256409752
2022-01-13,0.05095184770430881
2022-01-14,0.21470588235299412
2022-01-17,0.1392820512820602
2022-01-18,0.1885930047694601
2022-01-19,0.06706114398416277
2022-01-20,-0.06658692185003742
2022-01-21,0.025161227281572447
2022-01-24,-0.0934054054054101
2022-01-25,-0.4382992327365235
2022-01-26,0.012633935710871132
2022-01-27,0.150932400932415
2022-01-28,-0.01876321353063754
2022-02-07,0.10217959895373137
2022-02-08,0.18584825234438443
2022-02-09,-0.14811345999465092
2022-02-10,-0.23203026481717648
2022-02-11,-0.08730598669629097
2022-02-14,-0.1722458916615367
2022-02-15,-0.01692134120285428
2022-02-16,0.2275787410142494
2022-02-17,0.19691692971249974
2022-02-18,0.014241117397168827
2022-02-21,0.22559334450922242
2022-02-22,0.11672526277147888
2022-02-23,-0.1885652066332837
2022-02-24,-0.136781113488856
2022-02-25,-0.03451473383887546
2022-02-28,-0.3961109512088642
2022-03-01,-0.09709219858151669
2022-03-02,0.033617300131124746
2022-03-03,0.21157253206728727
2022-03-04,0.07576142131979843
2022-03-07,0.5020868657884109
2022-03-08,-0.046305859670914676
2022-03-09,0.11886446886439547
2022-03-10,-0.22395797803405573
2022-03-11,0.4205445544554537
2022-03-14,-0.32801536919475854
2022-03-15,0.26004012467311277
2022-03-16,0.06464361326750535
2022-03-17,0.03765371372357813
2022-03-18,-0.6787885222838654
2022-03-21,0.022966759268115422
2022-03-22,-0.45664206642065963
2022-03-23,-0.4512951969778818
2022-03-24,0.08049001814880628
2022-03-25,0.14233487691934088
2022-03-28,0.14180819180823934
2022-03-29,0.26960784313723724
2022-03-30,0.3084464555052262
2022-03-31,-0.11238343092607195
2022-04-01,0.13064419024680413
2022-04-06,-0.16292083712471833
2022-04-07,0.04888530754769317
2022-04-08,-0.03205128205121921
2022-04-11,0.12174303683740828
2022-04-12,0.3420830824804371
2022-04-13,0.052519834618459896
2022-04-14,-0.10420743639921304
2022-04-15,0.04985754985753432
2022-04-18,-0.1383928571428242
2022-04-19,-0.6688995215310758
2022-04-20,0.09136936300476306
2022-04-21,-0.008035714285752373
2022-04-22,-0.08932461873640551
2022-04-25,0.06696428571427615
2022-04-26,0.1905296155749715
2022-04-27,-0.19596290793583507
2022-04-28,0.06114130434785443
2022-04-29,0.009552538964333883
2022-05-05,-0.03571428571430694
2022-05-06,0.198403575989832
2022-05-09,0.18096093399193655
2022-05-10,-0.041200828157339824
2022-05-11,0.01834479883258303
2022-05-12,0.0607142857142993
2022-05-13,-0.11811201445356796
2022-05-16,0.03208556149728183
2022-05-17,0.031385281385281426
2022-05-18,0.04785903822452836
2022-05-19,0.0642561276659123
2022-05-20,-0.07098062588704498
2022-05-23,-0.22340355241581622
2022-05-24,-0.0069900491963884705
2022-05-25,-0.1345799054332159
2022-05-26,-0.1373330507429203
2022-05-27,0.13774583899376286
2022-05-30,0.13249446150667624
2022-05-31,0.1917219839283659
2022-06-01,0.19175627240150195
2022-06-02,0.025688863375526654
2022-06-06,0.018197239571303543
2022-06-07,0.07142857142862377
2022-06-08,-0.29897435897442154
2022-06-09,-0.035869041887361966
2022-06-10,-0.01332622601283245
2022-06-13,-0.14277636415041767
2022-06-14,-0.12742857142849312
2022-06-15,0.1744632768361336
2022-06-16,-0.2035062781331879
2022-06-17,0.00741239892185146
2022-06-20,0.11290902553034818
2022-06-21,0.02796261682238154
2022-06-22,-0.1927966101694514
2022-06-23,0.29059829059827846
2022-06-24,0.12538926543327922
2022-06-27,0.058510181287124874
2022-06-28,0.22158577027432114
2022-06-29,0.18581081081081724
2022-06-30,-0.03632673059418212
2022-07-01,-0.13778505305946054
2022-07-04,-0.018557253955534356
2022-07-05,-0.13175063428776948
2022-07-06,-0.09784784784784296
2022-07-07,-0.1779589836914996
2022-07-08,0.03470965046655343
2022-07-11,-0.1631252281854511
2022-07-12,-0.2328503843879267
2022-07-13,0.029100529100489783
2022-07-14,0.010417582417619406
2022-07-15,0.023229403262420813
2022-07-18,-0.025832142127851426
2022-07-19,0.08533834586469619
2022-07-20,0.08085317460318296
2022-07-21,0.05258252427176284
2022-07-22,-0.11625128030043029
2022-07-25,0.18709256844843758
2022-07-26,0.18775510204080098
2022-07-27,-0.12847222222220503
2022-07-28,0.18608414239485951
2022-07-29,0.09060653964552721
2022-08-01,-0.1616688396347948
2022-08-02,-0.15759637188212774
2022-08-03,0.33006535947708965
2022-08-04,0.041025641025701554
2022-08-05,0.09120590911526891
2022-08-08,0.12592223330000238
2022-08-09,0.12900188323918202
2022-08-10,-0.30608875128994145
2022-08-11,-0.3870401337793196
2022-08-12,-0.07618003121439888
2022-08-15,0.4751555772968684
2022-08-16,-0.046601043300421016
2022-08-17,-0.03979585807031396
2022-08-18,0.16616655460681617
2022-08-19,-0.006017772635822765
2022-08-22,-0.826517233070255
2022-08-23,-0.1409392441147426
2022-08-24,0.048647532711487376
2022-08-25,0.005429333495588762
2022-08-26,-0.07872974392048486
2022-08-29,0.3017106089140106
2022-08-30,0.15682900246664438
2022-08-31,0.014530551415754897
2022-09-01,0.13171888013333213
2022-09-02,0.16636029411763642
2022-09-05,-0.09963353183695424
2022-09-06,-0.0730380730381161
2022-09-07,0.023821721311429685
2022-09-08,-0.3008900190718198
2022-09-09,0.01456844420013706
2022-09-13,0.07420980302337417
2022-09-14,-0.004784688995214538
2022-09-15,0.05710227272736111
2022-09-16,0.2955671447196176
2022-09-19,-0.2315916171056615
2022-09-20,0.06868091378039143
2022-09-21,0.01828099660916817
2022-09-22,-0.19238539238542435
2022-09-23,-0.17689649498105658
2022-09-26,0.3349734457982355
2022-09-27,0.033593459680435166
2022-09-28,0.024806722689028324
2022-09-29,0.37362637362633966
2022-09-30,0.2101511613617266
2022-10-10,-0.2721196329444395
2022-10-11,-0.044846656611396064
2022-10-12,0.23337931034487763
2022-10-13,-0.3835978835978544
2022-10-14,-0.19445192566659886
2022-10-17,-0.022954822954792994
2022-10-18,-0.07840746054517184
2022-10-19,-0.505895439377071
2022-10-20,0.18226120857696168
2022-10-21,-0.040780141843945086
2022-10-24,0.26161616161618945
2022-10-25,0.10914161467194983
2022-10-26,0.31598671726754735
2022-10-27,-0.09458962090533601
2022-10-28,0.09793187347924619
2022-10-31,-0.23028122956181002
2022-11-01,-0.10769868039525235
2022-11-02,-0.01921252371923076
2022-11-03,0.06539554195794994
2022-11-04,-0.02986571571843802
2022-11-07,0.00329039094295161
2022-11-08,0.11081216368408886
2022-11-09,-0.13303325831454654
2022-11-10,-0.006196120689583851
2022-11-11,0.633911243369139
2022-11-14,0.19562482243604873
2022-11-15,0.0022559783426183283
2022-11-16,0.4687405617638764
2022-11-17,0.17579659537319178
2022-11-18,-0.6918336515231627
2022-11-21,-0.14923445774884514
2022-11-22,-0.07925445459048347
2022-11-23,-0.5349180092533264
2022-11-24,-0.4115704059121297
2022-11-25,0.10500776554471652
2022-11-28,0.13122121882550158
2022-11-29,0.18040574079307545
2022-11-30,0.1669526412879471
2022-12-01,0.31988378257990635
2022-12-02,-0.16372002230900287
2022-12-05,-0.2611572049003072
2022-12-06,-0.2919318547091331
2022-12-07,0.16509433962260817
2022-12-08,-0.14588576430681474
2022-12-09,0.0980035354060614
2022-12-12,0.17289690657741102
2022-12-13,0.15233398166159437
2022-12-14,-0.24393251389650525
2022-12-15,0.008498376919468073
2022-12-16,0.07128148265483542
2022-12-19,-0.026078710289254375
2022-12-20,-0.07029358353510451
2022-12-21,0.008415639062616526
2022-12-22,-0.014469014469029519
2022-12-23,-0.0427023265062272
2022-12-26,-0.025051789757637097
2022-12-27,0.10345496894405537
2022-12-28,-0.053288804994916145
2022-12-29,0.015210932857961074
2022-12-30,-0.055656460819978326
2023-01-03,-0.016424751718925264
2023-01-04,-0.18857601400637602
2023-01-05,0.09270358826814437
2023-01-06,0.13929411764711028
2023-01-09,0.06097560975611476
2023-01-10,0.017974778844383067
2023-01-11,0.17099289380177488
2023-01-12,0.031007751938063714
2023-01-13,-0.19619858156034006
2023-01-16,0.1328125000000046
2023-01-17,-0.08205897051477384
2023-01-18,-0.036764705882281236
2023-01-19,0.08396946564879038
2023-01-20,0.16966337029271955
2023-01-30,-0.01516544117646021
2023-01-31,0.18427102238357496
2023-02-01,-0.08602150537637569
2023-02-02,-0.1251459362370634
2023-02-03,-0.15108442063425906
2023-02-06,-0.32294507206857315
2023-02-07,-0.11271929824562636
2023-02-08,0.06892748828225922
2023-02-09,0.08465473145774105
2023-02-10,0.11528629856857645
2023-02-13,0.13329801324506252
2023-02-14,-0.000862068965517819
2023-02-15,0.08789047727110605
2023-02-16,0.1383399209487035
2023-02-17,-0.0626456876457901
2023-02-20,0.2953470077219208
2023-02-21,0.020853502826423138
2023-02-22,-0.11137921926821762
2023-02-23,-0.35236857217588646
2023-02-24,0.03654261034238717
2023-02-27,-0.43502583983873655
2023-02-28,0.11611967725015995
2023-03-01,0.06558275909118716
2023-03-02,0.23559104076414658
2023-03-03,0.0455051129267209
2023-03-06,0.1972903429081403
2023-03-07,-0.19870235198698702
2023-03-08,-0.04099999999998926
2023-03-09,-0.12195121951211738
2023-03-10,-0.16451697815200625
2023-03-13,0.07208079690102703
2023-03-14,0.014863968148701168
2023-03-15,0.03560784313722125
2023-03-16,0.11460287679791928
2023-03-17,0.1579937304073071
2023-03-20,-0.06631299734759734
2023-03-21,0.10750988142282014
2023-03-22,-0.053221288515379966
2023-03-23,-0.1620401337792139
2023-03-24,-0.015710503089017128
2023-03-27,-0.0007251047373290423
2023-03-28,-0.11968826907296078
2023-03-29,0.03361344537808938
2023-03-30,0.27960555804567794
2023-03-31,-0.05637881110546452
2023-04-03,0.06291722296395336
2023-04-04,0.08490566037743376
2023-04-06,0.0932203389831953
2023-04-07,-0.05897866219129273
2023-04-10,-0.044956140350829336
2023-04-11,-0.14246031746034027
2023-04-12,-0.008130081300898382
2023-04-13,-0.16699083078644236
2023-04-14,-0.35521712286478063
2023-04-17,0.0624999999998987
2023-04-18,0.1702842377262004
2023-04-19,-0.01337529504326908
2023-04-20,0.08475950279227537
2023-04-21,0.3041554444016613
2023-04-24,-0.051020408163217325
2023-04-25,-0.1996749187297433
2023-04-26,0.1800419617099629
2023-04-27,-0.03204164256790219
2023-04-28,-0.2480130902290582
2023-05-04,0.19575725026857427
2023-05-05,0.4171301446051536
2023-05-08,-0.1762357004100982
2023-05-09,-0.03300142247510101
2023-05-10,0.37327188940091116
2023-05-11,-0.11273684210523274
2023-05-12,-0.5004009623095633
2023-05-15,0.04682532863643754
2023-05-16,0.15782763895967308
2023-05-17,-0.24129555920890702
2023-05-18,-0.04051716283655382
2023-05-19,0.2564355221280151
2023-05-22,0.0489925898990114
2023-05-23,-0.03138431455175815
2023-05-24,0.006043249329697242
2023-05-25,-0.053982837163516914
2023-05-26,-0.021551801197772204
2023-05-29,-0.0619897712331714
2023-05-30,-0.13588133384591394
2023-05-31,0.08714900075896995
2023-06-01,0.10315040650405888
2023-06-02,0.3572916666665672
2023-06-05,-0.08916274012319717
2023-06-06,0.05743145743139028
2023-06-07,-0.0606655642827546
2023-06-08,-0.022016866131339345
2023-06-09,-0.5491615853657593
2023-06-12,0.08028008467676734
2023-06-13,0.0851972967081321
2023-06-14,0.11162601626016004
2023-06-15,0.09112255718824412
2023-06-16,0.18600911283836058
2023-06-19,0.056924746183000696
2023-06-20,-0.11431257004449559
2023-06-21,-0.18708333333331661
2023-06-26,-0.27067563779084514
2023-06-27,-0.23295197952733754
2023-06-28,-0.2452056057532429
2023-06-29,0.12991272150228386
2023-06-30,0.18990384615378142
2023-07-03,0.20477918935268347
2023-07-04,0.5248071831473102
2023-07-05,0.18740390951023797
2023-07-06,-0.183344437041966
2023-07-07,-0.17254273504268702
2023-07-10,0.03884711779451055
2023-07-11,-0.6248832866480691
2023-07-12,-0.01636942675161204
2023-07-13,0.058304564633624836
2023-07-14,0.3784722222221692
2023-07-17,-0.06670676691729915
2023-07-18,0.3213035870516531
2023-07-19,0.010000000000022645
2023-07-20,0.030303030303104207
2023-07-21,-0.519137596899158
2023-07-24,-0.17441584158414247
2023-07-25,0.2901343214450017
2023-07-26,0.18018018018010215
2023-07-27,0.07633587786250082
2023-07-28,0.3021606465446073
2023-07-31,0.21070342328345967
2023-08-01,-0.461161856046694
2023-08-02,-0.3566507684154165
2023-08-03,-0.1566930207197042
2023-08-04,0.06052468498243342
2023-08-07,-0.17093164949591105
2023-08-08,0.08797181079795127
2023-08-09,0.18677986658583856
2023-08-10,0.019132653061289882
2023-08-11,-0.4934571549176665
2023-08-14,0.26864406779650624
2023-08-15,0.5745540691191889
2023-08-16,0.03776764472630542
2023-08-17,0.20801348062159214
2023-08-18,0.35582608695649476
2023-08-21,-0.08650793650781716
2023-08-22,-0.7084790449185303
2023-08-23,-0.03845530825310875
2023-08-24,-0.2853952826680741
2023-08-25,0.2504845754044298
2023-08-28,0.09936179875738871
2023-08-29,0.3924091386952434
2023-08-30,0.1323536938182698
2023-08-31,0.18184953508556964
2023-09-01,-0.2170337982023261
2023-09-04,-0.28723197170221476
2023-09-05,-0.3389037433155225
2023-09-06,-0.11530864197534392
2023-09-07,0.03467883467888366
2023-09-08,-0.08964354828642798
2023-09-11,0.2066565904653492
2023-09-12,0.16527113237638602
2023-09-13,-0.147356321839071
2023-09-14,-0.0713861302096864
2023-09-15,0.03520575809726414
2023-09-18,-0.12833111259154165
2023-09-19,-0.07961282516633462
2023-09-20,0.12804259634886872
2023-09-21,-0.0649301082963596
2023-09-22,-0.00251686298196694
2023-09-25,0.13266680480721643
2023-09-26,0.1272863568215954
2023-09-27,-0.05497198879552444
2023-09-28,0.04410844629823907
2023-10-09,-0.05695989214687612
2023-10-10,-0.24286417322828785
2023-10-11,0.045893719806670494
2023-10-12,0.20595238095237342
2023-10-13,-0.00010277492295860703
2023-10-16,0.13085792869985396
2023-10-17,0.18383620689656754
2023-10-18,-0.20507084265463554
2023-10-19,-0.1509259259258915
2023-10-20,0.2423296656792813
2023-10-23,-0.12426242405701557
2023-10-24,0.004465075154705036
2023-10-25,0.36725165700942125
2023-10-26,-0.08057813911471087
2023-10-27,-0.36478328173377594
2023-10-30,0.07196582444868588
2023-10-31,-0.056293706293689426
2023-11-01,-0.5279503105589508
2023-11-02,0.03983739837388595
2023-11-03,0.04201451905625256
2023-11-06,-0.02514518002328222
2023-11-07,0.02424242424240885
2023-11-08,0.4294156666464708
2023-11-09,-0.007988980716231109
2023-11-10,0.17241379310344387
2023-11-13,0.03504761904765162
2023-11-14,0.07874015748032082
2023-11-15,-0.2550492523562699
2023-11-16,0.10481437754173087
2023-11-17,-0.13728769943384025
2023-11-20,0.07923809523809702
2023-11-21,-0.13671117197310428
2023-11-22,0.026370368889563497
2023-11-23,-0.07168978165628538
2023-11-24,0.108815121828742
2023-11-27,-0.14220578555065444
2023-11-28,0.0005151270425986856
2023-11-29,0.07131290626117513
2023-11-30,0.02529173525821944
2023-12-01,-0.1079371587031626
2023-12-04,0.10053911888401404
2023-12-05,0.11677792134853834
2023-12-06,-0.057391304347804324
2023-12-07,0.11623931623933297
2023-12-08,0.06617647058817966
2023-12-11,-0.16306047966636042
2023-12-12,-0.11669908307868032
2023-12-13,0.06608695652169802
2023-12-14,-0.09096045197746963
2023-12-15,0.06581779053087725
2023-12-18,0.15494359654947323
2023-12-19,0.08636255642674665
2023-12-20,-0.03312921004280447
2023-12-21,-0.035280682774310984
2023-12-22,-0.08725523874957684
2023-12-25,0.03311688311688182
2023-12-26,0.023994625203837452
2023-12-27,0.05106741075377851
2023-12-28,0.00495599418945907
2023-12-29,-0.027582159624439932
2024-01-02,-0.07236024844724882
2024-01-03,0.002575423105311468
2024-01-04,-0.1317444554783085
2024-01-05,-0.13384306456591288
2024-01-08,0.10006082725061444
2024-01-09,-0.10276290426215105
2024-01-10,-0.21586089906703465
2024-01-11,0.2968102073365205
2024-01-12,0.14435126277227112
2024-01-15,-0.00692357234864837
2024-01-16,0.054593682179912756
2024-01-17,0.19680169387642432
2024-01-18,-0.29359795134440353
2024-01-19,-0.08409485251585871
2024-01-22,-0.08425747348116987
2024-01-23,0.0928054995851865
2024-01-24,-0.08488344713917387
2024-01-25,0.10993077106708926
2024-01-26,0.03674507310875027
2024-01-29,-0.0011114198388641264
2024-01-30,-0.0683913172761842
2024-01-31,0.2894585253457107
2024-02-01,-0.09736617485680128
2024-02-02,0.0015375744762209445
2024-02-05,0.10532687651329198
2024-02-06,0.18050682261193343
2024-02-07,-0.33024340309379635
2024-02-08,0.19781657191741692
2024-02-19,0.11021233569263605
2024-02-20,-0.08857142857136392
2024-02-21,-0.24471409525784693
2024-02-22,0.11401391599757613
2024-02-23,-0.1140580403351227
2024-02-26,-0.0812776100736574
2024-02-27,0.12579225891650575
2024-02-28,0.07082217054632227
2024-02-29,-0.09114028401673505
2024-03-01,0.08877563043723076
2024-03-04,-0.05944235252571985
2024-03-05,-0.2109221290464358
2024-03-06,0.0362454174448173
2024-03-07,0.3687674783440142
2024-03-08,-0.18589977284835224
2024-03-11,0.17293442531620692
2024-03-12,0.13468013468017148
2024-03-13,0.0598853380257687
2024-03-14,-0.48841954902570484
2024-03-15,0.029470493420257926
2024-03-18,-0.14605270488611632
2024-03-19,-0.08213116431349426
2024-03-20,-0.24217853790796534
2024-03-21,0.3031917925334697
2024-03-22,0.21015855110613735
2024-03-25,-0.01589902823294831
2024-03-26,0.010617611654683015
2024-03-27,0.22093023255811584
2024-03-28,-0.2538534011682454
2024-03-29,-0.14799187373028216
2024-04-01,0.09309521407184931
2024-04-02,0.027130097347186202
2024-04-03,-0.1306201550387839
2024-04-08,0.23401461926052022
2024-04-09,-0.16609242753354625
2024-04-10,-0.07848347949327145
2024-04-11,0.09168619283174201
2024-04-12,0.05995525727072539
2024-04-15,-0.10415935415931314
2024-04-16,0.12574970816732312
2024-04-17,-0.09154929577461757
2024-04-18,0.00828985507249791
2024-04-19,-0.00799447295700445
2024-04-22,-0.07533279548209545
2024-04-23,0.03401360544215544
2024-04-24,0.2010191228672206
2024-04-25,-0.18574436090231955
2024-04-26,0.398039215686266
2024-04-29,0.23871605826291986
2024-04-30,0.05729166666667772
2024-05-06,-0.012335295766694773
2024-05-07,0.0793111811787991
2024-05-08,-0.5946009389671137
2024-05-09,-0.28162650602412576
2024-05-10,-0.08450255102043583
2024-05-13,-0.16686761514355203
2024-05-14,0.026185117707962717
2024-05-15,0.2343445287107728
2024-05-16,0.1250000000000206
2024-05-17,0.02721088435375811
2024-05-20,0.09038330090971064
2024-05-21,-0.03043891023135601
2024-05-22,-0.05404778346987418
2024-05-23,-0.10396467249914439
2024-05-24,-0.05351541806859724
2024-05-27,-0.05845929500222217
2024-05-28,0.012585962145870534
2024-05-29,0.030970860392908216
2024-05-30,0.13457691739710526
2024-05-31,0.11292135866268717
2024-06-03,0.10336126956478188
2024-06-04,-0.06197106197106145
2024-06-05,-0.009708737864077617
2024-06-06,-0.05022008803513474
2024-06-07,-0.18940594059407917
2024-06-11,-0.14083145343221093
2024-06-12,0.18745668745667918
2024-06-13,0.02120299073760847
2024-06-14,0.030971479500747218
2024-06-17,0.20865168539331203
2024-06-18,0.13469827586208985
2024-06-19,-0.03457653457647282
2024-06-20,-0.06756901922856358
2024-06-21,0.02824032403237673
2024-06-24,0.007062600320901405
2024-06-25,-0.08388157894736491
2024-06-26,-0.2382154882155848
2024-06-27,0.23189894217908744
2024-06-28,-0.07698713796591856
2024-07-01,0.29292649098484846
2024-07-02,0.22868791697546617
2024-07-03,0.23525171878467965
2024-07-04,-0.24249084249067654
2024-07-05,0.06119270137947519
2024-07-08,-0.5821291487920927
2024-07-09,-0.3220417394879514
2024-07-10,-0.1462203797532252
2024-07-11,0.04831804281341266
2024-07-12,-0.07053849577209291
2024-07-15,0.046625626994920844
2024-07-16,0.2273807502971834
2024-07-17,0.07912875654797788
2024-07-18,0.0609018153425072
2024-07-19,0.1079534617584729
2024-07-22,0.33955505279040205
2024-07-23,-0.12204575534141893
2024-07-24,-0.07007472207028692
2024-07-25,0.06555491661881023
2024-07-26,-0.11000497760078726
2024-07-29,-0.4049145299145068
2024-07-30,0.04065040650408657
2024-07-31,0.14723412181042334
2024-08-01,-0.0374010374010116
2024-08-02,0.20915784629545814
2024-08-05,0.3441734417343936
2024-08-06,0.21739130434783752
2024-08-07,-0.08195970695975395
2024-08-08,-0.06478991094378327
2024-08-09,-0.23096559378467305
2024-08-12,-0.07764742204385423
2024-08-13,-0.2234519104084769
2024-08-14,0.09770615563302018
2024-08-15,0.05485632089963966
2024-08-16,0.08100490196076805
2024-08-19,-0.12675456266256185
2024-08-20,-0.15121048107043977
2024-08-21,0.03642673968416241
2024-08-22,-0.20691701971360782
2024-08-23,0.07181417050425984
2024-08-26,0.11409633481445985
2024-08-27,0.25543059633356835
2024-08-28,-0.25740371202374823
2024-08-29,0.17778910867087067
2024-08-30,-0.07609586784571869
2024-09-02,0.059817845013922656
2024-09-03,-0.10933269356001153
2024-09-04,0.08342013066948403
2024-09-05,-0.008253756754696136
2024-09-06,-0.05184925503950689
2024-09-09,-0.24116401343651556
2024-09-10,0.0041309308363502014
2024-09-11,-0.01574708498625315
2024-09-12,0.00645893340314703
2024-09-13,0.06745341614911798
2024-09-18,0.24189918036263722
2024-09-19,0.05899030546925843
2024-09-20,0.07433674809568563
2024-09-23,-0.04792303542531029
2024-09-24,0.3034142437983161
2024-09-25,0.05131993695827777
2024-09-26,-0.019559387980466754
2024-09-27,0.5753086419752695
2024-09-30,0.10630758327429908
2024-10-08,-0.22830652738627083
2024-10-09,-0.13735835424753073
2024-10-10,-0.04871519457988007
2024-10-11,-0.890456431535255
2024-10-14,-0.19057447540419942
2024-10-15,-0.4062931009185034
2024-10-16,-0.1382356359691203
2024-10-17,0.08154392191663906
2024-10-18,0.3516809213311733
2024-10-21,0.06868533513269337
2024-10-22,0.3691477466089393
2024-10-23,0.16024448578259035
2024-10-24,-0.1474091721262994
2024-10-25,-0.2502792161640518
2024-10-28,0.027518876828742038
2024-10-29,-0.19550396167305784
2024-10-30,-0.14959758551305333
2024-10-31,-0.03162935738946847
2024-11-01,0.37254096490023947
2024-11-04,-0.07138441051989924
2024-11-05,0.17781927585840707
2024-11-06,0.17788018433179514
2024-11-07,0.1519890771426609
2024-11-08,-0.15407447382621975
2024-11-11,0.13466223698788268
2024-11-12,0.012037247331453706
2024-11-13,-0.10132340777503906
2024-11-14,-0.05830216711917342
2024-11-15,-0.08420628525384904
2024-11-18,-0.006418219461745797
2024-11-19,-0.026467847157547453
2024-11-20,0.05829461366376231
2024-11-21,0.13933952620119358
2024-11-22,0.060711680311329966
2024-11-25,-0.009782601617280631
2024-11-26,-0.056026957834436925
2024-11-27,0.03292304046666367
2024-11-28,-0.19163013624359151
2024-11-29,-0.00012735610715891403
2024-12-02,0.04239129726945061
2024-12-03,0.05041877291589175
2024-12-04,-0.08935661194677616
2024-12-05,0.03309899553365423
2024-12-06,-0.07011728903631698
2024-12-09,-0.2770833333333028
2024-12-10,0.1408126756963875
2024-12-11,0.056344086021471215
2024-12-12,0.13143110585454884
2024-12-13,0.11854435285001055
2024-12-16,0.2680357142857305
2024-12-17,-0.34896091044035377
2024-12-18,0.2938562091503643
2024-12-19,-0.09210526315790327
2024-12-20,-0.02921686746990066
2024-12-23,-0.020627177700352918
2024-12-24,0.315799842395647
2024-12-25,-0.44243544412302943
2024-12-26,0.028436018957365614
2024-12-27,-0.02039170506911575
2024-12-30,-0.053658536585361315
2024-12-31,-0.25806999660219276
