date,FCT_Demark_Atr_Dfive
2013-09-06,
2013-09-09,
2013-09-10,
2013-09-11,
2013-09-12,
2013-09-13,
2013-09-16,
2013-09-17,
2013-09-18,
2013-09-23,0.6692607003891174
2013-09-24,0.8535980148883457
2013-09-25,0.97457627118644
2013-09-26,0.12883435582822558
2013-09-27,0.1253731343283627
2013-09-30,0.0032679738562015614
2013-10-08,0.0032467532467457564
2013-10-09,0.0
2013-10-10,0.0
2013-10-11,0.0
2013-10-14,0.0
2013-10-15,0.3742331288343304
2013-10-16,0.6839378238341316
2013-10-17,0.6439024390243729
2013-10-18,0.9178082191781203
2013-10-21,0.5877192982456172
2013-10-22,0.3273542600896784
2013-10-23,0.0100000000000123
2013-10-24,0.253012048192757
2013-10-25,0.31365313653134963
2013-10-28,0.42929292929291224
2013-10-29,0.7106598984771296
2013-10-30,0.818713450292423
2013-10-31,0.6370967741935936
2013-11-01,0.48245614035088413
2013-11-04,0.7560975609756393
2013-11-05,0.6451612903226147
2013-11-06,0.7950310559006148
2013-11-07,0.9439528023598668
2013-11-08,0.9936628643852947
2013-11-11,0.9945533769063154
2013-11-12,1.0
2013-11-13,1.0
2013-11-14,0.9457013574660615
2013-11-15,0.5735439289239882
2013-11-18,0.38596491228070334
2013-11-19,0.2920353982300828
2013-11-20,0.07917888563049164
2013-11-21,0.0737704918032725
2013-11-22,0.29655172413792913
2013-11-25,0.51366120218579
2013-11-26,0.25621414913958557
2013-11-27,0.36435643564356784
2013-11-28,0.595425913952541
2013-11-29,0.4399351890208204
2013-12-02,0.3415205228637062
2013-12-03,0.676237079078045
2013-12-04,0.6741029164432518
2013-12-05,0.4406095259294396
2013-12-06,0.5001772193378947
2013-12-09,0.454860957259066
2013-12-10,0.1747462648578629
2013-12-11,0.0
2013-12-12,0.0
2013-12-13,0.06796116504849305
2013-12-16,0.10245901639329986
2013-12-17,0.09842519685025589
2013-12-18,0.27199999999978464
2013-12-19,0.19428571428552258
2013-12-20,0.07975460122688298
2013-12-23,0.24623115577893542
2013-12-24,0.6136363636363452
2013-12-25,0.46153846153844735
2013-12-26,0.6268656716418732
2013-12-27,0.6649746192894187
2013-12-30,0.3729508196721676
2013-12-31,0.026178010471226885
2014-01-02,0.5098814229250362
2014-01-03,0.5454545454546266
2014-01-06,0.5402298850575472
2014-01-07,0.7421052631580167
2014-01-08,0.8812499999999934
2014-01-09,0.3148148148147065
2014-01-10,0.3728813559321357
2014-01-13,0.20408163265304624
2014-01-14,0.11049723756904985
2014-01-15,0.1505376344085642
2014-01-16,0.10606060606057935
2014-01-17,0.02431610942247075
2014-01-20,0.11671924290219335
2014-01-21,0.49157303370783517
2014-01-22,0.41854636591478916
2014-01-23,0.5709779179810741
2014-01-24,0.812500000000041
2014-01-27,0.8097014925373547
2014-01-28,0.4388888888888992
2014-01-29,0.6621621621621295
2014-01-30,0.5185185185185641
2014-02-07,0.5214723926381349
2014-02-10,0.5873015873016705
2014-02-11,0.8055555555556739
2014-02-12,0.5672514619883855
2014-02-13,0.6062499999999846
2014-02-14,0.3862068965516991
2014-02-17,0.034722222222284785
2014-02-18,0.007142857142829608
2014-02-19,0.17699115044249056
2014-02-20,0.24752475247539849
2014-02-21,0.18466432174329456
2014-02-24,0.21350080203017666
2014-02-25,0.5725342792430695
2014-02-26,0.5785039936872668
2014-02-27,0.754939022695945
2014-02-28,0.9169722779840112
2014-03-03,1.0
2014-03-04,1.0
2014-03-05,1.0
2014-03-06,0.8097345132743295
2014-03-07,0.7777777777777737
2014-03-10,0.4607046070460805
2014-03-11,0.301498127340825
2014-03-12,0.0037523452157892513
2014-03-13,0.004319654427679615
2014-03-14,0.0
2014-03-17,0.02763819095476221
2014-03-18,0.2923588039867008
2014-03-19,0.48087431693985166
2014-03-20,0.43564356435643453
2014-03-21,0.4835164835165318
2014-03-24,0.30677290836654764
2014-03-25,0.0
2014-03-26,0.0
2014-03-27,0.0
2014-03-28,0.0
2014-03-31,0.0
2014-04-01,0.0
2014-04-02,0.3806818181818831
2014-04-03,0.6102941176472405
2014-04-04,0.8226950354611696
2014-04-08,0.9653179190752081
2014-04-09,0.8477157360405763
2014-04-10,0.6097560975609629
2014-04-11,0.6235294117646681
2014-04-14,0.6847290640393663
2014-04-15,0.48618784530385006
2014-04-16,0.5961538461538762
2014-04-17,0.8612440191387537
2014-04-18,0.8272251308900082
2014-04-21,0.4766839378237565
2014-04-22,0.7971830985914972
2014-04-23,0.8085106382978162
2014-04-24,0.49999999999997513
2014-04-25,0.446502057613146
2014-04-28,0.4931818181817979
2014-04-29,0.06483790523689179
2014-04-30,0.0
2014-05-05,0.01127819548876816
2014-05-06,0.27112676056345425
2014-05-07,0.2841328413285015
2014-05-08,0.49044585987273276
2014-05-09,0.7761904761905307
2014-05-12,0.8417508417508683
2014-05-13,0.8178294573643651
2014-05-14,0.8733333333333353
2014-05-15,1.0
2014-05-16,0.7691404097499603
2014-05-19,0.6367269542613341
2014-05-20,0.4378435478976121
2014-05-21,0.30737166004950217
2014-05-22,0.0
2014-05-23,0.08857517775651329
2014-05-26,0.08161155909832361
2014-05-27,0.3563926541682154
2014-05-28,0.6757803116688305
2014-05-29,0.8648648648648642
2014-05-30,0.9002217294900139
2014-06-03,1.0
2014-06-04,1.0
2014-06-05,1.0
2014-06-06,0.9210526315789365
2014-06-09,0.6356589147286761
2014-06-10,0.503521126760597
2014-06-11,0.3223684210526619
2014-06-12,0.002304147465468243
2014-06-13,0.0024875621890876718
2014-06-16,0.16524216524222532
2014-06-17,0.24093264248704338
2014-06-18,0.28971962616822944
2014-06-19,0.9918699186992558
2014-06-20,1.0
2014-06-23,0.8737300435413539
2014-06-24,0.7057356608478698
2014-06-25,0.6706161137440712
2014-06-26,0.6362559241705952
2014-06-27,0.0
2014-06-30,0.0
2014-07-01,0.23408845738945364
2014-07-02,0.31275720164610327
2014-07-03,0.37475538160471294
2014-07-04,0.9917081260364823
2014-07-07,1.0
2014-07-08,0.6677740863787202
2014-07-09,0.5311973018549618
2014-07-10,0.46641074856045256
2014-07-11,0.05691056910569504
2014-07-14,0.04132231404959583
2014-07-15,0.24571428571426487
2014-07-16,0.44642857142854764
2014-07-17,0.426865671641756
2014-07-18,0.9766536964980526
2014-07-21,0.9296874999999944
2014-07-22,0.6963562753036888
2014-07-23,0.44444444444446424
2014-07-24,0.3636363636363769
2014-07-25,0.0
2014-07-28,0.07142857142862079
2014-07-29,0.14814814814809685
2014-07-30,0.22641509433958024
2014-07-31,0.8119658119658361
2014-08-01,0.655172413793198
2014-08-04,0.5194805194805237
2014-08-05,0.4382716049383378
2014-08-06,0.714754098360672
2014-08-07,0.4427710843373585
2014-08-08,0.42485549132948097
2014-08-11,0.41761363636364557
2014-08-12,0.5586854460093917
2014-08-13,0.3023255813953511
2014-08-14,0.5662818065568301
2014-08-15,0.7556686128221384
2014-08-18,0.9000878291604554
2014-08-19,0.8309115647509846
2014-08-20,0.7350842471218024
2014-08-21,0.4111764164482128
2014-08-22,0.4215083037499599
2014-08-25,0.12434047380560725
2014-08-26,0.09433208960117918
2014-08-27,0.09941520467832397
2014-08-28,0.23026315789469215
2014-08-29,0.15827338129496954
2014-09-01,0.4846153846153796
2014-09-02,0.7435897435897882
2014-09-03,1.0
2014-09-04,0.6558441558442311
2014-09-05,0.5418994413408365
2014-09-09,0.34355828220865164
2014-09-10,0.1641025641025943
2014-09-11,0.0
2014-09-12,0.0
2014-09-15,0.12643678160926394
2014-09-16,0.14012738853509799
2014-09-17,0.3969465648854294
2014-09-18,0.9635761589402867
2014-09-19,0.9832635983263369
2014-09-22,0.9860627177700146
2014-09-23,1.0
2014-09-24,0.9851551956815042
2014-09-25,0.7881219903692035
2014-09-26,0.5581395348837528
2014-09-29,0.3579335793358513
2014-09-30,0.0
2014-10-08,0.0
2014-10-09,0.0
2014-10-10,0.0
2014-10-13,0.10455764075062152
2014-10-14,0.6951983298538097
2014-10-15,0.8292682926828749
2014-10-16,0.9726027397260003
2014-10-17,1.0
2014-10-20,1.0
2014-10-21,0.7413333333333402
2014-10-22,0.6711864406779839
2014-10-23,0.5107142857143026
2014-10-24,0.3828828828828291
2014-10-27,0.19081272084798545
2014-10-28,0.1782178217821238
2014-10-29,0.07002801120443584
2014-10-30,0.25699745547071834
2014-10-31,0.15899581589959344
2014-11-03,0.37119675456395024
2014-11-04,0.6101010101010407
2014-11-05,0.8005316396869391
2014-11-06,0.631060986102119
2014-11-07,0.8091406143606326
2014-11-10,0.8071270407266375
2014-11-11,0.8139194142993816
2014-11-12,0.8079931541378542
2014-11-13,1.0
2014-11-14,1.0
2014-11-17,1.0
2014-11-18,0.9323076923076624
2014-11-19,0.5070422535211343
2014-11-20,0.06181818181824768
2014-11-21,0.3886255924170873
2014-11-24,0.3305084745762889
2014-11-25,0.2805755395683587
2014-11-26,0.4843423799582448
2014-11-27,0.5098901098900797
2014-11-28,0.17592592592590447
2014-12-01,0.3521739130434709
2014-12-02,0.3732718894009178
2014-12-03,0.43096234309624115
2014-12-04,0.6904069767441964
2014-12-05,0.8850574712643674
2014-12-08,0.8769230769230746
2014-12-09,1.0
2014-12-10,0.9372340425531974
2014-12-11,0.8170894526034809
2014-12-12,0.6469780219780189
2014-12-15,0.4629430719656304
2014-12-16,0.0
2014-12-17,0.02787068004459645
2014-12-18,0.026511134676567502
2014-12-19,0.029515938606851713
2014-12-22,0.17048710601720454
2014-12-23,0.40893470790382447
2014-12-24,0.2075055187638141
2014-12-25,0.27728613569323757
2014-12-26,0.28834355828223035
2014-12-29,0.0
2014-12-30,0.10153846153843166
2014-12-31,0.5291479820627316
2015-01-05,0.6746575342465341
2015-01-06,0.6042944785275944
2015-01-07,0.835164835164851
2015-01-08,0.5735294117647054
2015-01-09,0.313390313390325
2015-01-12,0.07542579075425213
2015-01-13,0.21176470588234175
2015-01-14,0.1418269230769146
2015-01-15,0.44372294372292365
2015-01-16,0.5763157894736368
2015-01-19,0.9312499999999748
2015-01-20,0.9323076923076655
2015-01-21,0.9528301886792843
2015-01-22,0.5451388888889
2015-01-23,0.4454828660436224
2015-01-26,0.22299651567942932
2015-01-27,0.0
2015-01-28,0.08013937282226816
2015-01-29,0.30841121495326157
2015-01-30,0.2986425339366599
2015-02-02,0.5378151260504526
2015-02-03,0.509960159362562
2015-02-04,0.3684210526315939
2015-02-05,0.32542753286795034
2015-02-06,0.3993847718384287
2015-02-09,0.07464750510269856
2015-02-10,0.08031143434630635
2015-02-11,0.42417405526910135
2015-02-12,0.3904443698322576
2015-02-13,0.499326398219605
2015-02-16,0.8662019593494715
2015-02-17,1.0
2015-02-25,0.6708463949843271
2015-02-26,0.6677215189873283
2015-02-27,0.4604810996564273
2015-03-02,0.6065162907268712
2015-03-03,0.5000000000000407
2015-03-04,0.7246376811594806
2015-03-05,0.742372881355997
2015-03-06,0.9448275862068992
2015-03-09,0.8914728682170504
2015-03-10,0.9885057471264337
2015-03-11,0.9923371647509556
2015-03-12,0.9275092936803195
2015-03-13,0.8410958904109791
2015-03-16,0.6227180527383374
2015-03-17,0.497422680412356
2015-03-18,0.0
2015-03-19,0.0
2015-03-20,0.0
2015-03-23,0.0
2015-03-24,0.0
2015-03-25,0.0
2015-03-26,0.2963917525772932
2015-03-27,0.6197654941373243
2015-03-30,0.7588424437299014
2015-03-31,0.7847682119205273
2015-04-01,1.0
2015-04-02,0.7659574468085114
2015-04-03,0.6088888888889256
2015-04-07,0.2592592592592805
2015-04-08,0.42148760330579627
2015-04-09,0.22222222222221957
2015-04-10,0.3204419889503057
2015-04-13,0.40588235294116964
2015-04-14,0.6343283582089259
2015-04-15,0.26724137931029934
2015-04-16,0.3974358974358576
2015-04-17,0.4268292682926044
2015-04-20,0.2758620689654516
2015-04-21,0.08888888888888702
2015-04-22,0.08000000000000199
2015-04-23,0.30769230769229594
2015-04-24,0.27678571428573406
2015-04-27,0.48412698412700694
2015-04-28,0.4206896551723912
2015-04-29,0.5304347826086376
2015-04-30,0.2869565217391202
2015-05-04,0.25423728813553326
2015-05-05,0.0
2015-05-06,0.4253393665158429
2015-05-07,0.5560000000000067
2015-05-08,0.6770428015564067
2015-05-11,0.8365180467091324
2015-05-12,1.0
2015-05-13,0.8536585365853563
2015-05-14,0.8333333333333008
2015-05-15,0.7820512820512535
2015-05-18,0.21794871794871037
2015-05-19,0.03843352004216971
2015-05-20,0.1329794010526808
2015-05-21,0.19139006401053563
2015-05-22,0.18496032510526134
2015-05-25,0.7134392376775395
2015-05-26,0.8344634438529803
2015-05-27,0.8108724128896607
2015-05-28,0.875741021331253
2015-05-29,1.0
2015-06-01,1.0
2015-06-02,0.7377892030848348
2015-06-03,0.7692307692307755
2015-06-04,0.57377049180329
2015-06-05,0.5427135678392132
2015-06-08,0.17801047120420185
2015-06-09,0.20058997050148883
2015-06-10,0.0387323943662136
2015-06-11,0.04182509505705294
2015-06-12,0.09999999999999909
2015-06-15,0.1866666666666531
2015-06-16,0.6480446927374108
2015-06-17,0.49572649572648253
2015-06-18,0.7203791469193819
2015-06-19,0.6631016042780323
2015-06-23,0.6391752577319931
2015-06-24,0.1690140845070402
2015-06-25,0.35483870967743
2015-06-26,0.15873015873016483
2015-06-29,0.27230046948357295
2015-06-30,0.3177570093457729
2015-07-01,0.6879999999999807
2015-07-02,0.3943661971830682
2015-07-03,0.7614213197969377
2015-07-06,0.7526315789473533
2015-07-07,0.7417582417582366
2015-07-08,0.9016736401673612
2015-07-09,1.0
2015-07-10,0.914018691588793
2015-07-13,0.837209302325582
2015-07-14,0.8409090909090904
2015-07-15,0.31156716417910435
2015-07-16,0.026737967914438138
2015-07-17,0.028037383177569646
2015-07-20,0.027522935779816283
2015-07-21,0.0
2015-07-22,0.0
2015-07-23,0.01775147928994374
2015-07-24,0.019607843137256963
2015-07-27,0.09523809523815417
2015-07-28,0.22413793103456148
2015-07-29,0.3611111111110966
2015-07-30,0.5208333333332639
2015-07-31,0.786516853932532
2015-08-03,0.7241379310343651
2015-08-04,0.7473684210525068
2015-08-05,0.9404761904761195
2015-08-06,0.9404761904761154
2015-08-07,0.30630630630627753
2015-08-10,0.4049586776859512
2015-08-11,0.5555555555555698
2015-08-12,0.6635514018691538
2015-08-13,0.5381355932203437
2015-08-14,0.7298850574712789
2015-08-17,0.640000000000013
2015-08-18,0.30321612992417957
2015-08-19,0.0
2015-08-20,0.0
2015-08-21,0.0
2015-08-24,0.0
2015-08-25,0.0
2015-08-26,0.0
2015-08-27,0.6095883707237449
2015-08-28,0.7422847997848745
2015-08-31,0.8484848484847874
2015-09-01,0.9230769230769128
2015-09-02,1.0
2015-09-07,0.6396396396397122
2015-09-08,0.6261682242991161
2015-09-09,0.3486238532110993
2015-09-10,0.5644171779141448
2015-09-11,0.3772455089820248
2015-09-14,0.4632352941176079
2015-09-15,0.4122137404579722
2015-09-16,0.5142857142856421
2015-09-17,0.0
2015-09-18,0.2028985507246489
2015-09-21,0.21538461538463946
2015-09-22,0.22950819672142816
2015-09-23,0.18918918918930802
2015-09-24,0.3947368421054155
2015-09-25,0.023255813953514615
2015-09-28,0.02500000000002843
2015-09-29,0.016666666666586224
2015-09-30,0.1960784313723669
2015-10-08,0.12676056338021463
2015-10-09,0.7455621301775276
2015-10-12,0.804761904761913
2015-10-13,0.9204545454545574
2015-10-14,0.9371257485030039
2015-10-15,1.0
2015-10-16,0.765517241379307
2015-10-19,0.6509090909090914
2015-10-20,0.5428571428571413
2015-10-21,0.2000000000000171
2015-10-22,0.05487804878047689
2015-10-23,0.08910891089106823
2015-10-26,0.4181818181817834
2015-10-27,0.28682170542635116
2015-10-28,0.58260869565216
2015-10-29,0.7317073170731623
2015-10-30,0.6474820143885243
2015-11-02,0.4529914529914979
2015-11-03,0.39849624060152916
2015-11-04,0.23809523809526678
2015-11-05,0.12087912087916583
2015-11-06,0.22368421052637488
2015-11-09,0.4430379746835341
2015-11-10,1.0
2015-11-11,0.6041666666666529
2015-11-12,0.5957446808510392
2015-11-13,0.6122448979591678
2015-11-16,0.42424242424241493
2015-11-17,0.16666666666666646
2015-11-18,0.32857142857138
2015-11-19,0.16176588863017632
2015-11-20,0.05671030547480612
2015-11-23,0.47884029921267574
2015-11-24,0.6703539496163146
2015-11-25,0.5447353904233766
2015-11-26,0.7276552797735497
2015-11-27,0.8057661396677425
2015-11-30,0.38847387906212827
2015-12-01,0.21107631615775754
2015-12-02,0.288135593220289
2015-12-03,0.0409836065573541
2015-12-04,0.022727272727268575
2015-12-07,0.03448275862067892
2015-12-08,0.030612244897952282
2015-12-09,0.0
2015-12-10,0.0
2015-12-11,0.0
2015-12-14,0.07272727272739202
2015-12-15,0.16666666666690094
2015-12-16,0.17857142857158215
2015-12-17,0.1785714285716206
2015-12-18,0.7192982456140044
2015-12-21,0.7192982456139451
2015-12-22,0.7499999999998822
2015-12-23,0.7272727272727066
2015-12-24,0.9210526315789557
2015-12-25,0.4594594594593804
2015-12-28,0.3896103896103236
2015-12-29,0.3648648648649038
2015-12-30,0.42253521126760146
2015-12-31,0.18000000000015032
2016-01-04,0.42857142857169467
2016-01-05,0.8275862068967167
2016-01-06,0.909090909090969
2016-01-07,0.9462365591398241
2016-01-08,0.8969072164949078
2016-01-11,0.836538461538467
2016-01-12,0.7058823529411867
2016-01-13,0.49397590361450144
2016-01-14,0.0
2016-01-15,0.15384615384602474
2016-01-18,0.5555555555555276
2016-01-19,0.6557377049180135
2016-01-20,0.6249999999999298
2016-01-21,0.4705882352941176
2016-01-22,0.3298969072165508
2016-01-25,0.01515151515149822
2016-01-26,0.013333333333316509
2016-01-27,0.015624999999981232
2016-01-28,0.02222222222219447
2016-01-29,0.8947368421052353
2016-02-01,0.7807692307692129
2016-02-02,0.8345323741007288
2016-02-03,0.8551724137931059
2016-02-04,0.8858131487889359
2016-02-05,0.176079734219309
2016-02-15,0.23255696965755634
2016-02-16,0.13241978064593113
2016-02-17,0.06903584164206307
2016-02-18,0.04237365104451742
2016-02-19,0.22429297874640372
2016-02-22,0.07089739815367208
2016-02-23,0.07375909374283376
2016-02-24,0.12689679685241817
2016-02-25,0.6100703609703699
2016-02-26,0.6521739130435208
2016-02-29,0.674157303370798
2016-03-01,0.8780487804878004
2016-03-02,0.9611650485436842
2016-03-03,0.6506024096384431
2016-03-04,0.6777777777777062
2016-03-07,0.7747747747747372
2016-03-08,0.8046874999999739
2016-03-09,0.703703703703756
2016-03-10,0.817204301075332
2016-03-11,0.6835443037975695
2016-03-14,0.3580246913580099
2016-03-15,0.0
2016-03-16,0.0
2016-03-17,0.0
2016-03-18,0.0
2016-03-21,0.1794871794871764
2016-03-22,0.25454545454543265
2016-03-23,0.20000000000000853
2016-03-24,0.20895522388061832
2016-03-25,0.4565217391304972
2016-03-28,0.11475409836063405
2016-03-29,0.46315789473683466
2016-03-30,0.6562500000000058
2016-03-31,0.7339449541284246
2016-04-01,0.738738738738737
2016-04-05,1.0
2016-04-06,0.6716417910447902
2016-04-07,0.5107913669065003
2016-04-08,0.4186046511628107
2016-04-11,0.3600000000000038
2016-04-12,0.0
2016-04-13,0.510948905109503
2016-04-14,0.7760416666666419
2016-04-15,0.8144329896907126
2016-04-18,0.8385416666666554
2016-04-19,1.0
2016-04-20,0.6884057971014057
2016-04-21,0.15384615384615155
2016-04-22,0.06363636363633937
2016-04-25,0.055045871559753226
2016-04-26,0.1825396825397615
2016-04-27,0.20720720720731398
2016-04-28,0.28395061728408605
2016-04-29,0.2875000000001202
2016-05-03,0.2911045981129017
2016-05-04,0.030044797820888664
2016-05-05,0.04305276027792318
2016-05-06,0.25043628312175603
2016-05-09,0.6545921562383811
2016-05-10,0.7106784377528362
2016-05-11,0.911862965714781
2016-05-12,0.9708432418488824
2016-05-13,0.9678662263977098
2016-05-16,0.5624999999998647
2016-05-17,0.18333333333316235
2016-05-18,0.2656249999999658
2016-05-19,0.3974358974359203
2016-05-20,0.26732673267335566
2016-05-23,0.30337078651696425
2016-05-24,0.4426229508199429
2016-05-25,0.30000000000012733
2016-05-26,1.3920308080728075e-13
2016-05-27,0.0750000000002064
2016-05-30,0.07894736842125043
2016-05-31,0.22222222222207577
2016-06-01,0.2941176470586748
2016-06-02,0.3703703703701506
2016-06-03,0.31999999999976236
2016-06-06,0.4285714285712872
2016-06-07,0.05555555555563811
2016-06-08,0.2307692307693656
2016-06-13,0.27272727272750197
2016-06-14,0.4146341463416261
2016-06-15,0.3265306122449772
2016-06-16,0.7755102040817129
2016-06-17,0.6595744680851465
2016-06-20,0.7307692307691847
2016-06-21,0.6304347826086887
2016-06-22,0.8333333333333747
2016-06-23,0.39130434782611245
2016-06-24,0.6666666666666811
2016-06-27,0.712500000000005
2016-06-28,0.7999999999999762
2016-06-29,0.7802197802197371
2016-06-30,1.0
2016-07-01,0.8181818181817584
2016-07-04,0.7627118644067172
2016-07-05,0.36666666666670306
2016-07-06,0.35593220338983406
2016-07-07,0.01960784313714179
2016-07-08,0.2800000000000332
2016-07-11,0.19178082191785498
2016-07-12,0.2500000000000264
2016-07-13,0.2166666666667871
2016-07-14,0.23636363636379545
2016-07-15,0.207547169811346
2016-07-18,0.47222222222212606
2016-07-19,0.48571428571423486
2016-07-20,0.6904761904761518
2016-07-21,0.8846153846153384
2016-07-22,0.6363636363634844
2016-07-25,0.5087719298244847
2016-07-26,0.7027027027026551
2016-07-27,0.5479452054793784
2016-07-28,0.42105263157897743
2016-07-29,0.40677966101701984
2016-08-01,0.4615384615384922
2016-08-02,0.026315789473833992
2016-08-03,0.034482758620879884
2016-08-04,0.0
2016-08-05,0.0
2016-08-08,0.0
2016-08-09,0.0
2016-08-10,0.4130434782609874
2016-08-11,0.81294500701384
2016-08-12,0.8681365557623408
2016-08-15,0.9114923377694036
2016-08-16,1.0
2016-08-17,0.7677641045868537
2016-08-18,0.6863701270699369
2016-08-19,0.6329233665930395
2016-08-22,0.33514778459689043
2016-08-23,0.42028909563534267
2016-08-24,0.7543859649123744
2016-08-25,0.7288135593221081
2016-08-26,0.507462686567169
2016-08-29,0.48571428571423625
2016-08-30,0.2575757575757733
2016-08-31,0.0
2016-09-01,0.0
2016-09-02,0.0
2016-09-05,1.0176290340063282e-13
2016-09-06,8.679777054754279e-14
2016-09-07,6.55805377470295e-14
2016-09-08,0.06382978723393233
2016-09-09,0.2790697674416424
2016-09-12,0.36734693877518193
2016-09-13,0.657894736841972
2016-09-14,1.0
2016-09-19,0.7659574468086113
2016-09-20,0.5294117647060395
2016-09-21,0.41176470588266056
2016-09-22,0.26923076923086564
2016-09-23,0.0
2016-09-26,0.0
2016-09-27,0.04999999999994823
2016-09-28,0.055555555555482465
2016-09-29,0.052631578947311033
2016-09-30,0.08695652173903536
2016-10-10,0.07999999999996693
2016-10-11,0.0
2016-10-12,0.31707317073169317
2016-10-13,0.608695652173997
2016-10-14,0.7692307692308963
2016-10-17,0.874999999999914
2016-10-18,0.9607843137255722
2016-10-19,0.9545454545455494
2016-10-20,0.9375000000001157
2016-10-21,0.7199999999999573
2016-10-24,0.8372093023256871
2016-10-25,0.9230769230769301
2016-10-26,0.954128440366981
2016-10-27,0.960317460317468
2016-10-28,1.0
2016-10-31,0.8571428571428759
2016-11-01,0.7578947368421083
2016-11-02,0.2135922330097208
2016-11-03,0.019230769230777503
2016-11-04,0.0
2016-11-07,0.0
2016-11-08,0.2622950819672486
2016-11-09,0.7168141592920141
2016-11-10,0.89834999733055
2016-11-11,0.9276550477214636
2016-11-14,1.0
2016-11-15,0.9229979694681316
2016-11-16,0.6198651536237503
2016-11-17,0.5676067514948764
2016-11-18,0.4278702385268224
2016-11-21,0.03689574426298987
2016-11-22,0.03767763211485899
2016-11-23,0.33823529411768233
2016-11-24,0.243902439024392
2016-11-25,0.2666666666666353
2016-11-28,0.37037037037031767
2016-11-29,0.7547169811320035
2016-11-30,0.7499999999999432
2016-12-01,0.9318181818181402
2016-12-02,0.9343065693430664
2016-12-05,1.0
2016-12-06,0.8014705882352998
2016-12-07,0.6594202898550797
2016-12-08,0.4791666666666329
2016-12-09,0.4791666666666007
2016-12-12,0.25373134328350844
2016-12-13,0.26153846153839316
2016-12-14,0.6410256410255663
2016-12-15,0.8456790123456883
2016-12-16,0.9283667621776551
2016-12-19,0.9393203883495178
2016-12-20,1.0
2016-12-21,1.0
2016-12-22,0.9151943462897388
2016-12-23,0.6116322701688397
2016-12-26,0.4940944881889674
2016-12-27,0.19354838709676758
2016-12-28,0.0
2016-12-29,0.19529837251356824
2016-12-30,0.3075060532687788
2017-01-03,0.31513647642681186
2017-01-04,0.5018726591760209
2017-01-05,0.7052631578947425
2017-01-06,0.11711711711708675
2017-01-09,0.02953586497886092
2017-01-10,0.033653846153797254
2017-01-11,0.0
2017-01-12,0.0
2017-01-13,0.0
2017-01-16,0.33742331288342775
2017-01-17,0.34375000000000516
2017-01-18,0.42647058823530115
2017-01-19,0.703448275862083
2017-01-20,0.9436619718309853
2017-01-23,0.47590361445781326
2017-01-24,0.6973180076628311
2017-01-25,0.7069781802238247
2017-01-26,0.5594497561818371
2017-02-03,0.6478169894962726
2017-02-06,0.871901180316776
2017-02-07,0.6237091600166451
2017-02-08,0.6179228835545516
2017-02-09,0.7052486203981446
2017-02-10,0.17774631641395677
2017-02-13,0.04294715461340771
2017-02-14,0.05027932960886982
2017-02-15,0.0050505050504718535
2017-02-16,0.2285714285714
2017-02-17,0.654411764705863
2017-02-20,0.6285714285714572
2017-02-21,0.7040000000000508
2017-02-22,0.9404761904762166
2017-02-23,0.668831168831199
2017-02-24,0.5984251968503901
2017-02-27,0.6434108527131409
2017-02-28,0.6287878787878652
2017-03-01,0.13265306122441464
2017-03-02,0.166666666666573
2017-03-03,0.07777777777776479
2017-03-06,0.0
2017-03-07,0.0
2017-03-08,0.06862745098036974
2017-03-09,0.4126984126984079
2017-03-10,0.43333333333328067
2017-03-13,0.8659217877094478
2017-03-14,0.9064327485380013
2017-03-15,0.751269035532979
2017-03-16,0.699386503067469
2017-03-17,0.7597402597402614
2017-03-20,0.10937499999998353
2017-03-21,0.2903225806451524
2017-03-22,0.3840000000000274
2017-03-23,0.25170068027213216
2017-03-24,0.4685990338164377
2017-03-27,0.6689655172413707
2017-03-28,0.5038167938931375
2017-03-29,0.5289855072463435
2017-03-30,0.6083333333333126
2017-03-31,0.10752688172038374
2017-04-05,0.48091603053434234
2017-04-06,0.48091603053434256
2017-04-07,0.3680555555555783
2017-04-10,0.3925925925926236
2017-04-11,0.420634920634943
2017-04-12,0.0
2017-04-13,0.22727272727277664
2017-04-14,0.43636363636367204
2017-04-17,0.5757575757576133
2017-04-18,0.7410714285714949
2017-04-19,0.7757009345794349
2017-04-20,0.5420560747663263
2017-04-21,0.4166666666666696
2017-04-24,0.16949152542370102
2017-04-25,0.279411764705728
2017-04-26,0.3877551020406352
2017-04-27,0.821428571428579
2017-04-28,0.4259259259258738
2017-05-02,0.28571428571430957
2017-05-03,0.05970149253739455
2017-05-04,0.5538461538461877
2017-05-05,0.5312500000000093
2017-05-08,0.7553956834532594
2017-05-09,0.7954545454545711
2017-05-10,0.9263157894736959
2017-05-11,0.7012987012987194
2017-05-12,0.7882508477791922
2017-05-15,0.8525280739403568
2017-05-16,0.8905086567541685
2017-05-17,0.654027694557401
2017-05-18,0.6405881249218023
2017-05-19,0.4774048206574306
2017-05-22,0.020645593853208577
2017-05-23,0.050775687430701565
2017-05-24,0.13812525312303575
2017-05-25,0.1626794258373063
2017-05-26,0.17435897435896272
2017-05-31,0.6582278481013263
2017-06-01,0.5285714285715145
2017-06-02,0.21428571428577178
2017-06-05,0.3010752688172109
2017-06-06,0.47999999999993787
2017-06-07,0.19999999999988297
2017-06-08,0.19354838709665953
2017-06-09,0.29032258064499394
2017-06-12,0.2903225806451613
2017-06-13,0.3015873015874311
2017-06-14,0.7659574468085069
2017-06-15,0.9629629629629171
2017-06-16,0.8524590163935053
2017-06-19,0.8695652173913361
2017-06-20,0.7285714285714062
2017-06-21,0.5964912280700938
2017-06-22,0.34615384615377043
2017-06-23,0.45652173913031296
2017-06-26,0.06122448979590745
2017-06-27,0.16279069767451
2017-06-28,0.10000000000009163
2017-06-29,0.08750000000008244
2017-06-30,0.0454545454546147
2017-07-03,0.12500000000009112
2017-07-04,0.061728395061737315
2017-07-05,0.16666666666662172
2017-07-06,0.333333333333144
2017-07-07,0.7111111111110548
2017-07-10,0.442622950819592
2017-07-11,0.5399999999998876
2017-07-12,0.5740740740739736
2017-07-13,0.5490196078431316
2017-07-14,0.18604651162794994
2017-07-17,0.4999999999998955
2017-07-18,0.6842105263157653
2017-07-19,0.33962264150943394
2017-07-20,0.33333333333326104
2017-07-21,0.4666666666666318
2017-07-24,0.2586206896552096
2017-07-25,0.06122448979598149
2017-07-26,0.4102564102565604
2017-07-27,0.5217391304349098
2017-07-28,0.403846153846233
2017-07-31,0.7600000000001171
2017-08-01,0.82
2017-08-02,0.5833333333333436
2017-08-03,0.33333333333333315
2017-08-04,0.44642857142858905
2017-08-07,0.19512195121943898
2017-08-08,0.10416666666669208
2017-08-09,0.47540983606559173
2017-08-10,0.713977598588296
2017-08-11,0.683336499063864
2017-08-14,0.795066853512322
2017-08-15,1.0
2017-08-16,0.36559586656178994
2017-08-17,0.33707100104334226
2017-08-18,0.28613490364028554
2017-08-21,0.028132438866057
2017-08-22,0.0
2017-08-23,0.17857142857150726
2017-08-24,0.301587301587419
2017-08-25,0.3064516129033341
2017-08-28,0.6578947368421499
2017-08-29,0.8780487804877892
2017-08-30,0.7647058823528449
2017-08-31,0.4857142857141063
2017-09-01,0.4722222222219983
2017-09-04,0.2749999999999615
2017-09-05,0.0
2017-09-06,0.029411764705897653
2017-09-07,0.49999999999996814
2017-09-08,0.7605633802816874
2017-09-11,0.907894736842045
2017-09-12,1.0
2017-09-13,1.0
2017-09-14,1.0
2017-09-15,0.6271186440678411
2017-09-18,0.645161290322599
2017-09-19,0.531249999999974
2017-09-20,0.37681159420278276
2017-09-21,0.27272727272716385
2017-09-22,0.44680851063818117
2017-09-25,0.056603773584988845
2017-09-26,0.05660377358499196
2017-09-27,0.0681818181819435
2017-09-28,0.046153846153928445
2017-09-29,0.031249999999982875
2017-10-09,0.406249999999987
2017-10-10,0.4736842105263727
2017-10-11,0.5185185185184783
2017-10-12,1.0
2017-10-13,0.9107142857142683
2017-10-16,0.5294117647058757
2017-10-17,0.7599999999999648
2017-10-18,0.7837837837837767
2017-10-19,0.7757009345794378
2017-10-20,0.8256880733945032
2017-10-23,1.0
2017-10-24,0.49494949494953594
2017-10-25,0.5833333333333253
2017-10-26,0.44954128440365587
2017-10-27,0.5973154362416007
2017-10-30,0.7014925373134311
2017-10-31,0.9421965317919123
2017-11-01,0.8074534161490667
2017-11-02,0.7602339181286586
2017-11-03,0.525316455696194
2017-11-06,0.1341463414634128
2017-11-07,0.11801242236023371
2017-11-08,0.2530864197531159
2017-11-09,0.2937062937062825
2017-11-10,0.3620689655172492
2017-11-13,0.9245510624482527
2017-11-14,0.9243652398276303
2017-11-15,0.6931701282044931
2017-11-16,0.6889992471585495
2017-11-17,0.666454365012386
2017-11-20,0.23468547668704567
2017-11-21,0.0
2017-11-22,0.2866094014802019
2017-11-23,0.27244946229776024
2017-11-24,0.36734693877544594
2017-11-27,0.4337349397589734
2017-11-28,0.5624999999999568
2017-11-29,0.6499999999999688
2017-11-30,0.7653061224489881
2017-12-01,0.772277227722804
2017-12-04,0.9191919191919301
2017-12-05,1.0
2017-12-06,0.41304347826093535
2017-12-07,0.25563909774438554
2017-12-08,0.20161290322578673
2017-12-11,0.1043478260869597
2017-12-12,0.023999999999965636
2017-12-13,0.06382978723394776
2017-12-14,0.07499999999989859
2017-12-15,0.0
2017-12-18,0.07500000000010303
2017-12-19,0.11111111111128061
2017-12-20,0.10344827586222988
2017-12-21,0.1578947368423904
2017-12-22,0.18750000000040207
2017-12-25,0.0
2017-12-26,0.08333333333333333
2017-12-27,0.06896551724135828
2017-12-28,0.16129032258058393
2017-12-29,0.3749999999997888
2018-01-02,0.8611111111110281
2018-01-03,0.769230769230688
2018-01-04,0.9139784946236489
2018-01-05,0.8453608247422545
2018-01-08,0.7659574468085287
2018-01-09,0.2500000000000367
2018-01-10,0.3853211009174683
2018-01-11,0.2947368421052956
2018-01-12,0.3617021276596376
2018-01-15,0.4175824175824819
2018-01-16,1.0
2018-01-17,1.0
2018-01-18,0.6571428571428333
2018-01-19,0.7142857142856344
2018-01-22,0.6341463414632779
2018-01-23,0.4736842105262056
2018-01-24,0.9082568807339366
2018-01-25,0.963470319634703
2018-01-26,0.8839285714285878
2018-01-29,0.8389830508474682
2018-01-30,0.846153846153854
2018-01-31,0.05078125000001625
2018-02-01,0.0
2018-02-02,0.0
2018-02-05,0.004291845493573288
2018-02-06,0.025531914893620278
2018-02-07,0.3125000000001379
2018-02-08,0.9032258064513929
2018-02-09,1.0
2018-02-12,0.8749848219396134
2018-02-13,0.7944956273541438
2018-02-14,0.7396922796170463
2018-02-22,0.5293704420755105
2018-02-23,0.0
2018-02-26,0.41506295705722535
2018-02-27,0.5912121289243005
2018-02-28,0.6204134456246112
2018-03-01,0.6204254649938827
2018-03-02,0.8725490196078708
2018-03-05,0.494505494505508
2018-03-06,0.11764705882359038
2018-03-07,0.057971014492743056
2018-03-08,0.27777777777779145
2018-03-09,0.3580246913580485
2018-03-12,0.4328358208955937
2018-03-13,0.47540983606556436
2018-03-14,0.6582278481012748
2018-03-15,0.4137931034482886
2018-03-16,0.2705882352941355
2018-03-19,0.38571428571428945
2018-03-20,0.4218750000000559
2018-03-21,0.058823529411787735
2018-03-22,0.4202898550724297
2018-03-23,0.6914893617020574
2018-03-26,0.6813186813186033
2018-03-27,0.6138613861385817
2018-03-28,0.8636363636364395
2018-03-29,0.637500000000101
2018-03-30,0.21428571428583437
2018-04-02,0.36781609195406334
2018-04-03,0.6194690265486976
2018-04-04,0.5137614678898924
2018-04-09,0.636363636363612
2018-04-10,0.8734177215189532
2018-04-11,0.8630136986301236
2018-04-12,0.45454545454537676
2018-04-13,0.6721311475408905
2018-04-16,0.7701149425286712
2018-04-17,0.7674418604650812
2018-04-18,0.8181818181817745
2018-04-19,1.0
2018-04-20,0.9876543209876486
2018-04-23,0.5802469135802818
2018-04-24,0.49411764705883776
2018-04-25,0.058823529411825524
2018-04-26,0.0
2018-04-27,0.16279069767444665
2018-05-02,0.35344827586210664
2018-05-03,0.4883720930232712
2018-05-04,0.8375000000000087
2018-05-07,1.0
2018-05-08,1.0
2018-05-09,0.7833333333333278
2018-05-10,0.4807692307691297
2018-05-11,0.4117647058822003
2018-05-14,0.2711864406779195
2018-05-15,0.0
2018-05-16,0.2544977717461129
2018-05-17,0.4716490658002256
2018-05-18,0.5428615243062355
2018-05-21,0.7341747318860158
2018-05-22,0.8221144164760221
2018-05-23,0.4821922491221378
2018-05-24,0.2621580122837081
2018-05-25,0.4448225520160336
2018-05-28,0.3274592408005223
2018-05-29,0.4561403508771664
2018-05-30,0.6632653061223958
2018-05-31,0.8915662650602081
2018-06-01,0.3917525773195736
2018-06-04,0.5535714285714413
2018-06-05,0.3709677419354976
2018-06-06,0.28448275862072114
2018-06-07,0.19047619047620493
2018-06-08,0.3333333333332582
2018-06-11,0.0232558139533759
2018-06-12,0.09677419354820418
2018-06-13,0.16393442622943355
2018-06-14,0.5733333333332905
2018-06-15,0.5061728395061781
2018-06-19,0.9024390243902318
2018-06-20,0.9272727272727167
2018-06-21,0.9344262295081834
2018-06-22,0.9000000000000327
2018-06-25,0.9906542056075227
2018-06-26,0.7087378640777295
2018-06-27,0.44565217391310474
2018-06-28,0.2551020408163761
2018-06-29,0.23809523809526345
2018-07-02,0.04761904761905254
2018-07-03,0.3855421686746588
2018-07-04,0.4324324324323961
2018-07-05,0.5333333333332616
2018-07-06,0.6774193548386716
2018-07-09,0.45783132530116916
2018-07-10,0.12345679012344656
2018-07-11,0.2531645569620276
2018-07-12,0.31081081081087414
2018-07-13,0.18055555555565467
2018-07-16,0.38181818181834
2018-07-17,0.6176470588237833
2018-07-18,0.2750000000002021
2018-07-19,0.6847826086956996
2018-07-20,0.8786127167630026
2018-07-23,0.881355932203385
2018-07-24,0.9069767441860184
2018-07-25,0.9999999999999813
2018-07-26,0.8225806451612531
2018-07-27,0.08666666666666137
2018-07-30,0.00641025641024302
2018-07-31,0.10404624277456986
2018-08-01,0.22500000000001205
2018-08-02,0.22959183673470673
2018-08-03,0.6571428571428588
2018-08-06,0.8064516129032064
2018-08-07,0.7721518987341345
2018-08-08,0.7187499999999327
2018-08-09,1.0
2018-08-10,1.0
2018-08-13,1.0
2018-08-14,1.0
2018-08-15,0.8924125174886004
2018-08-16,0.9067809959523603
2018-08-17,0.9192316593381147
2018-08-20,0.5427203757225435
2018-08-21,0.49914638925986876
2018-08-22,0.45812603648433714
2018-08-23,0.20602673275159994
2018-08-24,0.0
2018-08-27,0.0
2018-08-28,0.1525423728812761
2018-08-29,0.1578947368420116
2018-08-30,0.23999999999988245
2018-08-31,0.29999999999983845
2018-09-03,0.4107142857141087
2018-09-04,0.0806451612902646
2018-09-05,0.1224489795917965
2018-09-06,0.10714285714281228
2018-09-07,0.17499999999992447
2018-09-10,0.2500000000001666
2018-09-11,0.7750000000000384
2018-09-12,0.7999999999999868
2018-09-13,1.0
2018-09-14,1.0
2018-09-17,0.680555555555445
2018-09-18,0.37179487179480314
2018-09-19,0.3378378378378937
2018-09-20,0.11111111111120972
2018-09-21,0.17647058823527156
2018-09-25,0.2222222222222045
2018-09-26,0.6190476190474493
2018-09-27,0.6190476190474226
2018-09-28,0.5909090909090818
2018-10-08,0.3333333333333333
2018-10-09,0.6166666666667581
2018-10-10,0.3239436619719615
2018-10-11,0.4666666666667536
2018-10-12,0.5060240963855819
2018-10-15,0.5454545454545767
2018-10-16,0.3965517241378367
2018-10-17,0.7368421052629913
2018-10-18,0.13461538461520864
2018-10-19,0.3174603174602109
2018-10-22,0.32786885245893116
2018-10-23,0.33870967741943736
2018-10-24,0.2807017543860871
2018-10-25,0.8000000000002153
2018-10-26,0.3333333333336895
2018-10-29,0.6666666666667687
2018-10-30,0.5087719298245413
2018-10-31,0.5624999999999942
2018-11-01,0.555555555555483
2018-11-02,0.8124999999999081
2018-11-05,0.5535714285714154
2018-11-06,0.793650793650844
2018-11-07,0.7719298245614378
2018-11-08,0.7450980392157392
2018-11-09,0.42857142857142005
2018-11-12,0.5526315789472973
2018-11-13,0.05714285714282551
2018-11-14,0.05714285714274745
2018-11-15,0.020408163265206246
2018-11-16,0.48437499999993827
2018-11-19,0.6516747090950757
2018-11-20,0.7341553441796898
2018-11-21,0.7557876024414915
2018-11-22,0.9340466845004656
2018-11-23,0.7332740141558295
2018-11-26,0.5713497178739831
2018-11-27,0.7413300163699883
2018-11-28,0.49997183367141695
2018-11-29,0.21427720262449806
2018-11-30,0.25423728813556046
2018-12-03,0.2833333333332683
2018-12-04,0.04081632653059165
2018-12-05,0.4599999999999941
2018-12-06,0.824999999999919
2018-12-07,0.8974358974359472
2018-12-10,0.46478873239437535
2018-12-11,0.4177215189873428
2018-12-12,0.1791044776119219
2018-12-13,0.32098765432100157
2018-12-14,0.31249999999995637
2018-12-17,0.7741935483870653
2018-12-18,0.8965517241378903
2018-12-19,1.0
2018-12-20,0.8405797101449144
2018-12-21,0.740259740259758
2018-12-24,0.18867924528295088
2018-12-25,0.0701754385965122
2018-12-26,0.053571428571432496
2018-12-27,0.05882352941176153
2018-12-28,0.3709677419354984
2019-01-02,0.5227272727272558
2019-01-03,0.7317073170731077
2019-01-04,0.7884615384614633
2019-01-07,0.7884615384616417
2019-01-08,0.7555555555556267
2019-01-09,0.7391304347827086
2019-01-10,0.8181818181818747
2019-01-11,0.7272727272727805
2019-01-14,0.8615384615384465
2019-01-15,0.5180722891566273
2019-01-16,0.649484536082498
2019-01-17,0.387096774193531
2019-01-18,0.35294117647058654
2019-01-21,0.18018018018021
2019-01-22,0.28571428571429086
2019-01-23,0.7718631178707094
2019-01-24,0.8285714285714816
2019-01-25,0.7960784313725773
2019-01-28,0.8937007874015988
2019-01-29,0.8610038610038856
2019-01-30,0.0827586206896648
2019-01-31,0.08333333333334021
2019-02-01,0.1102941176470665
2019-02-11,0.07633587786259051
2019-02-12,0.07874015748031139
2019-02-13,0.6896551724137824
2019-02-14,0.8695652173912822
2019-02-15,0.8947368421052524
2019-02-18,0.47435897435892954
2019-02-19,0.6078431372548347
2019-02-20,0.7801686915691622
2019-02-21,0.757527236838164
2019-02-22,0.677768298447035
2019-02-25,0.9383536560554759
2019-02-26,0.931826232371983
2019-02-27,0.5019204745943723
2019-02-28,0.45143272643538956
2019-03-01,0.46650641281261007
2019-03-04,0.12933174903113268
2019-03-05,0.0
2019-03-06,0.0
2019-03-07,0.01724137931037976
2019-03-08,0.01785714285718033
2019-03-11,0.014705882352972939
2019-03-12,0.03125000000006027
2019-03-13,0.02857142857148853
2019-03-14,0.0
2019-03-15,0.4109589041095874
2019-03-18,0.5555555555555012
2019-03-19,0.6065573770490502
2019-03-20,0.6727272727271255
2019-03-21,0.7399999999998617
2019-03-22,0.13207547169795594
2019-03-25,0.1296296296294912
2019-03-26,5.2627436852431993e-14
2019-03-27,0.017543859649058774
2019-03-28,0.018867924528235127
2019-03-29,0.04761904761890144
2019-04-01,0.7111111111111776
2019-04-02,0.9090909090910303
2019-04-03,0.963963963964018
2019-04-04,0.9925373134328638
2019-04-08,1.0
2019-04-09,0.8540540540540928
2019-04-10,0.8622448979592181
2019-04-11,0.5706214689265804
2019-04-12,0.42134831460676125
2019-04-15,0.11949685534592344
2019-04-16,0.21527777777777254
2019-04-17,0.23129251700678383
2019-04-18,0.2956521739130242
2019-04-19,0.41304347826079546
2019-04-22,0.4691358024691368
2019-04-23,0.3561643835616301
2019-04-24,0.05128205128197898
2019-04-25,0.3372093023255445
2019-04-26,0.33720930232565743
2019-04-29,0.6172839506173098
2019-04-30,0.6999999999999803
2019-05-06,0.7974683544303747
2019-05-07,0.4691358024691457
2019-05-08,0.43589743589735996
2019-05-09,0.1688311688310525
2019-05-10,0.015384615384688546
2019-05-13,0.020000000000094192
2019-05-14,0.4358974358974475
2019-05-15,0.5116279069767645
2019-05-16,0.9666666666667084
2019-05-17,0.5490196078432013
2019-05-20,0.5185185185186091
2019-05-21,0.763636363636385
2019-05-22,0.6698647359899144
2019-05-23,0.643688388066283
2019-05-24,0.7141962077162713
2019-05-27,0.8301231303918688
2019-05-28,0.3571124475945676
2019-05-29,0.4705732611086582
2019-05-30,0.5017624402345525
2019-05-31,0.6065024311809646
2019-06-03,0.2976197729224948
2019-06-04,0.4117647058824151
2019-06-05,0.28440366972482284
2019-06-06,0.2190476190475751
2019-06-10,0.0
2019-06-11,0.2166666666666936
2019-06-12,0.325581395348853
2019-06-13,0.3684210526315829
2019-06-14,0.41176470588232766
2019-06-17,0.7368421052632228
2019-06-18,0.05000000000007247
2019-06-19,0.0
2019-06-20,0.1481481481482642
2019-06-21,0.2580645161294667
2019-06-24,0.47500000000026266
2019-06-25,0.7037037037036521
2019-06-26,0.7599999999997104
2019-06-27,0.517241379310251
2019-06-28,0.6888888888885903
2019-07-01,0.6744186046508771
2019-07-02,0.8395061728394477
2019-07-03,0.9036144578313055
2019-07-04,1.0
2019-07-05,0.6987951807229185
2019-07-08,0.612499999999963
2019-07-09,0.12658227848100506
2019-07-10,0.041095890410962996
2019-07-11,0.09090909090904259
2019-07-12,0.1249999999999217
2019-07-15,0.3943661971830592
2019-07-16,0.7368421052630855
2019-07-17,0.6086956521738466
2019-07-18,0.3888888888888769
2019-07-19,0.4313725490196189
2019-07-22,0.018518518518538342
2019-07-23,0.31428571428575003
2019-07-24,0.3906250000000728
2019-07-25,0.4385964912281609
2019-07-26,0.3809523809524627
2019-07-29,0.6428571428572571
2019-07-30,0.1818181818182861
2019-07-31,0.2058823529412343
2019-08-01,0.5128205128204898
2019-08-02,0.7391304347825977
2019-08-05,0.8032786885245934
2019-08-06,1.0
2019-08-07,0.8974358974358726
2019-08-08,0.7500000000000577
2019-08-09,0.5657894736842379
2019-08-12,0.2976190476190347
2019-08-13,0.0
2019-08-14,0.21611604050138214
2019-08-15,0.5180156614252134
2019-08-16,0.6132374379587079
2019-08-19,0.7588342567864154
2019-08-20,0.9483349108299021
2019-08-21,0.8419999902785706
2019-08-22,0.25083832616181523
2019-08-23,0.06959810224512858
2019-08-26,0.1819193122251825
2019-08-27,0.19354838709668035
2019-08-28,0.19672131147534735
2019-08-29,0.8513513513513299
2019-08-30,0.8974358974360498
2019-09-02,0.7435897435898634
2019-09-03,0.7564102564103236
2019-09-04,0.8441558441558353
2019-09-05,0.168674698795283
2019-09-06,0.10389610389614745
2019-09-09,0.19718309859153627
2019-09-10,0.19718309859160227
2019-09-11,0.10666666666662145
2019-09-12,0.6296296296291497
2019-09-16,0.7368421052627945
2019-09-17,0.7872340425529539
2019-09-18,0.8529411764703928
2019-09-19,1.0
2019-09-20,0.9206349206350345
2019-09-23,0.5897435897436865
2019-09-24,0.4133333333333701
2019-09-25,0.12328767123294895
2019-09-26,0.1232876712329139
2019-09-27,0.22368421052637327
2019-09-30,0.6363636363636334
2019-10-08,0.6292134831460534
2019-10-09,0.8194444444444242
2019-10-10,0.6666666666667186
2019-10-11,0.5833333333333233
2019-10-14,0.05555555555563983
2019-10-15,0.07142857142868086
2019-10-16,0.0
2019-10-17,0.0
2019-10-18,0.0
2019-10-21,0.0
2019-10-22,2.432131468148432e-13
2019-10-23,0.12499999999936223
2019-10-24,0.1428571428564287
2019-10-25,0.07692307692271459
2019-10-28,0.041666666666494566
2019-10-29,0.03846153846126661
2019-10-30,0.5901639344262546
2019-10-31,0.7123287671233993
2019-11-01,0.7857142857143838
2019-11-04,0.9166666666665776
2019-11-05,0.9696969696969305
2019-11-06,0.566037735849096
2019-11-07,0.42307692307687883
2019-11-08,0.38679245283015806
2019-11-11,0.49180327868849993
2019-11-12,0.1652173913043287
2019-11-13,0.30263157894725384
2019-11-14,0.4729729729729262
2019-11-15,0.5466666666666299
2019-11-18,0.5211267605634132
2019-11-19,0.7708333333333499
2019-11-20,0.7558494914575744
2019-11-21,0.5514373871163649
2019-11-22,0.382763445875874
2019-11-25,0.019943344389325195
2019-11-26,0.18278127731407864
2019-11-27,0.15864424825876036
2019-11-28,0.1553341827870027
2019-11-29,0.2957202459052069
2019-12-02,0.42935422419126806
2019-12-03,0.2121212121209987
2019-12-04,0.3513513513511158
2019-12-05,0.5428571428568557
2019-12-06,0.5789473684208232
2019-12-09,0.7857142857140559
2019-12-10,1.0
2019-12-11,1.0
2019-12-12,0.9499999999998615
2019-12-13,0.3461538461539192
2019-12-16,0.413793103448452
2019-12-17,0.5000000000002137
2019-12-18,0.3333333333336024
2019-12-19,0.4102564102568097
2019-12-20,0.8444444444445937
2019-12-23,0.85416666666677
2019-12-24,0.6530612244897936
2019-12-25,0.7272727272724991
2019-12-26,0.6999999999995857
2019-12-27,0.14999999999984373
2019-12-30,0.0
2019-12-31,0.0
2020-01-02,0.14285714285739187
2020-01-03,0.1428571428574038
2020-01-06,0.741935483871086
2020-01-07,0.6969696969699347
2020-01-08,0.7941176470589092
2020-01-09,0.8985507246376935
2020-01-10,0.920454545454593
2020-01-13,0.707865168539357
2020-01-14,0.7738095238094957
2020-01-15,0.7912087912087697
2020-01-16,0.333333333333293
2020-01-17,0.1666666666665487
2020-01-20,0.45882352941161664
2020-01-21,0.5157894736841365
2020-01-22,0.5306122448978896
2020-01-23,0.9873417721518597
2020-02-03,1.0
2020-02-04,0.8598130841122473
2020-02-05,0.8529411764706888
2020-02-06,0.6952380952381769
2020-02-07,0.500000000000062
2020-02-10,0.06930693069309111
2020-02-11,0.09195402298852379
2020-02-12,0.05952380952385432
2020-02-13,0.06756756756762
2020-02-14,0.32500000000008356
2020-02-17,0.8333333333333796
2020-02-18,0.8409090909091256
2020-02-19,0.5082266269075608
2020-02-20,0.6493223542981414
2020-02-21,0.354604692966888
2020-02-24,0.23839279715106634
2020-02-25,0.1738777229509787
2020-02-26,0.46162373655033
2020-02-27,0.3805289814293606
2020-02-28,0.5390338523675385
2020-03-02,0.7563115702149047
2020-03-03,0.9523809523809851
2020-03-04,0.9454545454545835
2020-03-05,0.8135593220339813
2020-03-06,0.8805970149254132
2020-03-09,0.8596491228070764
2020-03-10,0.9069767441860889
2020-03-11,0.909090909090951
2020-03-12,1.0
2020-03-13,1.0
2020-03-16,1.0
2020-03-17,0.488888888888838
2020-03-18,0.4945054945054458
2020-03-19,0.5660377358490284
2020-03-20,0.35051546391750954
2020-03-23,0.2644628099173645
2020-03-24,0.5656565656565975
2020-03-25,0.5057471264368163
2020-03-26,0.3768115942029251
2020-03-27,0.559322033898344
2020-03-30,1.0
2020-03-31,1.0
2020-04-01,0.851851851851927
2020-04-02,0.7419354838710127
2020-04-03,0.7192982456140369
2020-04-07,0.8918918918918971
2020-04-08,0.8987341772151967
2020-04-09,0.8658536585365677
2020-04-10,0.9360730593607288
2020-04-13,0.9430894308943115
2020-04-14,0.4051094890511273
2020-04-15,0.31399317406146954
2020-04-16,0.3239436619718634
2020-04-17,0.09965635738834307
2020-04-20,0.0
2020-04-21,0.21739130434784462
2020-04-22,0.3652694610778431
2020-04-23,0.5280373831775554
2020-04-24,0.8268156424580908
2020-04-27,0.9487179487179364
2020-04-28,0.8852459016392694
2020-04-29,0.8691588785045832
2020-04-30,0.40196078431366955
2020-05-06,0.18666666666663284
2020-05-07,0.585937500000006
2020-05-08,0.6928104575163778
2020-05-11,0.7431693989071539
2020-05-12,1.0
2020-05-13,0.8051282051282298
2020-05-14,0.7058823529411754
2020-05-15,0.4661311293137932
2020-05-18,0.25291351893025554
2020-05-19,0.21734954110764843
2020-05-20,0.46991141256372926
2020-05-21,0.3424045203354708
2020-05-22,0.6623808916150691
2020-05-25,0.7230348201427732
2020-05-26,0.8112133892935763
2020-05-27,0.8371246032346786
2020-05-28,0.9627659574468443
2020-05-29,0.61682242990656
2020-06-01,0.5527426160337936
2020-06-02,0.23414634146345237
2020-06-03,0.054216867469863546
2020-06-04,0.2822966507176925
2020-06-05,0.566473988439319
2020-06-08,0.6709677419354789
2020-06-09,0.608187134502923
2020-06-10,0.4611650485436924
2020-06-11,0.20089285714285993
2020-06-12,0.026548672566366057
2020-06-15,0.0
2020-06-16,0.0
2020-06-17,0.0
2020-06-18,0.3135135135134886
2020-06-19,0.45569620253161774
2020-06-22,0.5179856115107644
2020-06-23,0.71069182389937
2020-06-24,0.9324324324324348
2020-06-29,0.5882352941176568
2020-06-30,0.4782608695652327
2020-07-01,0.5338345864661742
2020-07-02,0.1999999999999925
2020-07-03,0.03448275862067811
2020-07-06,0.6033755274261491
2020-07-07,0.7291666666666518
2020-07-08,0.7523809523809393
2020-07-09,0.9326599326599266
2020-07-10,1.0
2020-07-13,0.5652173913043582
2020-07-14,0.3308550185873743
2020-07-15,0.2857142857143053
2020-07-16,0.1447963800905077
2020-07-17,0.07352941176471048
2020-07-20,0.12500000000000602
2020-07-21,0.3181818181818141
2020-07-22,0.11538461538459194
2020-07-23,0.09677419354836322
2020-07-24,0.2820512820512708
2020-07-27,0.6153846153845859
2020-07-28,0.41269841269841545
2020-07-29,0.23008849557522867
2020-07-30,0.2300884955752345
2020-07-31,0.09259259259259026
2020-08-03,0.35526315789473634
2020-08-04,0.4635761589403877
2020-08-05,0.8051948051947917
2020-08-06,0.9276315789473492
2020-08-07,0.9463087248322368
2020-08-10,0.6397058823529537
2020-08-11,0.586776859504161
2020-08-12,0.13821138211381961
2020-08-13,0.00934579439252627
2020-08-14,0.008849557522126045
2020-08-17,0.00934579439252552
2020-08-18,0.008076077145483184
2020-08-19,0.1217253607102442
2020-08-20,0.10887124299001814
2020-08-21,0.29597664130467255
2020-08-24,0.6300378117289285
2020-08-25,0.9816850361290819
2020-08-26,0.9861026162893575
2020-08-27,0.9825582350252199
2020-08-28,0.6780563070377198
2020-08-31,0.6610169491525885
2020-09-01,0.44444444444437387
2020-09-02,0.09677419354829774
2020-09-03,0.2763157894735832
2020-09-04,0.3793103448274775
2020-09-07,0.285714285714264
2020-09-08,0.44444444444457853
2020-09-09,0.8461538461539813
2020-09-10,0.7894736842107637
2020-09-11,0.8181818181820304
2020-09-14,1.0
2020-09-15,1.0
2020-09-16,0.9601769911504521
2020-09-17,0.9047619047619153
2020-09-18,0.9030837004405387
2020-09-21,0.1545893719806553
2020-09-22,0.0
2020-09-23,0.010752688172062236
2020-09-24,0.08556149732620393
2020-09-25,0.08163265306122498
2020-09-28,0.23880597014927007
2020-09-29,0.2622950819672299
2020-09-30,0.46428571428571536
2020-10-09,0.23148148148150005
2020-10-12,0.378151260504236
2020-10-13,0.4285714285714441
2020-10-14,0.4639175257731715
2020-10-15,0.20408163265305648
2020-10-16,0.45945945945933103
2020-10-19,0.24137931034465254
2020-10-20,0.4333333333331919
2020-10-21,0.4561403508771438
2020-10-22,0.6341463414633943
2020-10-23,0.2790697674419422
2020-10-26,0.20000000000005694
2020-10-27,0.05882352941174475
2020-10-28,0.33802816901408655
2020-10-29,0.4714285714285982
2020-10-30,0.6818181818181878
2020-11-02,1.0
2020-11-03,0.8714285714285546
2020-11-04,0.5555555555554984
2020-11-05,0.4492753623187969
2020-11-06,0.29687499999990946
2020-11-09,0.0
2020-11-10,0.38709677419354926
2020-11-11,0.4800000000000838
2020-11-12,0.433734939759058
2020-11-13,0.6261682242991292
2020-11-16,0.8000000000000541
2020-11-17,0.39215686274518496
2020-11-18,0.5210084033613516
2020-11-19,0.6160714285714505
2020-11-20,0.517114961602272
2020-11-23,0.42570532988170645
2020-11-24,0.8776637866738739
2020-11-25,0.8341793854636462
2020-11-26,0.7794080969824053
2020-11-27,0.40098132889472976
2020-11-30,0.7164327758013455
2020-12-01,0.7092014721128335
2020-12-02,0.500122672824381
2020-12-03,0.533980582524239
2020-12-04,0.567010309278389
2020-12-07,0.18681318681317644
2020-12-08,0.06185567010305171
2020-12-09,0.21686746987944863
2020-12-10,0.1333333333333036
2020-12-11,0.19480519480510944
2020-12-14,0.26785714285702794
2020-12-15,0.4285714285713411
2020-12-16,0.1428571428570847
2020-12-17,0.45238095238085824
2020-12-18,0.41025641025637055
2020-12-21,0.6666666666666138
2020-12-22,0.6571428571427987
2020-12-23,0.9583333333334277
2020-12-24,0.769230769231395
2020-12-25,0.8750000000003572
2020-12-28,0.8333333333337829
2020-12-29,0.5200000000000732
2020-12-30,0.6666666666667531
2020-12-31,0.839285714285616
2021-01-04,0.5806451612902557
2021-01-05,0.6060606060605577
2021-01-06,0.7571428571428915
2021-01-07,0.619718309859117
2021-01-08,0.28787878787892496
2021-01-11,0.4444444444445797
2021-01-12,0.3877551020408317
2021-01-13,0.30232558139516486
2021-01-14,0.7674418604651477
2021-01-15,1.0
2021-01-18,0.9642857142857211
2021-01-19,0.8000000000000113
2021-01-20,0.682242990654224
2021-01-21,0.19801980198024222
2021-01-22,0.0
2021-01-25,0.05050505050497145
2021-01-26,0.23762376237617938
2021-01-27,0.3699999999999501
2021-01-28,0.7333333333332254
2021-01-29,1.0
2021-02-01,1.0
2021-02-02,0.7058823529412434
2021-02-03,0.6428571428572303
2021-02-04,0.5918367346940131
2021-02-05,0.017241379310500664
2021-02-08,0.049999999999940085
2021-02-09,0.17777777777764747
2021-02-10,0.12727272727261188
2021-02-18,0.2258064516128644
2021-02-19,0.4528031653123647
2021-02-22,0.4716437231625252
2021-02-23,0.5315804795576795
2021-02-24,0.5476601770117032
2021-02-25,0.23462296764967228
2021-02-26,0.3619429343945493
2021-03-01,0.24039077828399927
2021-03-02,0.11328646450400305
2021-03-03,0.3756428854015473
2021-03-04,0.5625000000000185
2021-03-05,0.666666666666742
2021-03-08,0.9402985074626803
2021-03-09,1.0
2021-03-10,0.9454545454544607
2021-03-11,0.9499999999999192
2021-03-12,0.48611111111095007
2021-03-15,0.20895522388045815
2021-03-16,0.06329113924046238
2021-03-17,0.05102040816323199
2021-03-18,0.0
2021-03-19,0.1200000000000243
2021-03-22,0.1666666666666904
2021-03-23,0.2380952380952348
2021-03-24,0.5000000000000709
2021-03-25,0.6666666666662868
2021-03-26,0.0357142857142384
2021-03-29,0.0
2021-03-30,0.4000000000001253
2021-03-31,0.5081967213116048
2021-04-01,0.5409836065574927
2021-04-02,0.8800000000000866
2021-04-06,0.9999999999999355
2021-04-07,0.7741935483868571
2021-04-08,0.48148148148113784
2021-04-09,0.48148148148141107
2021-04-12,0.39130434782613005
2021-04-13,0.6111111111110759
2021-04-14,0.4782608695652819
2021-04-15,0.5116279069768935
2021-04-16,0.434782608695671
2021-04-19,0.4090909090908855
2021-04-20,0.08928571428566073
2021-04-21,0.27659574468079173
2021-04-22,0.3023255813951933
2021-04-23,0.3749999999997598
2021-04-26,0.1960784313724199
2021-04-27,0.6521739130433303
2021-04-28,0.5365853658534366
2021-04-29,0.6415094339622236
2021-04-30,0.7397260273972747
2021-05-06,0.9523809523808878
2021-05-07,0.8333333333333036
2021-05-10,0.9107142857143247
2021-05-11,0.8958333333333629
2021-05-12,0.5999999999999348
2021-05-13,0.5483870967740807
2021-05-14,0.5312499999999138
2021-05-17,0.2727272727268847
2021-05-18,0.0571428571427826
2021-05-19,0.06249999999992752
2021-05-20,0.28825876318035204
2021-05-21,0.5319609967496408
2021-05-24,0.584878048780542
2021-05-25,0.8709656586531174
2021-05-26,0.9550492174774781
2021-05-27,0.5314633150835084
2021-05-28,0.2630666965420073
2021-05-31,0.34064847237440454
2021-06-01,0.2003678474114561
2021-06-02,0.3731343283582917
2021-06-03,0.5869565217392778
2021-06-04,0.8679245283019807
2021-06-07,0.59322033898316
2021-06-08,0.6792452830188971
2021-06-09,0.34920634920633503
2021-06-10,0.30303030303027173
2021-06-11,0.016666666666589416
2021-06-15,0.08695652173909296
2021-06-16,0.06666666666678422
2021-06-17,0.2500000000001771
2021-06-18,0.6904761904762098
2021-06-21,0.9666666666667332
2021-06-22,0.7027027027026822
2021-06-23,0.6499999999999612
2021-06-24,0.6956521739130275
2021-06-25,0.20930232558144282
2021-06-28,0.3888888888889005
2021-06-29,0.4666666666667296
2021-06-30,0.5714285714286375
2021-07-01,0.49999999999996636
2021-07-02,0.8400000000000272
2021-07-05,0.25714285714274376
2021-07-06,0.2571428571427229
2021-07-07,0.4799999999998934
2021-07-08,0.543859649122751
2021-07-09,0.6933333333332964
2021-07-12,0.9886363636363522
2021-07-13,0.9886363636363525
2021-07-14,0.902777777777761
2021-07-15,0.7777777777777954
2021-07-16,0.5645161290322513
2021-07-19,0.0
2021-07-20,0.130434782608701
2021-07-21,0.12162162162162783
2021-07-22,0.1267605633802986
2021-07-23,0.21538461538464154
2021-07-26,0.5405405405407374
2021-07-27,0.7951807228916709
2021-07-28,0.9200000000001044
2021-07-29,0.9452054794520058
2021-07-30,0.9487179487179058
2021-08-02,0.9587628865978972
2021-08-03,0.40860215053755766
2021-08-04,0.33980582524268793
2021-08-05,0.39047619047617554
2021-08-06,0.2583333333332886
2021-08-09,0.1359223300970569
2021-08-10,0.5476190476190129
2021-08-11,0.6527777777777509
2021-08-12,0.6119402985074495
2021-08-13,0.9841269841270129
2021-08-16,0.7297297297297951
2021-08-17,0.29729729729736365
2021-08-18,0.5485508004829508
2021-08-19,0.5687809191651886
2021-08-20,0.452828365568307
2021-08-23,0.48145633824626194
2021-08-24,0.660733604492916
2021-08-25,0.07050747362770433
2021-08-26,0.018286147409032262
2021-08-27,0.01730349022627168
2021-08-30,0.290761232155356
2021-08-31,0.33333333333334997
2021-09-01,0.8181818181818589
2021-09-02,0.6603773584905337
2021-09-03,0.6862745098038356
2021-09-06,0.3749999999999337
2021-09-07,0.4230769230769274
2021-09-08,0.08333333333341576
2021-09-09,0.1176470588235196
2021-09-10,0.41791044776121794
2021-09-13,0.6875000000000353
2021-09-14,0.5882352941175941
2021-09-15,0.8765432098764462
2021-09-16,0.864197530864148
2021-09-17,0.6315789473683702
2021-09-22,0.23595505617974488
2021-09-23,0.37634408602153874
2021-09-24,0.14893617021282232
2021-09-27,0.22549019607849688
2021-09-28,0.2705882352941948
2021-09-29,0.6507936507937376
2021-09-30,0.5400000000000553
2021-10-08,0.9705882352940589
2021-10-11,0.9729729729729172
2021-10-12,0.9743589743589242
2021-10-13,0.909090909090862
2021-10-14,0.6666666666667922
2021-10-15,0.743589743589857
2021-10-18,0.4146341463415912
2021-10-19,0.5384615384615469
2021-10-20,0.5090909090909045
2021-10-21,0.595744680851042
2021-10-22,0.2499999999998778
2021-10-25,0.3249999999997952
2021-10-26,0.0
2021-10-27,0.0
2021-10-28,0.06382978723398092
2021-10-29,0.3513513513514342
2021-11-01,0.5849056603773928
2021-11-02,0.8596491228069304
2021-11-03,1.0
2021-11-04,0.8524590163935125
2021-11-05,0.7500000000000124
2021-11-08,0.5106382978723941
2021-11-09,0.1395348837211107
2021-11-10,0.0
2021-11-11,0.0
2021-11-12,0.0
2021-11-15,0.03333333333349017
2021-11-16,0.0625000000002425
2021-11-17,0.07142857142884497
2021-11-18,0.05263157894761868
2021-11-19,0.7952585879169325
2021-11-22,0.6678255821241085
2021-11-23,0.6014735591206296
2021-11-24,0.7475880706780758
2021-11-25,0.8167517996612254
2021-11-26,0.38440993435417015
2021-11-29,0.40428794183293953
2021-11-30,0.49165178958312555
2021-12-01,0.1512624553119485
2021-12-02,0.43037974683546304
2021-12-03,0.6428571428571502
2021-12-06,0.7037037037037812
2021-12-07,0.7377049180328111
2021-12-08,1.0
2021-12-09,0.7999999999998647
2021-12-10,0.5806451612901928
2021-12-13,0.6060606060604865
2021-12-14,0.2857142857141561
2021-12-15,0.3548387096775898
2021-12-16,0.23913043478278082
2021-12-17,0.4600000000001572
2021-12-20,0.4807692307694303
2021-12-21,0.47169811320782273
2021-12-22,0.42857142857160985
2021-12-23,0.7575757575759291
2021-12-24,0.5200000000000589
2021-12-27,0.33333333333293
2021-12-28,0.5714285714277357
2021-12-29,0.17241379310316993
2021-12-30,0.46666666666656204
2021-12-31,0.5348837209300826
2022-01-04,0.5000000000000309
2022-01-05,0.4888888888888915
2022-01-06,0.7857142857144082
2022-01-07,0.06451612903216075
2022-01-10,0.0
2022-01-11,0.16666666666662747
2022-01-12,0.15384615384614278
2022-01-13,0.2558139534882896
2022-01-14,0.6538461538462624
2022-01-17,0.9032258064517215
2022-01-18,0.9482758620690243
2022-01-19,1.0
2022-01-20,0.9344262295082122
2022-01-21,0.9411764705882453
2022-01-24,0.913793103448329
2022-01-25,0.32786885245900105
2022-01-26,0.3387096774193694
2022-01-27,0.5256410256410754
2022-01-28,0.5066666666667405
2022-02-07,0.6086956521739237
2022-02-08,0.9655172413792701
2022-02-09,0.6956521739129794
2022-02-10,0.41176470588227465
2022-02-11,0.28571428571413854
2022-02-14,0.0
2022-02-15,0.0
2022-02-16,0.32360393179248126
2022-02-17,0.6203666824437288
2022-02-18,0.6451765099238842
2022-02-21,0.8986628876586158
2022-02-22,0.964579672728321
2022-02-23,0.799113803681379
2022-02-24,0.6488254461628297
2022-02-25,0.5872464533535968
2022-02-28,0.1894736842104882
2022-03-01,0.0
2022-03-02,0.0
2022-03-03,0.2771084337350727
2022-03-04,0.3506493506494979
2022-03-07,0.9452054794522062
2022-03-08,0.831325301204862
2022-03-09,0.8888888888888542
2022-03-10,0.7386363636362836
2022-03-11,0.8678160919539826
2022-03-14,0.7124183006535476
2022-03-15,0.8333333333333119
2022-03-16,0.8577586206896421
2022-03-17,0.876651982378857
2022-03-18,0.4866071428571556
2022-03-21,0.5023041474654409
2022-03-22,0.23144104803494867
2022-03-23,0.0
2022-03-24,0.03797468354429808
2022-03-25,0.05487804878048015
2022-03-28,0.134969325153395
2022-03-29,0.2551020408163484
2022-03-30,0.6666666666666666
2022-03-31,0.4634146341462545
2022-04-01,0.7575757575755766
2022-04-06,0.3870967741932027
2022-04-07,0.4999999999997405
2022-04-08,0.432432432432307
2022-04-11,0.674999999999942
2022-04-12,0.8659793814432749
2022-04-13,0.9333333333334439
2022-04-14,0.8409090909092103
2022-04-15,0.872340425532008
2022-04-18,0.724489795918483
2022-04-19,0.08421052631580808
2022-04-20,0.18627450980391108
2022-04-21,0.18811881188116467
2022-04-22,0.10891089108907485
2022-04-25,0.12790697674416557
2022-04-26,0.2749999999999263
2022-04-27,6.235057553921996e-14
2022-04-28,0.05000000000006308
2022-04-29,0.05405405405412778
2022-05-05,0.04878048780487966
2022-05-06,0.3421052631579805
2022-05-09,0.689655172413887
2022-05-10,0.6000000000001314
2022-05-11,0.6428571428572145
2022-05-12,0.7777777777778356
2022-05-13,0.555555555555451
2022-05-16,0.6363636363634265
2022-05-17,0.7499999999997182
2022-05-18,0.9006030889921701
2022-05-19,0.9316730200779548
2022-05-20,0.6782772353514768
2022-05-23,0.3451817340819707
2022-05-24,0.33198461824257125
2022-05-25,0.21765171086621543
2022-05-26,0.001403131580250652
2022-05-27,0.12384068914013587
2022-05-30,0.21971478225278196
2022-05-31,0.5813953488369604
2022-06-01,0.8749999999996668
2022-06-02,0.9210526315788351
2022-06-06,0.9285714285713287
2022-06-07,0.9423076923077558
2022-06-08,0.604166666666713
2022-06-09,0.5681818181818458
2022-06-10,0.5434782608695268
2022-06-13,0.3404255319148532
2022-06-14,0.13636363636369142
2022-06-15,0.3888888888889194
2022-06-16,0.15999999999994413
2022-06-17,0.16666666666661814
2022-06-20,0.2857142857141904
2022-06-21,0.315789473684063
2022-06-22,0.09302325581388216
2022-06-23,0.45714285714277
2022-06-24,0.6190476190476191
2022-06-27,0.6734693877551581
2022-06-28,0.8142857142857367
2022-06-29,1.0
2022-06-30,1.0
2022-07-01,0.8939393939393405
2022-07-04,0.8970588235293505
2022-07-05,0.8727272727272032
2022-07-06,0.7358490566037625
2022-07-07,0.45283018867919755
2022-07-08,0.5106382978723709
2022-07-11,0.2291666666666802
2022-07-12,0.0
2022-07-13,0.0
2022-07-14,0.0
2022-07-15,0.03846153846153629
2022-07-18,0.03921568627450539
2022-07-19,0.058823529411764566
2022-07-20,0.2250000000000156
2022-07-21,0.27272727272722613
2022-07-22,0.17073170731704973
2022-07-25,0.3999999999998717
2022-07-26,0.6666666666665367
2022-07-27,0.48571428571416675
2022-07-28,0.6799999999999821
2022-07-29,0.8292682926828585
2022-08-01,0.6136363636364667
2022-08-02,0.42500000000002985
2022-08-03,0.7258064516129361
2022-08-04,0.7638888888889463
2022-08-05,0.8095238095238891
2022-08-08,0.9259259259259015
2022-08-09,1.0
2022-08-10,0.9090909090909594
2022-08-11,0.4583333333333155
2022-08-12,0.3499999999999837
2022-08-15,0.7033825146366427
2022-08-16,0.6871737351533429
2022-08-17,0.6319600921677135
2022-08-18,0.8123516994223405
2022-08-19,0.8107928836306192
2022-08-22,0.06763453305907105
2022-08-23,0.0012573330641818452
2022-08-24,0.0014502828323695205
2022-08-25,0.001481276882903043
2022-08-26,0.0
2022-08-29,0.0
2022-08-30,0.25000000000020944
2022-08-31,0.2777777777779159
2022-09-01,0.6250000000001523
2022-09-02,0.941176470588327
2022-09-05,0.653061224489818
2022-09-06,0.5624999999999928
2022-09-07,0.5918367346938207
2022-09-08,0.24561403508764548
2022-09-09,0.23214285714281896
2022-09-13,0.2954545454545196
2022-09-14,0.2954545454545195
2022-09-15,0.38000000000012507
2022-09-16,0.8048780487805143
2022-09-19,0.46808510638298245
2022-09-20,0.5531914893616958
2022-09-21,0.5777777777777682
2022-09-22,0.3529411764705336
2022-09-23,0.09302325581394134
2022-09-26,0.5217391304348091
2022-09-27,0.5600000000000425
2022-09-28,0.5918367346938671
2022-09-29,0.9104477611939956
2022-09-30,1.0
2022-10-10,0.8441558441557887
2022-10-11,0.8356164383560943
2022-10-12,0.8947368421052246
2022-10-13,0.6363636363636226
2022-10-14,0.4893617021276306
2022-10-17,0.4693877551020407
2022-10-18,0.4077669902912782
2022-10-19,0.0
2022-10-20,0.0749999999999677
2022-10-21,0.073170731707288
2022-10-24,0.2941176470588564
2022-10-25,0.38554216867473246
2022-10-26,0.7959183673470075
2022-10-27,0.6734693877552729
2022-10-28,0.8536585365854918
2022-10-31,0.533333333333439
2022-11-01,0.30000000000004634
2022-11-02,0.2222222222219925
2022-11-03,0.3749999999996509
2022-11-04,0.29166666666643887
2022-11-07,0.30434782608654454
2022-11-08,0.608695652173454
2022-11-09,0.3124999999997109
2022-11-10,0.2903225806450567
2022-11-11,0.8039215686273516
2022-11-14,0.8934426229508041
2022-11-15,0.8984374999999848
2022-11-16,1.0
2022-11-17,1.0
2022-11-18,0.8708172031113022
2022-11-21,0.8397439561816967
2022-11-22,0.7971811436456543
2022-11-23,0.39384069051250353
2022-11-24,0.0
2022-11-25,0.0520674583618408
2022-11-28,0.21915337258314235
2022-11-29,0.39186995471060265
2022-11-30,0.5526404595225498
2022-12-01,1.0
2022-12-02,0.6971830985915556
2022-12-05,0.46405228758172085
2022-12-06,0.20833333333334936
2022-12-07,0.3631284916200784
2022-12-08,0.2187499999999778
2022-12-09,0.279999999999976
2022-12-12,0.4574468085106144
2022-12-13,0.7164179104477476
2022-12-14,0.2549019607843501
2022-12-15,0.270833333333419
2022-12-16,0.43750000000007605
2022-12-19,0.35714285714288563
2022-12-20,0.20833333333332857
2022-12-21,0.22727272727275322
2022-12-22,0.21739130434782875
2022-12-23,0.051282051282033274
2022-12-26,0.0
2022-12-27,0.25641025641027265
2022-12-28,0.20833333333331874
2022-12-29,0.22727272727268988
2022-12-30,0.1886792452829426
2023-01-03,0.18181818181807613
2023-01-04,0.0
2023-01-05,0.0
2023-01-06,0.24999999999999986
2023-01-09,0.3095238095238126
2023-01-10,0.3333333333333806
2023-01-11,0.7499999999998842
2023-01-12,0.9000000000000966
2023-01-13,0.2500000000000349
2023-01-16,0.5945945945945843
2023-01-17,0.4489795918366989
2023-01-18,0.3863636363637411
2023-01-19,0.5090909090908753
2023-01-20,0.7358490566037608
2023-01-30,0.740740740740737
2023-01-31,1.0
2023-02-01,0.7746478873239722
2023-02-02,0.6567164179104977
2023-02-03,0.4852941176470919
2023-02-06,0.18518518518520422
2023-02-07,0.0
2023-02-08,0.0
2023-02-09,0.09433962264137793
2023-02-10,0.21739130434779713
2023-02-13,0.41666666666662805
2023-02-14,0.41666666666662805
2023-02-15,0.600000000000148
2023-02-16,0.7446808510639831
2023-02-17,0.6666666666667079
2023-02-20,0.9108053135122105
2023-02-21,0.9407642592976648
2023-02-22,0.831774033389149
2023-02-23,0.44716499606381654
2023-02-24,0.48349782019523485
2023-02-27,0.03153856090560348
2023-02-28,0.18142125291245312
2023-03-01,0.2315830338078402
2023-03-02,0.4639510345771726
2023-03-03,0.516666666666564
2023-03-06,0.9393939393938855
2023-03-07,0.5757575757574412
2023-03-08,0.4999999999998706
2023-03-09,0.25806451612898357
2023-03-10,0.0
2023-03-13,0.1538461538464209
2023-03-14,0.17142857142889845
2023-03-15,0.2285714285717329
2023-03-16,0.41176470588263964
2023-03-17,0.7142857142857566
2023-03-20,0.6086956521736469
2023-03-21,0.9473684210523411
2023-03-22,0.7619047619043988
2023-03-23,0.3703703703699497
2023-03-24,0.319999999999863
2023-03-27,0.3199999999998982
2023-03-28,0.1333333333333948
2023-03-29,0.1538461538461866
2023-03-30,0.67741935483852
2023-03-31,0.5862068965514907
2023-04-03,0.6764705882350958
2023-04-04,0.9199999999997653
2023-04-06,0.9444444444444356
2023-04-07,0.9411764705882351
2023-04-10,0.7804878048782328
2023-04-11,0.5531914893618683
2023-04-12,0.5416666666667338
2023-04-13,0.32608695652170655
2023-04-14,0.0
2023-04-17,0.0
2023-04-18,0.1590909090909705
2023-04-19,0.15555555555561973
2023-04-20,0.21621621621621426
2023-04-21,0.8749999999996332
2023-04-24,0.6666666666665787
2023-04-25,0.2799999999998144
2023-04-26,0.555555555555479
2023-04-27,0.5135135135135035
2023-04-28,0.2708333333333453
2023-05-04,0.4444444444444899
2023-05-05,0.7246376811594626
2023-05-08,0.6379310344828308
2023-05-09,0.5967741935484611
2023-05-10,0.8769230769231391
2023-05-11,0.8620689655173251
2023-05-12,0.41379310344837766
2023-05-15,0.4576271186441289
2023-05-16,0.593750000000023
2023-05-17,0.3603901862253141
2023-05-18,0.2985600940346093
2023-05-19,0.744135058101192
2023-05-22,0.7912144271366878
2023-05-23,0.7782127788968911
2023-05-24,0.7765352887256504
2023-05-25,0.6328315766697106
2023-05-26,0.6121818241176025
2023-05-29,0.5179955366198891
2023-05-30,0.21428571428571436
2023-05-31,0.4074074074074907
2023-06-01,0.6666666666667814
2023-06-02,0.8857142857143193
2023-06-05,0.7407407407407799
2023-06-06,0.8108108108107616
2023-06-07,0.7638888888888549
2023-06-08,0.7571428571428487
2023-06-09,0.06521739130447539
2023-06-12,0.1176470588237628
2023-06-13,0.3409090909093002
2023-06-14,0.5272727272728777
2023-06-15,0.6285714285714882
2023-06-16,1.0
2023-06-19,1.0
2023-06-20,0.8749999999999262
2023-06-21,0.5833333333332913
2023-06-26,0.2428571428570823
2023-06-27,0.12631578947362296
2023-06-28,0.0
2023-06-29,0.0849056603773718
2023-06-30,0.19387755102037918
2023-07-03,0.3199999999999485
2023-07-04,0.7469879518072285
2023-07-05,1.0
2023-07-06,0.7941176470588713
2023-07-07,0.6376811594203662
2023-07-10,0.6666666666667523
2023-07-11,0.1481481481481973
2023-07-12,0.135802469135821
2023-07-13,0.15714285714286338
2023-07-14,0.4545454545454034
2023-07-17,0.39240506329107555
2023-07-18,0.8918918918918094
2023-07-19,0.9166666666665904
2023-07-20,1.0
2023-07-21,0.12500000000032307
2023-07-24,0.04347826086980271
2023-07-25,0.3714285714286154
2023-07-26,0.5111111111110982
2023-07-27,0.5599999999999371
2023-07-28,0.8095238095237798
2023-07-31,1.0
2023-08-01,0.6666666666665931
2023-08-02,0.3797468354429695
2023-08-03,0.256410256410231
2023-08-04,0.2839506172839066
2023-08-07,0.17241379310344934
2023-08-08,0.21739130434784693
2023-08-09,0.34782608695660516
2023-08-10,0.37209302325595706
2023-08-11,0.01666666666671809
2023-08-14,0.18181818181819562
2023-08-15,0.5421686746988065
2023-08-16,0.5632183908045584
2023-08-17,0.6701030927834681
2023-08-18,1.0
2023-08-21,1.0
2023-08-22,0.5266375231803587
2023-08-23,0.49117530668783216
2023-08-24,0.19298015134232488
2023-08-25,0.44101126151596715
2023-08-28,0.5129221094029458
2023-08-29,0.824177472448822
2023-08-30,0.860274393905752
2023-08-31,1.0
2023-09-01,1.0
2023-09-04,0.7222222222222562
2023-09-05,0.43333333333337826
2023-09-06,0.28169014084508953
2023-09-07,0.3200000000000952
2023-09-08,0.21333333333338356
2023-09-11,0.46031746031746085
2023-09-12,0.8000000000000278
2023-09-13,0.4912280701754428
2023-09-14,0.36956521739123155
2023-09-15,0.4249999999998347
2023-09-18,0.11764705882346331
2023-09-19,0.024999999999986363
2023-09-20,0.09999999999994545
2023-09-21,0.03703703703701459
2023-09-22,0.03703703703701835
2023-09-25,0.3870967741933765
2023-09-26,0.6774193548385551
2023-09-27,0.5405405405404017
2023-09-28,0.645161290322446
2023-10-09,0.5128205128205439
2023-10-10,0.18750000000007547
2023-10-11,0.23529411764698258
2023-10-12,0.4920634920634727
2023-10-13,0.4920634920634297
2023-10-16,0.6393442622949902
2023-10-17,0.9555555555554579
2023-10-18,0.65957446808513
2023-10-19,0.4482758620690995
2023-10-20,0.7586206896552851
2023-10-23,0.5901639344263262
2023-10-24,0.5967741935484601
2023-10-25,0.8804347826086846
2023-10-26,0.7547169811321116
2023-10-27,0.4851485148514933
2023-10-30,0.549450549450583
2023-10-31,0.5000000000000459
2023-11-01,0.011494252873589331
2023-11-02,0.013157894736869668
2023-11-03,0.016393442622984748
2023-11-06,0.0
2023-11-07,0.0
2023-11-08,0.5142857142854268
2023-11-09,0.4999999999997707
2023-11-10,0.794117647058552
2023-11-13,0.8529411764704167
2023-11-14,0.8863636363635055
2023-11-15,0.5675675675674531
2023-11-16,0.725000000000014
2023-11-17,0.512820512820576
2023-11-20,0.6122448979592331
2023-11-21,0.42553191489363573
2023-11-22,0.4650102107950736
2023-11-23,0.33316631356509036
2023-11-24,0.529005967024171
2023-11-27,0.21381364772436212
2023-11-28,0.22166576847779418
2023-11-29,0.36291871037879114
2023-11-30,0.43418132986611724
2023-12-01,0.16650601228606593
2023-12-04,0.41648957907655093
2023-12-05,0.7083333333335913
2023-12-06,0.5555555555558502
2023-12-07,0.707317073170938
2023-12-08,0.8571428571429359
2023-12-11,0.5454545454546024
2023-12-12,0.38636363636365195
2023-12-13,0.47619047619042615
2023-12-14,0.2903225806449119
2023-12-15,0.43589743589731095
2023-12-18,0.7666666666666361
2023-12-19,1.0
2023-12-20,0.96000000000019
2023-12-21,0.9523809523811965
2023-12-22,0.7857142857147925
2023-12-25,0.8421052631582618
2023-12-26,0.8695652173915082
2023-12-27,0.9310344827586439
2023-12-28,0.9333333333333337
2023-12-29,0.7999999999998424
2024-01-02,0.7199999999996474
2024-01-03,0.730769230769023
2024-01-04,0.3529411764703646
2024-01-05,0.19607843137249203
2024-01-08,0.34615384615378725
2024-01-09,0.26153846153844923
2024-01-10,0.10389610389607834
2024-01-11,0.36470588235289214
2024-01-12,0.4927536231882995
2024-01-15,0.4852941176469439
2024-01-16,0.5499999999999129
2024-01-17,0.8636363636363354
2024-01-18,0.4545454545453558
2024-01-19,0.3157894736841912
2024-01-22,0.14285714285714274
2024-01-23,0.3142857142857995
2024-01-24,0.16666666666674307
2024-01-25,0.3333333333334694
2024-01-26,0.4090909090911424
2024-01-29,0.40909090909109114
2024-01-30,0.1666666666668964
2024-01-31,0.7692307692311222
2024-02-01,0.5869565217392878
2024-02-02,0.5869565217392175
2024-02-05,0.7058823529412241
2024-02-06,0.816901408450601
2024-02-07,0.5344827586205072
2024-02-08,0.7424242424242253
2024-02-19,0.8181818181818117
2024-02-20,0.7605633802817573
2024-02-21,0.5074436049692372
2024-02-22,0.6779977175962137
2024-02-23,0.5376029168833857
2024-02-26,0.28396571579979163
2024-02-27,0.6368721740384733
2024-02-28,0.9251364178805304
2024-02-29,0.5975063670201475
2024-03-01,0.7192497840419767
2024-03-04,0.5927667956441443
2024-03-05,0.28813559322023835
2024-03-06,0.34426229508183004
2024-03-07,0.7142857142856782
2024-03-08,0.5353535353535275
2024-03-11,0.6785714285714259
2024-03-12,0.8217821782178334
2024-03-13,0.8448275862069022
2024-03-14,0.43749999999999534
2024-03-15,0.4666666666666579
2024-03-18,0.2988505747125963
2024-03-19,0.21348314606735833
2024-03-20,0.0
2024-03-21,0.24637681159416286
2024-03-22,0.5060240963855586
2024-03-25,0.48837209302331924
2024-03-26,0.5000000000000657
2024-03-27,0.779411764705932
2024-03-28,0.4736842105263731
2024-03-29,0.23076923076931263
2024-04-01,0.3846153846153642
2024-04-02,0.4255319148935669
2024-04-03,0.19148936170204653
2024-04-08,0.6486486486485259
2024-04-09,0.36507936507926136
2024-04-10,0.2542372881355576
2024-04-11,0.3823529411764397
2024-04-12,0.44827586206896547
2024-04-15,0.25000000000003136
2024-04-16,0.500000000000251
2024-04-17,0.31428571428583807
2024-04-18,0.31428571428594626
2024-04-19,0.3055555555557324
2024-04-22,0.23913043478270013
2024-04-23,0.2682926829269098
2024-04-24,0.6176470588234603
2024-04-25,0.27777777777763707
2024-04-26,0.6999999999999172
2024-04-29,0.863157894736792
2024-04-30,0.8773584905659952
2024-05-06,0.8818181818181495
2024-05-07,0.9603960396039911
2024-05-08,0.51000000000004
2024-05-09,0.26315789473688334
2024-05-10,0.1590909090909419
2024-05-13,0.0
2024-05-14,0.011764705882317998
2024-05-15,0.09302325581397607
2024-05-16,0.18181818181819362
2024-05-17,0.22222222222223953
2024-05-20,0.8000000000009936
2024-05-21,0.4288973699502468
2024-05-22,0.0
2024-05-23,0.0
2024-05-24,0.0
2024-05-27,0.0
2024-05-28,0.0
2024-05-29,0.0
2024-05-30,0.1766137433608113
2024-05-31,0.5296226431199511
2024-06-03,0.928571428571457
2024-06-04,0.619047619047719
2024-06-05,0.5909090909091935
2024-06-06,0.4761904761908012
2024-06-07,0.14285714285726936
2024-06-11,0.0
2024-06-12,0.264705882352984
2024-06-13,0.29411764705881394
2024-06-14,0.3333333333331384
2024-06-17,0.6666666666665646
2024-06-18,1.0
2024-06-19,1.0
2024-06-20,0.7600000000003884
2024-06-21,0.7857142857146164
2024-06-24,0.8000000000002391
2024-06-25,0.636363636363758
2024-06-26,0.3095238095236234
2024-06-27,0.5576923076920375
2024-06-28,0.4807692307691421
2024-07-01,0.6707317073171187
2024-07-02,0.7920792079208284
2024-07-03,0.9587628865980674
2024-07-04,0.8279569892474978
2024-07-05,0.8709677419355497
2024-07-08,0.4719101123595126
2024-07-09,0.20238095238092024
2024-07-10,0.050632911392382705
2024-07-11,0.057971014492723134
2024-07-12,0.0
2024-07-15,0.0
2024-07-16,0.18421052631603965
2024-07-17,0.2580645161291184
2024-07-18,0.3636363636363029
2024-07-19,0.5294117647057153
2024-07-22,1.0
2024-07-23,0.8571428571427332
2024-07-24,0.707317073170625
2024-07-25,0.7551020408162702
2024-07-26,0.6326530612244186
2024-07-29,0.21428571428570387
2024-07-30,0.235294117647059
2024-07-31,0.38461538461541733
2024-08-01,0.31914893617029266
2024-08-02,0.5517241379311033
2024-08-05,1.0
2024-08-06,1.0
2024-08-07,1.0
2024-08-08,1.0
2024-08-09,0.7966101694915253
2024-08-12,0.7647058823529282
2024-08-13,0.40909090909065804
2024-08-14,0.6578947368420095
2024-08-15,0.7291666666665516
2024-08-16,0.9736842105261687
2024-08-19,0.6383596920751581
2024-08-20,0.4054579079055311
2024-08-21,0.4360531929333216
2024-08-22,0.250157536165572
2024-08-23,0.3237265415549431
2024-08-26,0.4177832104660943
2024-08-27,0.6837054736672422
2024-08-28,0.41782368175471785
2024-08-29,0.6440995800634871
2024-08-30,0.5624999999999999
2024-09-02,0.6379310344827815
2024-09-03,0.4772727272727673
2024-09-04,0.7241379310347122
2024-09-05,0.7142857142860521
2024-09-06,0.5428571428572624
2024-09-09,0.08888888888898704
2024-09-10,0.09090909090917075
2024-09-11,0.08888888888894347
2024-09-12,0.08888888888888732
2024-09-13,0.1750000000000517
2024-09-18,0.7142857142854049
2024-09-19,0.79999999999989
2024-09-20,1.0
2024-09-23,0.9032258064515617
2024-09-24,0.9629629629629316
2024-09-25,0.9696969696969462
2024-09-26,0.9696969696969454
2024-09-27,0.9879032258064407
2024-09-30,1.0
2024-10-08,1.0
2024-10-09,1.0
2024-10-10,0.9670781893003803
2024-10-11,0.3565217391304128
2024-10-14,0.20087336244538218
2024-10-15,0.010676156583591638
2024-10-16,0.0
2024-10-17,0.038709677419374616
2024-10-18,0.13186813186815569
2024-10-21,0.15584415584418118
2024-10-22,0.5070422535211339
2024-10-23,0.8571428571428248
2024-10-24,0.545454545454445
2024-10-25,0.22222222222215035
2024-10-28,0.23999999999995147
2024-10-29,0.07058823529410048
2024-10-30,0.0
2024-10-31,0.0
2024-11-01,0.2702702702703014
2024-11-04,0.24096385542167034
2024-11-05,0.3787878787877674
2024-11-06,0.571428571428438
2024-11-07,0.7872340425530382
2024-11-08,0.6774193548384547
2024-11-11,1.0
2024-11-12,1.0
2024-11-13,0.7812499999999836
2024-11-14,0.6666666666667582
2024-11-15,0.47058823529417954
2024-11-18,0.45454545454541684
2024-11-19,0.37931034482741244
2024-11-20,0.5416666666665373
2024-11-21,0.7948717948717061
2024-11-22,1.0
2024-11-25,1.0
2024-11-26,0.8474562622054973
2024-11-27,0.8708231042008987
2024-11-28,0.4686156491831994
2024-11-29,0.46808552258362196
2024-12-02,0.5592761574429389
2024-12-03,0.6738308044063623
2024-12-04,0.4740708119020908
2024-12-05,0.5583960537518531
2024-12-06,0.40909090909077506
2024-12-09,0.06557377049173206
2024-12-10,0.2692307692307216
2024-12-11,0.3194444444443577
2024-12-12,0.46835443037969376
2024-12-13,0.5974025974025644
2024-12-16,1.0
2024-12-17,0.5205479452054742
2024-12-18,0.7033898305084775
2024-12-19,0.6634615384615423
2024-12-20,0.6499999999999917
2024-12-23,0.6428571428571329
2024-12-24,1.0
2024-12-25,0.5714285714286074
2024-12-26,0.6024096385542671
2024-12-27,0.5822784810127237
2024-12-30,0.5147058823530426
2024-12-31,0.10294117647064914
