date,FCT_Cr_Atr_Dfive
2014-02-28,
2014-03-03,
2014-03-04,
2014-03-05,
2014-03-06,
2014-03-07,
2014-03-10,
2014-03-11,
2014-03-12,
2014-03-13,
2014-03-14,0.08657704821057781
2014-03-17,0.04982821281751295
2014-03-18,-0.5509768734770732
2014-03-19,-0.03728331867855816
2014-03-20,0.159888705068429
2014-03-21,-0.021276206505424708
2014-03-24,-0.11037891268534929
2014-03-25,0.14651064254024382
2014-03-26,0.07540534397413601
2014-03-27,-0.006178169301668545
2014-03-28,0.0673658431433628
2014-03-31,0.11712427524858447
2014-04-01,0.07371114833427307
2014-04-02,-0.26901739830350657
2014-04-03,0.10167160539336467
2014-04-04,-0.046644657166094367
2014-04-08,0.0397662653437412
2014-04-09,-0.10519262981574891
2014-04-10,0.3112017015242826
2014-04-11,-0.0823893966617127
2014-04-14,-0.11200729163553834
2014-04-15,-0.07324959582142271
2014-04-16,-0.06153846153846426
2014-04-17,-0.08516483516484763
2014-04-18,-0.015438359251740525
2014-04-21,0.1068530991445417
2014-04-22,0.18971583511766196
2014-04-23,0.23028125277260642
2014-04-24,-0.04513343799056296
2014-04-25,0.2324556468852247
2014-04-28,-0.06728712765673553
2014-04-29,-0.2515337255138472
2014-04-30,-0.18727791828944843
2014-05-05,0.07314464247235636
2014-05-06,-0.4537722046540583
2014-05-07,0.1950498399396098
2014-05-08,0.08506545691446843
2014-05-09,0.21129636465016666
2014-05-12,-0.1523724575366584
2014-05-13,0.197650765689964
2014-05-14,-0.22794261088548295
2014-05-15,-0.07150959860384518
2014-05-16,-0.21341265824627842
2014-05-19,0.0749795413724796
2014-05-20,0.08433502273998525
2014-05-21,0.16334645822775554
2014-05-22,0.2741869918699279
2014-05-23,0.21443673138587804
2014-05-26,0.01968246356209611
2014-05-27,0.16375825488389334
2014-05-28,-0.11575962671852977
2014-05-29,-0.24122520843043374
2014-05-30,-0.18562928236566434
2014-06-03,-0.014489613865173117
2014-06-04,-0.38747077536315844
2014-06-05,0.06487438480819613
2014-06-06,-0.04826278678397532
2014-06-09,0.030937108886102564
2014-06-10,0.29958988818045795
2014-06-11,0.23817121547722764
2014-06-12,-0.02730555674502672
2014-06-13,0.20125990745407368
2014-06-16,0.06456489809240934
2014-06-17,-0.3386777375929827
2014-06-18,-0.06919973751698177
2014-06-19,-0.028122707199913
2014-06-20,-0.17008486811987317
2014-06-23,0.23350043459805053
2014-06-24,-0.10620101517650635
2014-06-25,-0.03060659563093567
2014-06-26,0.01997454289919406
2014-06-27,0.05515771004203506
2014-06-30,-0.5626564779134884
2014-07-01,0.47083661159192336
2014-07-02,0.3060795621151363
2014-07-03,0.01610653589545061
2014-07-04,0.019472129937234482
2014-07-07,0.3270610759434147
2014-07-08,-0.3918887660952458
2014-07-09,-0.30453828631504665
2014-07-10,-0.03708076435348629
2014-07-11,-0.06145308999558826
2014-07-14,-0.10333746594740136
2014-07-15,-0.008177601915373367
2014-07-16,-0.12196251258931293
2014-07-17,0.11692261004039674
2014-07-18,0.13612634768200538
2014-07-21,0.06548685488989292
2014-07-22,0.0459561602418744
2014-07-23,0.10957772198128307
2014-07-24,-0.2435521854877125
2014-07-25,-0.1053862591306921
2014-07-28,-0.00669829990362035
2014-07-29,0.06237816764133006
2014-07-30,-0.0948932436384865
2014-07-31,0.15886004514776675
2014-08-01,0.012912654910293352
2014-08-04,0.035317176886438456
2014-08-05,0.17052562526059778
2014-08-06,0.2268206511717138
2014-08-07,0.015986850605050902
2014-08-08,0.009157534029832753
2014-08-11,-0.013739624644490845
2014-08-12,-0.3743179343160691
2014-08-13,-0.1129236244310824
2014-08-14,0.03868656982048456
2014-08-15,-0.008845190448963163
2014-08-18,-0.0735552612773108
2014-08-19,0.14031558523084436
2014-08-20,0.06393081533905692
2014-08-21,-0.020737947751153375
2014-08-22,-0.1653628117913874
2014-08-25,0.07633610104081823
2014-08-26,0.1275075738966695
2014-08-27,-0.14610703575997308
2014-08-28,-0.1772165331352443
2014-08-29,0.25380227018762974
2014-09-01,0.030386955843337823
2014-09-02,-0.03861055935654573
2014-09-03,0.12294203969707448
2014-09-04,0.280248067182886
2014-09-05,0.03437800192120992
2014-09-09,-0.03208168577992005
2014-09-10,-0.06360545801703148
2014-09-11,0.017662482265676595
2014-09-12,-0.1022634258980088
2014-09-15,-0.21944925028834203
2014-09-16,-0.001494837637092468
2014-09-17,0.08495029855681928
2014-09-18,0.0003487186235545184
2014-09-19,-0.15844157455308142
2014-09-22,0.35686834413948815
2014-09-23,0.13200220373924565
2014-09-24,-0.08020342785147339
2014-09-25,0.04610198061525106
2014-09-26,0.17453873256263278
2014-09-29,-0.26899228398638186
2014-09-30,-0.26293950766206053
2014-10-08,0.10124785092340487
2014-10-09,-0.13759398496240804
2014-10-10,0.1822370830724213
2014-10-13,-0.0075397130905647605
2014-10-14,0.13913621367804696
2014-10-15,0.0701146211909394
2014-10-16,0.10941828254847791
2014-10-17,-0.16588461561083528
2014-10-20,-0.011204459591553504
2014-10-21,-0.021402988247584322
2014-10-22,-0.4075594734935393
2014-10-23,0.05601207186104119
2014-10-24,-0.2773919990716265
2014-10-27,-0.04665810249566889
2014-10-28,0.08959985162517477
2014-10-29,0.27838507646200306
2014-10-30,-0.29450303611377876
2014-10-31,0.2332952821062966
2014-11-03,0.16239944192121272
2014-11-04,-0.1323266235783108
2014-11-05,0.07295134443021939
2014-11-06,0.3049800072700861
2014-11-07,-0.11272443645530163
2014-11-10,-0.12476662671170055
2014-11-11,0.16715355375407645
2014-11-12,-0.18874536054069477
2014-11-13,-0.15711033308462136
2014-11-14,0.05356331731573863
2014-11-17,0.065427217173956
2014-11-18,-0.26690677693451614
2014-11-19,0.23331107026611891
2014-11-20,0.030638431184347704
2014-11-21,-0.03307836491371392
2014-11-24,0.0017353947251713096
2014-11-25,0.27563150506689094
2014-11-26,-0.2768548779359886
2014-11-27,-0.0007788539960562006
2014-11-28,0.2207766925967406
2014-12-01,0.024911038430253166
2014-12-02,-0.11864323339972153
2014-12-03,0.1708165349426022
2014-12-04,0.022432169126649325
2014-12-05,-0.21896441429017846
2014-12-08,-0.024264970501869987
2014-12-09,-0.1044046712363519
2014-12-10,-0.03739523333218579
2014-12-11,-0.021847392186376907
2014-12-12,0.12715245040629378
2014-12-15,0.19093111069427326
2014-12-16,0.08528825075582094
2014-12-17,0.09636626777806906
2014-12-18,0.053271148777841074
2014-12-19,-0.15563544913128327
2014-12-22,-0.4033290653008928
2014-12-23,-0.04912281155180273
2014-12-24,-0.21405825574207882
2014-12-25,-0.12895671721596863
2014-12-26,0.08563085989030769
2014-12-29,-0.00018115121597869766
2014-12-30,0.3211667507078834
2014-12-31,0.12818012048315672
2015-01-05,0.46647368479876483
2015-01-06,0.08023193599362724
2015-01-07,0.2592551021081884
2015-01-08,-0.3754808559235405
2015-01-09,0.08851861667991116
2015-01-12,-0.5732048506166747
2015-01-13,-0.09785756878779753
2015-01-14,-0.09435771228409387
2015-01-15,0.11222970332885086
2015-01-16,-0.3151512481997407
2015-01-19,0.17885562597794924
2015-01-20,0.04638731875153475
2015-01-21,0.023047982801209916
2015-01-22,0.07025853905528776
2015-01-23,0.1834390875486766
2015-01-26,0.05862267872427465
2015-01-27,-0.17325584030090763
2015-01-28,-0.03290483251783847
2015-01-29,-0.20608875128999068
2015-01-30,0.10145410145410028
2015-02-02,-0.174767540152155
2015-02-03,0.3676182781219175
2015-02-04,0.08177978987715172
2015-02-05,0.12021857923496822
2015-02-06,-0.0005111167901845071
2015-02-09,0.19051010717677697
2015-02-10,-0.33813706314352787
2015-02-11,-0.14759999315993844
2015-02-12,0.060473588342445005
2015-02-13,0.00358803986710432
2015-02-16,-0.01677402039721316
2015-02-17,0.17844187796558247
2015-02-25,0.2716431031749469
2015-02-26,0.0008488295383675196
2015-02-27,-0.10122641509433233
2015-03-02,0.09186698484760329
2015-03-03,-0.009751538614412733
2015-03-04,-0.2573816770323323
2015-03-05,0.037412533802621
2015-03-06,-0.058652250224167965
2015-03-09,-0.2623063683304653
2015-03-10,-0.15295498738296398
2015-03-11,0.05315001345856668
2015-03-12,0.14780919722761163
2015-03-13,0.1452992260661673
2015-03-16,0.22883088001694926
2015-03-17,0.17119660960464622
2015-03-18,0.12381172125591666
2015-03-19,-0.4269102826274419
2015-03-20,-0.0975014680909071
2015-03-23,-0.10139195427677909
2015-03-24,-1.910119060297144e-05
2015-03-25,-0.24017222949277317
2015-03-26,0.2268554242795315
2015-03-27,0.02131535710400937
2015-03-30,-0.10527620333560701
2015-03-31,-0.2367359212516758
2015-04-01,0.3848915914593827
2015-04-02,-0.13272094169352863
2015-04-03,0.31700647912167573
2015-04-07,0.0897420395002
2015-04-08,0.3472320971231535
2015-04-09,-0.35001708817498073
2015-04-10,0.1293893236836928
2015-04-13,-0.4885325955491093
2015-04-14,0.042144373673038776
2015-04-15,-0.3497350598308545
2015-04-16,0.3099276932649619
2015-04-17,0.09060384771421645
2015-04-20,0.15232496300406984
2015-04-21,-0.057514320278684264
2015-04-22,0.16539800008809843
2015-04-23,-0.3726122273111717
2015-04-24,-0.24654090064697615
2015-04-27,0.28364919138764144
2015-04-28,0.005926952697899567
2015-04-29,0.11748711805753671
2015-04-30,0.11185340305166838
2015-05-04,0.16553607821184227
2015-05-05,-0.4996849477496447
2015-05-06,0.14030215649610983
2015-05-07,-0.25303325888388517
2015-05-08,0.11848891181022422
2015-05-11,-0.047667625917003326
2015-05-12,0.3252904859145712
2015-05-13,-0.21014451990970034
2015-05-14,0.16728461159307967
2015-05-15,-0.0643625192012359
2015-05-18,-0.02276848313306313
2015-05-19,-0.13112749077291297
2015-05-20,0.32699258836189987
2015-05-21,0.09501679757849087
2015-05-22,0.03672646477946167
2015-05-25,-0.040899283386053045
2015-05-26,0.23426290030238334
2015-05-27,-0.398833357166693
2015-05-28,-0.21928494713292385
2015-05-29,-0.12769613833557475
2015-06-01,0.19917689241071546
2015-06-02,-0.3865350360068093
2015-06-03,0.2120732355972284
2015-06-04,0.13317825157671837
2015-06-05,0.157137173693502
2015-06-08,-0.17884780967971847
2015-06-09,0.11950923172104083
2015-06-10,0.04629257013456835
2015-06-11,-0.03540755824400395
2015-06-12,-0.06302083783729709
2015-06-15,0.05305928122534154
2015-06-16,0.407783417935702
2015-06-17,-0.06499756536866545
2015-06-18,-0.04034828183777131
2015-06-19,-0.004793036928767542
2015-06-23,0.007443465946808719
2015-06-24,-0.4978252922776527
2015-06-25,-0.22306761057973842
2015-06-26,0.0425596165835384
2015-06-29,0.3683527885862493
2015-06-30,-0.03342409548676134
2015-07-01,0.16585947014825256
2015-07-02,0.29645818959728965
2015-07-03,-0.0764868951612906
2015-07-06,-0.370563356454064
2015-07-07,0.23919799498746763
2015-07-08,0.01239488136327496
2015-07-09,0.1995951244912505
2015-07-10,0.19169421856849594
2015-07-13,-0.0688621036016694
2015-07-14,-0.3124078084298382
2015-07-15,0.01819365780180764
2015-07-16,-0.5245553314865078
2015-07-17,-0.2657301147605894
2015-07-20,-0.044321833064357774
2015-07-21,0.008866765186283043
2015-07-22,-0.01079459179312951
2015-07-23,0.10439708421862334
2015-07-24,0.33256695457652474
2015-07-27,0.414562515669198
2015-07-28,0.3366071991994863
2015-07-29,-0.01424891513266128
2015-07-30,0.19743674949319157
2015-07-31,-0.26752141020199116
2015-08-03,-0.3288671373555725
2015-08-04,-0.321205106623156
2015-08-05,0.009263911214807814
2015-08-06,-0.09514262731894911
2015-08-07,0.2796796738502784
2015-08-10,-0.02471054513596005
2015-08-11,0.029296034127321395
2015-08-12,-0.03262634693578839
2015-08-13,0.05284334668531179
2015-08-14,-0.2822432922560427
2015-08-17,0.09370315461240701
2015-08-18,0.0591784122041032
2015-08-19,0.04036938555297703
2015-08-20,-0.02119469365845833
2015-08-21,0.05852485928705367
2015-08-24,-0.0691037681616502
2015-08-25,0.0808561197379446
2015-08-26,0.004005302837082156
2015-08-27,-0.056583164460542894
2015-08-28,-0.019457235376250888
2015-08-31,-0.003245447115016925
2015-09-01,-0.32452355081837253
2015-09-02,-0.05908060134920557
2015-09-07,0.1950453849095942
2015-09-08,0.09654905075618572
2015-09-09,0.0039325077211922466
2015-09-10,0.3238042700990923
2015-09-11,0.02726314568063478
2015-09-14,-0.2248819735354734
2015-09-15,-0.06994359774391275
2015-09-16,0.0747932615833963
2015-09-17,-0.05315233785822171
2015-09-18,0.018386477828911802
2015-09-21,0.05966485217205617
2015-09-22,-0.06048582995951368
2015-09-23,-0.07886749266059334
2015-09-24,-0.2108273188487077
2015-09-25,0.04536025525572839
2015-09-28,-0.08786350537071072
2015-09-29,0.2582722629358303
2015-09-30,-0.028295993412279126
2015-10-08,0.22425722942211548
2015-10-09,0.1775709380083183
2015-10-12,0.07412457912458373
2015-10-13,-0.3363370896367317
2015-10-14,0.12946135407131087
2015-10-15,-0.12380528861086891
2015-10-16,-0.49966760844274716
2015-10-19,0.13367578633909805
2015-10-20,0.2070121951219584
2015-10-21,-0.12208888158255593
2015-10-22,0.16491729405944905
2015-10-23,0.362731015623797
2015-10-26,-0.12479546092698453
2015-10-27,-0.053929273084489415
2015-10-28,0.04679935449166682
2015-10-29,-0.08877419354837963
2015-10-30,-0.12208216619981463
2015-11-02,0.02336618339177064
2015-11-03,0.04882723226816553
2015-11-04,0.08411920611438971
2015-11-05,0.05769343065692982
2015-11-06,-0.04188410524026761
2015-11-09,-0.024431077846128628
2015-11-10,-0.01093569503273547
2015-11-11,-0.10680885036495763
2015-11-12,-0.21342070338420516
2015-11-13,0.31807458143074374
2015-11-16,0.1435470029046777
2015-11-17,-0.014884362720101761
2015-11-18,0.08797840964733525
2015-11-19,0.19520501753439423
2015-11-20,-0.136795719231978
2015-11-23,0.014893131165505086
2015-11-24,0.08654007609724665
2015-11-25,0.006444769985919772
2015-11-26,0.10104320371747533
2015-11-27,-0.18034382369281568
2015-11-30,-0.21254530185447496
2015-12-01,-0.09833829754500585
2015-12-02,-0.06770550355332693
2015-12-03,-0.21653370091567037
2015-12-04,0.03278631854876587
2015-12-07,0.09700320563976497
2015-12-08,-0.020055522027217658
2015-12-09,-0.06080956100908251
2015-12-10,0.02117730935309893
2015-12-11,-0.030476346230432695
2015-12-14,-0.02542246352222665
2015-12-15,-0.13765395738279845
2015-12-16,0.030116059914689956
2015-12-17,0.013443527396498227
2015-12-18,0.10674876252565359
2015-12-21,-0.011177944862155143
2015-12-22,0.14509172113511634
2015-12-23,0.1460177925529512
2015-12-24,0.09811683473532845
2015-12-25,-0.08195634153080908
2015-12-28,0.0379204380377689
2015-12-29,0.08154336600566055
2015-12-30,-0.10699070387872667
2015-12-31,-0.0878797671401639
2016-01-04,0.15225937183383975
2016-01-05,-0.14302858994363624
2016-01-06,-0.15371288649804
2016-01-07,0.07228528439877945
2016-01-08,-0.1060759211844561
2016-01-11,-0.1826383981154292
2016-01-12,0.07134209239763167
2016-01-13,0.0052184421576905865
2016-01-14,-0.16824279509617582
2016-01-15,0.15321158457849096
2016-01-18,0.28674456517241953
2016-01-19,0.2895806443261791
2016-01-20,0.08786548061404438
2016-01-21,0.148016094335115
2016-01-22,0.08696808976176446
2016-01-25,-0.3566335433162994
2016-01-26,-0.36947180479095204
2016-01-27,0.04791573950452446
2016-01-28,-0.2065007274466138
2016-01-29,-0.15613554558099924
2016-02-01,0.12734219107412478
2016-02-02,0.10253507498790569
2016-02-03,-0.04198668714797618
2016-02-04,0.30957144104041423
2016-02-05,0.023288830252532294
2016-02-15,0.1416528468767289
2016-02-16,0.0035625483190189246
2016-02-17,0.007357102433501739
2016-02-18,-0.2493937814834118
2016-02-19,0.26277372262773996
2016-02-22,-0.10842844600527292
2016-02-23,0.04043526409552606
2016-02-24,-0.09429633368512828
2016-02-25,0.18246756182467372
2016-02-26,-0.35011960988774965
2016-02-29,-0.04615242323343867
2016-03-01,-0.025334086203649075
2016-03-02,0.1879828745153836
2016-03-03,-0.1493489661223094
2016-03-04,0.258312020460353
2016-03-07,0.34360870304266167
2016-03-08,0.19083954150895174
2016-03-09,0.055711849957374784
2016-03-10,0.1895282446274258
2016-03-11,-0.15692686915032397
2016-03-14,-0.43625457140308543
2016-03-15,-0.27402199582931075
2016-03-16,-0.33471782320760374
2016-03-17,-0.22409134199291073
2016-03-18,-0.06931536687451671
2016-03-21,0.17238451760370405
2016-03-22,0.2368669720498197
2016-03-23,0.10454706137989514
2016-03-24,0.21182349410781995
2016-03-25,0.07532034492484938
2016-03-28,-0.04829210836277971
2016-03-29,-0.26789667511710585
2016-03-30,0.05178151201442856
2016-03-31,-0.21912959908658133
2016-04-01,0.23160796921185653
2016-04-05,-0.016398333618479186
2016-04-06,0.13476270949810765
2016-04-07,0.043832854753784053
2016-04-08,0.1353674557644787
2016-04-11,-0.37482209935241706
2016-04-12,0.01187344674065056
2016-04-13,0.15980659074668077
2016-04-14,-0.07565026346990589
2016-04-15,-0.07390727816549983
2016-04-18,0.13148358122679749
2016-04-19,0.12105031060664236
2016-04-20,-0.24786743143005352
2016-04-21,0.21124906765270698
2016-04-22,0.0890469157254514
2016-04-25,0.07836817018853608
2016-04-26,-0.136806234961264
2016-04-27,0.08515029188170326
2016-04-28,-0.224972570027106
2016-04-29,-0.1384561566495419
2016-05-03,-0.12205678042887333
2016-05-04,-0.10604512897970042
2016-05-05,-0.1844356800382458
2016-05-06,-0.07716114924886791
2016-05-09,0.3405066534050618
2016-05-10,0.07190687361419147
2016-05-11,0.10108555559676635
2016-05-12,0.22631014499854618
2016-05-13,0.14742060452187605
2016-05-16,-0.3406688410524038
2016-05-17,-0.10909258462861703
2016-05-18,0.16571326361399322
2016-05-19,-0.056679498360955864
2016-05-20,-0.10537351766759645
2016-05-23,0.08458208103481438
2016-05-24,0.09580072016634769
2016-05-25,-0.2530734151916375
2016-05-26,-0.014468351632153298
2016-05-27,0.10078335373317063
2016-05-30,0.08038753758186303
2016-05-31,0.07460708520941312
2016-06-01,0.07338484991851803
2016-06-02,0.008603078693710289
2016-06-03,0.018461538461538116
2016-06-06,-0.22054633819339403
2016-06-07,-0.2374400503184224
2016-06-08,0.12440087145969643
2016-06-13,0.09314155696408774
2016-06-14,-0.04633555420957029
2016-06-15,0.15608465608465585
2016-06-16,0.28904973834793046
2016-06-17,0.044703082971241676
2016-06-20,-0.1244088475638859
2016-06-21,-0.006301241983925685
2016-06-22,0.05742296918767332
2016-06-23,-0.1999516931549295
2016-06-24,-0.16427980254796506
2016-06-27,0.29832534669895
2016-06-28,0.23639747995418095
2016-06-29,0.05852644087938465
2016-06-30,0.22941087752928147
2016-07-01,0.0254813219172418
2016-07-04,-0.265141438829837
2016-07-05,-0.2542779713511432
2016-07-06,-0.11164689712523623
2016-07-07,-0.1996924926930365
2016-07-08,0.03862789449509723
2016-07-11,-0.10999742535012
2016-07-12,0.01979082680675978
2016-07-13,-0.03376219968627923
2016-07-14,0.04182822951190577
2016-07-15,-0.13217322816813623
2016-07-18,0.1826989572272577
2016-07-19,-0.09048087041477404
2016-07-20,0.08963769016036854
2016-07-21,-0.04628891161632923
2016-07-22,0.08596670036654128
2016-07-25,-0.14103122325183337
2016-07-26,0.030173754316443382
2016-07-27,-0.3097715884525357
2016-07-28,0.2959968472928544
2016-07-29,0.08453258818662533
2016-08-01,0.06228500649608731
2016-08-02,0.16945785156927906
2016-08-03,0.1743594956069506
2016-08-04,-0.40331512506565204
2016-08-05,-0.17604374240583187
2016-08-08,0.07194784125866563
2016-08-09,-0.15479541766855884
2016-08-10,0.45110567744519015
2016-08-11,-0.0004763643869978851
2016-08-12,0.14005128205128092
2016-08-15,-0.12289223741748517
2016-08-16,0.07880980525236282
2016-08-17,-0.5961278263291132
2016-08-18,0.49478034453943787
2016-08-19,-0.024517623213384604
2016-08-22,0.16618550664437207
2016-08-23,0.006160069870113496
2016-08-24,0.2650143411555338
2016-08-25,-0.47523188197794963
2016-08-26,-0.00884944831158029
2016-08-29,0.08549904069234655
2016-08-30,-0.11585050367706679
2016-08-31,-0.10872384342156477
2016-09-01,0.08376821167749306
2016-09-02,0.048934837092731484
2016-09-05,-0.4624129493694686
2016-09-06,0.3092203406012426
2016-09-07,-0.052634497165983216
2016-09-08,0.013721634692034718
2016-09-09,-0.035632746249182806
2016-09-12,0.35146680730437185
2016-09-13,-0.3603672144451213
2016-09-14,0.15802387606138607
2016-09-19,0.06925015355119399
2016-09-20,0.0792299148463496
2016-09-21,-0.0033867140230429693
2016-09-22,0.1673541343352659
2016-09-23,-0.03812419119610209
2016-09-26,-0.027192218350756095
2016-09-27,-0.13685936974318696
2016-09-28,-0.2321757078117289
2016-09-29,0.06396228292780419
2016-09-30,-0.0807462236185834
2016-10-10,0.15033248443689906
2016-10-11,-0.042592140590674905
2016-10-12,0.16909770920991313
2016-10-13,-0.08498953398699877
2016-10-14,0.14887534792748452
2016-10-17,-0.17949915110356426
2016-10-18,0.4155354449472123
2016-10-19,0.07441348973606858
2016-10-20,-0.06194533191339054
2016-10-21,0.006095519968989438
2016-10-24,-0.006697341513293754
2016-10-25,-0.303012928020695
2016-10-26,-0.13048266166822425
2016-10-27,0.09555555555556294
2016-10-28,0.052793038919566423
2016-10-31,0.2545283917416026
2016-11-01,-0.12212142743919027
2016-11-02,0.2823189048951965
2016-11-03,-0.056075016744815485
2016-11-04,-0.07971041156881764
2016-11-07,-0.3167217254694673
2016-11-08,0.17164541825700508
2016-11-09,-0.3106132065148405
2016-11-10,0.09893215960195521
2016-11-11,-0.13044296283257834
2016-11-14,0.034189182703845154
2016-11-15,0.03956747118057158
2016-11-16,0.09030044659343013
2016-11-17,-0.15839190221543126
2016-11-18,0.03791564359533489
2016-11-21,0.18245598355527723
2016-11-22,-0.2820453514739217
2016-11-23,0.006839496937932841
2016-11-24,0.22690730837789386
2016-11-25,-0.008250239872644886
2016-11-28,-0.1789422577320483
2016-11-29,0.2530675709620684
2016-11-30,-0.08708210337192783
2016-12-01,-0.23022300190968997
2016-12-02,0.0670727815766389
2016-12-05,0.17104020094400582
2016-12-06,-0.1986028613197071
2016-12-07,0.14975621399592787
2016-12-08,0.050723139788676874
2016-12-09,0.09854311977455314
2016-12-12,-0.18332701050110925
2016-12-13,0.20372160767932673
2016-12-14,-0.13389219501518224
2016-12-15,0.0569194479328666
2016-12-16,-0.19983208087151644
2016-12-19,0.17786112468212584
2016-12-20,-0.10284410102144495
2016-12-21,0.04741375616413914
2016-12-22,-0.054485170666482424
2016-12-23,0.05701956121673232
2016-12-26,-0.1497262511710239
2016-12-27,-0.013961685326793675
2016-12-28,0.014238990825924162
2016-12-29,0.059375670565561395
2016-12-30,0.04477490438543045
2017-01-03,-0.006270466731439141
2017-01-04,0.02876761717469909
2017-01-05,-0.1393678418741137
2017-01-06,0.02389568872416087
2017-01-09,-0.07978750850064581
2017-01-10,-0.03806383558891709
2017-01-11,-0.07178675437695113
2017-01-12,0.22896685212988666
2017-01-13,-0.16949168085542177
2017-01-16,0.13371184752680104
2017-01-17,0.16753652862093055
2017-01-18,0.09726179463459897
2017-01-19,-0.11264844279870788
2017-01-20,0.15896211702433236
2017-01-23,-0.16586959987246902
2017-01-24,-0.16246896361204466
2017-01-25,0.14019605357671003
2017-01-26,0.011826159543872923
2017-02-03,0.026101697566746858
2017-02-06,0.08427752717405193
2017-02-07,0.04233935932621371
2017-02-08,-0.2760235430577773
2017-02-09,-0.04691414771250209
2017-02-10,-0.21343481737992986
2017-02-13,0.03980999831758689
2017-02-14,0.02664008818423588
2017-02-15,0.1679472298257178
2017-02-16,0.13652675924481145
2017-02-17,0.2006932821226593
2017-02-20,-0.09620663898570728
2017-02-21,0.1288765270117572
2017-02-22,-0.16315619547262267
2017-02-23,-0.11915893135872294
2017-02-24,-0.12637450510708448
2017-02-27,0.08430895701933279
2017-02-28,-0.12323955441072937
2017-03-01,0.13015816809295255
2017-03-02,-0.05618543027105384
2017-03-03,0.039284686695875794
2017-03-06,-0.058483273177824965
2017-03-07,-0.11745895963175731
2017-03-08,0.0553171141330967
2017-03-09,0.08287172803301969
2017-03-10,0.11998233188482044
2017-03-13,0.1433980191178168
2017-03-14,0.15200562983813942
2017-03-15,-0.15795037276065255
2017-03-16,-0.0008777957298795127
2017-03-17,-0.2168736057078393
2017-03-20,-0.15197247658851043
2017-03-21,-0.11979150809550149
2017-03-22,0.05073980653213926
2017-03-23,-0.0802147693686226
2017-03-24,0.1752439028239352
2017-03-27,0.11950387639372087
2017-03-28,0.08755389270174303
2017-03-29,0.12662166900421135
2017-03-30,0.24834347428489428
2017-03-31,0.05722879103741537
2017-04-05,0.058886942092825745
2017-04-06,0.009325483419880133
2017-04-07,-0.0323246034280871
2017-04-10,-0.1428901428901429
2017-04-11,-0.21207687475918707
2017-04-12,-0.35793349757830273
2017-04-13,0.044565578917327604
2017-04-14,-0.0790646711341606
2017-04-17,-0.07874724084016074
2017-04-18,0.15830314281970606
2017-04-19,0.2732584773752952
2017-04-20,0.048094768748678914
2017-04-21,-0.09420489159446917
2017-04-24,0.026317847341142637
2017-04-25,-0.11125984775378397
2017-04-26,0.00502211849621996
2017-04-27,-0.268054865938431
2017-04-28,0.02959974461899692
2017-05-02,-0.004611968420394189
2017-05-03,0.03649771251454189
2017-05-04,-0.1674260901350605
2017-05-05,0.23788183279742708
2017-05-08,0.20751879699248527
2017-05-09,-0.029869681166926662
2017-05-10,0.21112470532063995
2017-05-11,0.09468117719190922
2017-05-12,-0.13805565383733098
2017-05-15,-0.1466165413533881
2017-05-16,0.1045882346765721
2017-05-17,-0.33199569081605185
2017-05-18,0.05818605792832574
2017-05-19,0.24971478149187937
2017-05-22,-0.012030075187963578
2017-05-23,-0.03961471352775663
2017-05-24,0.27670264813233164
2017-05-25,-0.035150472203755515
2017-05-26,-0.30083383290642335
2017-05-31,0.22120007692800234
2017-06-01,-0.00938344516325873
2017-06-02,-0.1351685697892172
2017-06-05,-0.08764153077199402
2017-06-06,0.13901608674016008
2017-06-07,-0.43146698186834176
2017-06-08,0.14014920505384088
2017-06-09,-0.15945613959674276
2017-06-12,0.18851587046337326
2017-06-13,0.15629852484472093
2017-06-14,0.25854801233309604
2017-06-15,-0.2292793289923853
2017-06-16,0.14339079638259292
2017-06-19,-0.1478739385021026
2017-06-20,-0.32494061330262003
2017-06-21,-0.01417715592530898
2017-06-22,0.1235601837929318
2017-06-23,-0.03014312890660535
2017-06-26,0.0173581846348979
2017-06-27,0.10128177739799211
2017-06-28,0.11424573631132036
2017-06-29,0.029616122751069812
2017-06-30,0.1396013237499351
2017-07-03,-0.023669615059482157
2017-07-04,0.15797613787008244
2017-07-05,-0.21833019460138342
2017-07-06,0.04246941706700736
2017-07-07,-0.08073900881856938
2017-07-10,0.12427924134888857
2017-07-11,-0.13575513893434146
2017-07-12,0.13718414676358498
2017-07-13,-0.21059410130448647
2017-07-14,-0.06298626966306323
2017-07-17,-0.09581484140451382
2017-07-18,-0.019842021241386436
2017-07-19,-0.1458523894743817
2017-07-20,0.457716805313217
2017-07-21,0.10701963639829545
2017-07-24,-0.010552409610006707
2017-07-25,0.024244087006531207
2017-07-26,0.3110535319813298
2017-07-27,-0.5755804471250769
2017-07-28,0.005336743620930819
2017-07-31,0.05275067568102933
2017-08-01,0.1525510691103428
2017-08-02,-0.3401729233734192
2017-08-03,0.3022011062911738
2017-08-04,-0.04761620074216092
2017-08-07,0.09995324593026927
2017-08-08,-0.15684881309881082
2017-08-09,0.17000917138608584
2017-08-10,-0.11164694594173451
2017-08-11,-0.02734213535297718
2017-08-14,-0.30407155643207795
2017-08-15,-0.0510709258267634
2017-08-16,-0.08767168341898718
2017-08-17,0.09138467327749672
2017-08-18,-0.15151749081444305
2017-08-21,0.19936231723302825
2017-08-22,0.3491691760526749
2017-08-23,0.03143580921822304
2017-08-24,-0.09574418527268419
2017-08-25,0.24378126737076072
2017-08-28,0.06957341460512773
2017-08-29,-0.41071469734940114
2017-08-30,-0.02497238565406302
2017-08-31,0.06893537710080419
2017-09-01,0.005761109070880552
2017-09-04,-0.04949176697428355
2017-09-05,0.1250263460521604
2017-09-06,0.14216883201671252
2017-09-07,0.024388723332626677
2017-09-08,-0.12720041625668277
2017-09-11,-0.16353867176148784
2017-09-12,0.05060062564323439
2017-09-13,0.142194646621326
2017-09-14,-0.029013498143735734
2017-09-15,0.0038094370559338397
2017-09-18,0.2422821553426279
2017-09-19,-0.02429052066202827
2017-09-20,-0.4299137931034476
2017-09-21,-0.02967695832194836
2017-09-22,0.07989226989226972
2017-09-25,-0.08906990077925118
2017-09-26,-0.11333586579582532
2017-09-27,0.12301847865087638
2017-09-28,0.08779073501045465
2017-09-29,-0.035124895938601686
2017-10-09,0.02428739286921379
2017-10-10,0.186363121818692
2017-10-11,0.135595727477257
2017-10-12,-0.19591324430163864
2017-10-13,0.05654476218605267
2017-10-16,-0.1458643287283037
2017-10-17,-0.08262737989543197
2017-10-18,-0.07387843377040997
2017-10-19,0.18487596692451347
2017-10-20,-0.016146688560481473
2017-10-23,0.01579829372334285
2017-10-24,-0.03668817321391473
2017-10-25,0.07160421399505491
2017-10-26,-0.09630310638072039
2017-10-27,-0.1576850051729825
2017-10-30,0.014757261832210593
2017-10-31,0.014695157995774717
2017-11-01,-0.02931847449110002
2017-11-02,-0.05267166096896003
2017-11-03,0.0844437424076612
2017-11-06,0.11052593555844573
2017-11-07,-0.026913911557892817
2017-11-08,-0.13099337333354247
2017-11-09,0.20487604451474742
2017-11-10,0.09303692049201602
2017-11-13,0.02355168272970485
2017-11-14,0.10939397330217075
2017-11-15,0.11472133736284967
2017-11-16,-0.22102211651462172
2017-11-17,-0.03579771744095151
2017-11-20,-0.0751740126958019
2017-11-21,-0.1686336460768954
2017-11-22,-0.039693645647887424
2017-11-23,0.17203718560010509
2017-11-24,-0.20442587185986183
2017-11-27,0.3752571509088353
2017-11-28,0.11438601623637831
2017-11-29,-0.028328945220923434
2017-11-30,-0.050745094848743066
2017-12-01,0.29113417600715596
2017-12-04,-0.6005735315215687
2017-12-05,0.06526928619245229
2017-12-06,0.05276161581877303
2017-12-07,0.07046914239711119
2017-12-08,-0.10406106235118234
2017-12-11,0.18555868654091606
2017-12-12,-0.127985610272412
2017-12-13,0.12627034039306229
2017-12-14,-0.21188952743348968
2017-12-15,-0.11747907885895585
2017-12-18,0.03439899530306683
2017-12-19,0.19446073480381187
2017-12-20,-0.2979633698160437
2017-12-21,0.07899441758194832
2017-12-22,0.15161989691564878
2017-12-25,0.08714180110448823
2017-12-26,-0.11892890927198968
2017-12-27,0.2752109388384437
2017-12-28,-0.0024446970663635353
2017-12-29,-0.10750224985682622
2018-01-02,-0.01106598143235464
2018-01-03,-0.20996454067319748
2018-01-04,-0.17049994672917201
2018-01-05,0.055985799286762145
2018-01-08,0.08939121500128411
2018-01-09,-0.2662497283789678
2018-01-10,0.370950110109471
2018-01-11,-0.022494558765332517
2018-01-12,-0.05054340646804148
2018-01-15,-0.11488471762998857
2018-01-16,0.5255485844492288
2018-01-17,-0.27602508253403296
2018-01-18,0.09552479248579698
2018-01-19,0.19159686604430337
2018-01-22,0.06599242471062775
2018-01-23,-0.5051418047882074
2018-01-24,0.06699456229754085
2018-01-25,0.007599464704598985
2018-01-26,-0.22118398544490653
2018-01-29,0.10224069124592736
2018-01-30,0.1208817204300977
2018-01-31,0.019094321849592245
2018-02-01,0.03333228325710541
2018-02-02,-0.02302022827679985
2018-02-05,-0.010307466321834713
2018-02-06,0.004612148020287851
2018-02-07,0.19555012888346396
2018-02-08,-0.07537398427963386
2018-02-09,0.0306289455225576
2018-02-12,-0.1832860369490886
2018-02-13,-0.0043199554069121016
2018-02-14,-0.22134208058712232
2018-02-22,0.06540553907022524
2018-02-23,0.04632218844985916
2018-02-26,0.2811610417055115
2018-02-27,0.14661994660564276
2018-02-28,-0.13931614281620153
2018-03-01,0.09312386156648561
2018-03-02,0.049951845906898315
2018-03-05,-0.25185456516365845
2018-03-06,-0.1392000221141073
2018-03-07,0.2797195529475751
2018-03-08,-0.13638542456488884
2018-03-09,-0.04491305083616456
2018-03-12,0.1864802675718285
2018-03-13,-0.0021325972249363057
2018-03-14,-0.06030065097755119
2018-03-15,-0.14167995746943635
2018-03-16,0.14120206304725294
2018-03-19,-0.28054541498440855
2018-03-20,0.22027100012708178
2018-03-21,-0.14248877693654655
2018-03-22,0.09852442350857793
2018-03-23,0.06698951511238271
2018-03-26,0.1954255954729435
2018-03-27,-0.2090464841963362
2018-03-28,0.17299722770013626
2018-03-29,0.19368660050536105
2018-03-30,-0.42772772772773154
2018-04-02,0.10979199395517442
2018-04-03,-0.052030843217787996
2018-04-04,-0.0034474898854632563
2018-04-09,-0.21685524535727663
2018-04-10,0.239596436910549
2018-04-11,-0.19765560699250248
2018-04-12,0.20049731931534248
2018-04-13,-0.17283218820913254
2018-04-16,0.1395358416115814
2018-04-17,-0.048413713401542435
2018-04-18,0.03557520325161424
2018-04-19,-0.1378980589404256
2018-04-20,0.2796624193973193
2018-04-23,-0.2068280340727025
2018-04-24,0.023342550951122747
2018-04-25,0.11037633452185716
2018-04-26,-0.021302519453928564
2018-04-27,-0.43056053415796763
2018-05-02,0.4178665138583052
2018-05-03,-0.00696328843403334
2018-05-04,-0.1879209673984882
2018-05-07,0.06946564885495593
2018-05-08,0.29039464335175674
2018-05-09,-0.4157487714325311
2018-05-10,0.07438053741020335
2018-05-11,0.10098499124600953
2018-05-14,0.22844078300960155
2018-05-15,-0.06500802568218299
2018-05-16,0.09081710241563049
2018-05-17,-0.005082811432273432
2018-05-18,0.10155806151629103
2018-05-21,-0.25934159147081515
2018-05-22,0.03576767029681537
2018-05-23,0.04227642276422948
2018-05-24,-0.09967824693481797
2018-05-25,-0.08127715509888679
2018-05-28,-0.15996230210872778
2018-05-29,0.10285666832752509
2018-05-30,-0.05315614617940294
2018-05-31,0.12067428541811713
2018-06-01,-0.041882262048774634
2018-06-04,0.1363659876472991
2018-06-05,-0.22320642320642478
2018-06-06,0.1884502638264575
2018-06-07,-0.10992637032996067
2018-06-08,-0.07107869784060482
2018-06-11,0.2829181434769528
2018-06-12,0.14519160839160858
2018-06-13,-0.23405954974582227
2018-06-14,0.09279106631650938
2018-06-15,0.07781132691365794
2018-06-19,-0.22757143520268236
2018-06-20,-0.12149055374592906
2018-06-21,0.1272351829884465
2018-06-22,-0.07382566241646257
2018-06-25,0.05447330447330773
2018-06-26,-0.09685663174035003
2018-06-27,0.13098685004222255
2018-06-28,-0.11342550310207214
2018-06-29,0.15829613219734245
2018-07-02,-0.08777319643194387
2018-07-03,-0.08314886552296837
2018-07-04,0.01794353239749446
2018-07-05,0.23787325724258182
2018-07-06,-0.34868907409846084
2018-07-09,0.10017727506118476
2018-07-10,0.23618187902109428
2018-07-11,-0.064239828693782
2018-07-12,-0.14112968577675714
2018-07-13,0.17641437503176682
2018-07-16,-0.07427059230298574
2018-07-17,-0.11544741069512456
2018-07-18,-0.10129310344828389
2018-07-19,0.002600669955207118
2018-07-20,0.15830521701209926
2018-07-23,0.09944821302014527
2018-07-24,0.10220584347173906
2018-07-25,0.11238367646121772
2018-07-26,-0.1844067707442894
2018-07-27,-0.1605377990231312
2018-07-30,0.04939373009478096
2018-07-31,-0.21388877751493252
2018-08-01,0.17881327314090242
2018-08-02,0.42658393810130624
2018-08-03,0.36643200135983356
2018-08-06,-0.11992919065581292
2018-08-07,0.23066258888579041
2018-08-08,-0.16997100557216782
2018-08-09,-0.31054813732267345
2018-08-10,-0.37449502645980653
2018-08-13,0.02644125028882966
2018-08-14,-0.006356128713063694
2018-08-15,-0.09922799476669751
2018-08-16,0.20230783960869114
2018-08-17,-0.03273635081779493
2018-08-20,0.017607516383828212
2018-08-21,-0.08193470065810876
2018-08-22,0.19161794589712844
2018-08-23,-0.1777371235575572
2018-08-24,0.028566919191918852
2018-08-27,-0.1541878028456299
2018-08-28,0.04086821905437589
2018-08-29,-0.21868117321499775
2018-08-30,-0.1517007838064052
2018-08-31,0.015879170855476042
2018-09-03,0.2630596530803957
2018-09-04,-0.16678047692130654
2018-09-05,0.07362515728030886
2018-09-06,0.24371830147337092
2018-09-07,0.0936974874473013
2018-09-10,-0.24316716030239707
2018-09-11,0.2698744378687182
2018-09-12,0.12575648003653445
2018-09-13,-0.15702064657810552
2018-09-14,-0.07678619864007116
2018-09-17,0.11380896734941356
2018-09-18,-0.19216484330649208
2018-09-19,-0.21821645519571103
2018-09-20,0.19335482294564368
2018-09-21,-0.057662979068990455
2018-09-25,-0.0986111936192921
2018-09-26,0.16566932321039174
2018-09-27,0.15226595741898485
2018-09-28,-0.07093333954278962
2018-10-08,0.4585652155989848
2018-10-09,0.18955129682131558
2018-10-10,-0.14412434562879176
2018-10-11,0.0859519997668633
2018-10-12,0.0019740678544003243
2018-10-15,-0.4970160707836804
2018-10-16,-0.09956723696981055
2018-10-17,-0.04177699896157969
2018-10-18,-0.13898412574991106
2018-10-19,-0.06358436563559489
2018-10-22,-0.0031107508359473485
2018-10-23,-0.2248236364961326
2018-10-24,0.06507647226987108
2018-10-25,0.07630659016804506
2018-10-26,0.030297922871392772
2018-10-29,0.33778946991659753
2018-10-30,0.2951069158864786
2018-10-31,0.11075686106346384
2018-11-01,-0.0765133200606763
2018-11-02,0.13881980381556006
2018-11-05,-0.3864320373441392
2018-11-06,-0.02135727745483941
2018-11-07,-0.1415245664739906
2018-11-08,-0.019727621968309503
2018-11-09,-0.10766591742576556
2018-11-12,0.24752680978734676
2018-11-13,-0.14437887479884925
2018-11-14,0.1021070757446923
2018-11-15,-0.010115615082384295
2018-11-16,-0.15145749557979332
2018-11-19,-0.123057174817793
2018-11-20,0.26500976962329
2018-11-21,-0.03702767655694414
2018-11-22,0.05237297125278581
2018-11-23,0.39246584200253204
2018-11-26,0.10711344486110147
2018-11-27,-0.24068356061701365
2018-11-28,0.10424131381335698
2018-11-29,0.08387285012284718
2018-11-30,-0.450248159963779
2018-12-03,-0.04228856404775913
2018-12-04,0.21460840546459162
2018-12-05,-0.20853971565894885
2018-12-06,-0.06804198440939847
2018-12-07,0.19002690519699755
2018-12-10,-0.07409116933496795
2018-12-11,-0.2279516451595938
2018-12-12,0.0022413695017533125
2018-12-13,-0.01107342584390171
2018-12-14,-0.0747046218131593
2018-12-17,-0.02219627062710175
2018-12-18,-0.09678343036186474
2018-12-19,0.20668718415020348
2018-12-20,0.06206573695362257
2018-12-21,0.14746477772858896
2018-12-24,0.0504284744247573
2018-12-25,0.19432236272085096
2018-12-26,-0.21946167491158217
2018-12-27,-0.1756051138403982
2018-12-28,-0.135887248689937
2019-01-02,0.13438068759142097
2019-01-03,-0.10640552807245904
2019-01-04,0.23364960389676803
2019-01-07,0.033960853845076966
2019-01-08,0.1223129676737937
2019-01-09,-0.23823777048076059
2019-01-10,0.1319972282239097
2019-01-11,-0.2743586382490857
2019-01-14,0.22710609545716604
2019-01-15,-0.1707622442916556
2019-01-16,0.24100575985822004
2019-01-17,-0.0978428351309684
2019-01-18,0.1409162162952345
2019-01-21,-0.24620962425840917
2019-01-22,0.3292925278219372
2019-01-23,-0.19930000451610128
2019-01-24,0.11142156194630062
2019-01-25,0.007790675818443835
2019-01-28,0.0920208094047706
2019-01-29,-0.41576639313407815
2019-01-30,0.2565249495896159
2019-01-31,-0.10397871239818934
2019-02-01,-0.08841949563737751
2019-02-11,0.18258934653285538
2019-02-12,0.16295264623955244
2019-02-13,-0.22962110821054785
2019-02-14,0.02288310286558612
2019-02-15,0.08216491812922706
2019-02-18,-0.2607630311650079
2019-02-19,0.23410359155646585
2019-02-20,-0.07768614231767676
2019-02-21,0.070596104926744
2019-02-22,-0.07828565893082017
2019-02-25,0.0288751411597183
2019-02-26,-0.30320433594503227
2019-02-27,0.2546910280034244
2019-02-28,-0.08403894045732574
2019-03-01,0.29744277149121223
2019-03-04,0.10554293502953438
2019-03-05,-0.011675465966379264
2019-03-06,-0.13765652444897644
2019-03-07,0.05448606271776817
2019-03-08,-0.4215386355573606
2019-03-11,-0.15751822166887364
2019-03-12,0.18558912136204136
2019-03-13,-0.10353183010926872
2019-03-14,0.04566887995344825
2019-03-15,0.3146224230137646
2019-03-18,0.27829414072108943
2019-03-19,-0.12765714104173267
2019-03-20,0.12665057283903472
2019-03-21,-0.18412370702583275
2019-03-22,-0.15950096813941964
2019-03-25,-0.2863577338581912
2019-03-26,0.13015768940759792
2019-03-27,-0.0100722316517586
2019-03-28,0.23285577478009012
2019-03-29,0.09438150642988963
2019-04-01,0.2032109227871966
2019-04-02,-0.13904401941936945
2019-04-03,0.14505793483131452
2019-04-04,-0.2127764637886096
2019-04-08,0.14443065511022088
2019-04-09,-0.1519724328594359
2019-04-10,0.10298469274799328
2019-04-11,-0.2493984104315488
2019-04-12,0.24076290751656232
2019-04-15,-0.306666806603634
2019-04-16,0.015663087532094534
2019-04-17,-0.0699885875521104
2019-04-18,0.19031544157278468
2019-04-19,-0.292862383257111
2019-04-22,0.01879010938711445
2019-04-23,-0.003550705563245077
2019-04-24,0.015136488220664197
2019-04-25,-0.13075442951522065
2019-04-26,0.21705502718471253
2019-04-29,-0.03814049500904218
2019-04-30,0.12425399028452674
2019-05-06,0.003704429969645263
2019-05-07,0.027558202021261184
2019-05-08,0.023157504403442122
2019-05-09,0.24231200100981506
2019-05-10,-0.09226546100436779
2019-05-13,0.15309506263818046
2019-05-14,0.3651613294394576
2019-05-15,-0.12030006123698356
2019-05-16,-0.09299610337516485
2019-05-17,0.05596592035699882
2019-05-20,-0.15921078576358746
2019-05-21,-0.5664078441188151
2019-05-22,0.03201165757431038
2019-05-23,-0.03576329512107501
2019-05-24,-0.03790702202073316
2019-05-27,-0.06900982615268661
2019-05-28,0.2462427317506804
2019-05-29,-0.012080751382444993
2019-05-30,-0.03885701615808969
2019-05-31,-0.05509308942689536
2019-06-03,0.2772486772486877
2019-06-04,0.06416404986202393
2019-06-05,0.0006574412132691627
2019-06-06,0.2217485747647512
2019-06-10,0.08557469955333821
2019-06-11,-0.270175313016356
2019-06-12,-0.15574394849076795
2019-06-13,0.027527597285170725
2019-06-14,-0.3189663528108562
2019-06-17,-0.054413381471117475
2019-06-18,-0.0022789993152635413
2019-06-19,0.10231829751418012
2019-06-20,0.05826271186440663
2019-06-21,0.1462892191554633
2019-06-24,0.02096002270983336
2019-06-25,0.1437512000219431
2019-06-26,-0.03794149854303451
2019-06-27,-0.13627622377622128
2019-06-28,-0.010352838045148662
2019-07-01,0.1257085236056087
2019-07-02,0.20529906741029982
2019-07-03,0.18083001635528742
2019-07-04,0.22892267874473826
2019-07-05,0.030773713466023082
2019-07-08,-0.11679651848718971
2019-07-09,-0.3130737356198613
2019-07-10,-0.3136926275698542
2019-07-11,-0.3365875628802137
2019-07-12,0.032124435847837904
2019-07-15,0.013757656939031278
2019-07-16,-0.12827549874696997
2019-07-17,0.21081428318270456
2019-07-18,0.14443256090315018
2019-07-19,-0.12346201983247967
2019-07-22,-0.09016984299398068
2019-07-23,0.18738292975393275
2019-07-24,-0.13332921747183232
2019-07-25,-0.06703754369965104
2019-07-26,0.11425170275077379
2019-07-29,0.03034433285509751
2019-07-30,0.053459441170225996
2019-07-31,-0.0032816723733995884
2019-08-01,0.03726703024414568
2019-08-02,-0.014830674106628593
2019-08-05,0.23206363109900668
2019-08-06,-0.14393750179503573
2019-08-07,0.0034358713028793675
2019-08-08,0.20299698214727874
2019-08-09,-0.051957221800995705
2019-08-12,-0.3546559369048917
2019-08-13,0.026992647542188587
2019-08-14,0.11901459832885491
2019-08-15,-0.2506867861520889
2019-08-16,-0.07682000276281659
2019-08-19,0.08021481746298548
2019-08-20,0.19221010200893146
2019-08-21,-0.11629794943485583
2019-08-22,0.1581064645897614
2019-08-23,0.28105198300743073
2019-08-26,0.23288719631661367
2019-08-27,-0.21942712863280672
2019-08-28,0.07155040454843817
2019-08-29,-0.07298397628808313
2019-08-30,-0.23039248755346936
2019-09-02,-0.25044128285507616
2019-09-03,0.03805901810910416
2019-09-04,8.343763036972734e-05
2019-09-05,-0.019501117802261932
2019-09-06,-0.01712773067396594
2019-09-09,0.24604713205869566
2019-09-10,0.08980213089801939
2019-09-11,-0.12458855068037433
2019-09-12,0.06890243902438901
2019-09-16,0.1936521744495266
2019-09-17,-0.12160790716145398
2019-09-18,0.06384742951907518
2019-09-19,0.21219138755980632
2019-09-20,-0.10321816301912501
2019-09-23,-0.24527491408935304
2019-09-24,-0.2103092553060684
2019-09-25,-0.3176011832728284
2019-09-26,-0.177243445692881
2019-09-27,0.14625690393921997
2019-09-30,0.1668252265965582
2019-10-08,0.34980165434045085
2019-10-09,0.23128643349231842
2019-10-10,-0.011719780878884242
2019-10-11,-0.1716448435553221
2019-10-14,-7.155020678116519e-05
2019-10-15,-0.2092363395825717
2019-10-16,0.016057063851179124
2019-10-17,0.1895362068840536
2019-10-18,0.1482522483863497
2019-10-21,-0.026038750347638143
2019-10-22,0.0076608943955441405
2019-10-23,-0.17503182396799213
2019-10-24,-0.15661625279369018
2019-10-25,-0.05893186003683508
2019-10-28,-0.11916016350799141
2019-10-29,0.04866095577964845
2019-10-30,0.11414943562081684
2019-10-31,0.0815887990055522
2019-11-01,0.06451612903225792
2019-11-04,0.0788100788100765
2019-11-05,-0.04700626680476694
2019-11-06,0.07137011672481046
2019-11-07,-0.11096543994406408
2019-11-08,-0.0809867172675515
2019-11-11,0.009911141490092408
2019-11-12,0.13656141024410565
2019-11-13,0.01729004940014328
2019-11-14,0.12090290661719769
2019-11-15,-0.005098039215690405
2019-11-18,-0.0064626861378283326
2019-11-19,-0.17846355165933697
2019-11-20,-0.06807351940095234
2019-11-21,-0.04300930898675936
2019-11-22,-0.004804998922637124
2019-11-25,0.0814948180785969
2019-11-26,0.047650074217268815
2019-11-27,-0.03073139559652521
2019-11-28,-0.05820970210761591
2019-11-29,-0.06410256410257494
2019-12-02,-0.08640516232730149
2019-12-03,0.09862458080303986
2019-12-04,-0.04829360052208871
2019-12-05,0.07118435572278974
2019-12-06,0.12780952380953597
2019-12-09,0.18711750730385018
2019-12-10,-0.12735236344442427
2019-12-11,0.205293473816211
2019-12-12,-0.02286281252694673
2019-12-13,0.030823817171471445
2019-12-16,-0.33795424003118213
2019-12-17,0.1617420115595691
2019-12-18,-0.22480413387443215
2019-12-19,0.08350971279649047
2019-12-20,-0.2106858861369976
2019-12-23,0.18518396684155658
2019-12-24,-0.207054673721344
2019-12-25,0.036431660784890546
2019-12-26,-0.04642857142857661
2019-12-27,0.24008971124194317
2019-12-30,-0.05229371462614968
2019-12-31,0.20697617518426628
2020-01-02,0.019133702961685976
2020-01-03,-0.02771739130434275
2020-01-06,0.06592676280986452
2020-01-07,0.12085610200364295
2020-01-08,0.05685258864449795
2020-01-09,0.16683101528196068
2020-01-10,-0.0005829387286578978
2020-01-13,-0.22805727484346278
2020-01-14,-0.0872769476280306
2020-01-15,-0.2309623946634621
2020-01-16,-0.2613091287423438
2020-01-17,-0.07599482415201643
2020-01-20,-0.04547831046611252
2020-01-21,0.05100865924445455
2020-01-22,0.1038020657036453
2020-01-23,0.19094298801938567
2020-02-03,0.10746416826952702
2020-02-04,0.6146140569356169
2020-02-05,-0.062390882242559856
2020-02-06,-0.13115697102414706
2020-02-07,-0.08635786177779638
2020-02-10,-0.029926483328798693
2020-02-11,-0.8602000128625655
2020-02-12,-0.0707397364776993
2020-02-13,0.10629666592739936
2020-02-14,0.006156579269776707
2020-02-17,0.025999893486713426
2020-02-18,0.46805983831986686
2020-02-19,0.2044529705848287
2020-02-20,0.06544054747647951
2020-02-21,0.04230158730160214
2020-02-24,0.023479918490769247
2020-02-25,-0.14969311624830428
2020-02-26,-0.24390299702585613
2020-02-27,-0.1847290640394107
2020-02-28,0.1449999999999895
2020-03-02,0.3014463033475719
2020-03-03,0.07952060187210083
2020-03-04,0.1572871258355119
2020-03-05,0.12969393523378897
2020-03-06,-0.25815412186379416
2020-03-09,-0.6305845752843044
2020-03-10,0.12523416360229755
2020-03-11,0.10672539628235778
2020-03-12,0.06152863529912796
2020-03-13,0.28148076175670367
2020-03-16,0.3651100128976259
2020-03-17,-0.24471804424969595
2020-03-18,-0.06930973386669485
2020-03-19,-0.03603018603018672
2020-03-20,-0.24076070820245923
2020-03-23,-0.10957964227718997
2020-03-24,0.22827931056958822
2020-03-25,-0.14923054534233376
2020-03-26,0.11816101816101901
2020-03-27,0.2042039910258847
2020-03-30,0.06922500828357539
2020-03-31,-0.13316926089044853
2020-04-01,0.07487611735507728
2020-04-02,-0.08538290443598602
2020-04-03,-0.2589007071479857
2020-04-07,0.028365976656120027
2020-04-08,-0.048621100646746844
2020-04-09,0.1268691810617125
2020-04-10,-0.032205392794276706
2020-04-13,0.24086525372522877
2020-04-14,0.14513667890656812
2020-04-15,0.05957647392538419
2020-04-16,-0.1634972558731037
2020-04-17,-0.15259935213137782
2020-04-20,-0.2685278274970703
2020-04-21,-0.3637005458384802
2020-04-22,-0.1193408309615406
2020-04-23,0.28706387400196937
2020-04-24,0.08660532754402352
2020-04-27,0.13356176516467624
2020-04-28,-0.01967478600594319
2020-04-29,0.13085158885004702
2020-04-30,-0.4488885886088767
2020-05-06,0.02469085195053508
2020-05-07,0.05711197458045225
2020-05-08,0.21904963795982157
2020-05-11,0.08231530133547976
2020-05-12,0.12257874217707841
2020-05-13,-0.027397565311963856
2020-05-14,-0.19711239075291398
2020-05-15,-0.13054762386355143
2020-05-18,-0.3804736226611242
2020-05-19,0.22451267056530383
2020-05-20,0.11686592543335518
2020-05-21,0.22974531124570774
2020-05-22,0.1411755423819035
2020-05-25,0.28932765151514833
2020-05-26,-0.219661079844147
2020-05-27,-0.20273171113524577
2020-05-28,-0.048481419362658415
2020-05-29,-0.11396850572108669
2020-06-01,0.14938209884664594
2020-06-02,0.16579111080389852
2020-06-03,0.07268749641361158
2020-06-04,-0.047993325943878506
2020-06-05,-0.009175824175817276
2020-06-08,-0.31356308265215727
2020-06-09,-0.09256429844665362
2020-06-10,0.1205738347042673
2020-06-11,-0.11176450251281453
2020-06-12,0.15696969696968674
2020-06-15,0.041505611295882566
2020-06-16,0.01800681587916242
2020-06-17,-0.09465267366316538
2020-06-18,0.14111736760187604
2020-06-19,-0.21400673400672732
2020-06-22,0.08109310690052056
2020-06-23,-0.1916439132450735
2020-06-24,-0.06485726209060733
2020-06-29,0.08378382053950274
2020-06-30,0.1311499402628463
2020-07-01,-0.011801673182386178
2020-07-02,0.23081163015020276
2020-07-03,0.2250686621820648
2020-07-06,0.020009942828734043
2020-07-07,0.01718366905436603
2020-07-08,0.102793642767677
2020-07-09,-0.03947654449806777
2020-07-10,-0.19685007283951744
2020-07-13,-0.28796296296296525
2020-07-14,0.006657223099359927
2020-07-15,-0.08728415596828064
2020-07-16,0.02983101604278445
2020-07-17,-0.031156417436911506
2020-07-20,0.1850445186421813
2020-07-21,-0.04770989294051058
2020-07-22,-0.04290178326689546
2020-07-23,-0.09328635578583966
2020-07-24,0.19765197992191996
2020-07-27,0.036806730000598115
2020-07-28,0.05722929817353284
2020-07-29,0.00832541122922624
2020-07-30,-0.006316083238550832
2020-07-31,-0.10828609193714209
2020-08-03,-0.15646663325816196
2020-08-04,-0.06337426068323082
2020-08-05,0.10556762942664255
2020-08-06,0.12385606465676376
2020-08-07,-0.020715775074202372
2020-08-10,0.11214871794871506
2020-08-11,0.011191483932528272
2020-08-12,-0.02204520612337999
2020-08-13,-0.05383789189561318
2020-08-14,-0.03064535144184558
2020-08-17,-0.09379699777622241
2020-08-18,0.06836795757123988
2020-08-19,-0.09844182708278068
2020-08-20,-0.010029117400856687
2020-08-21,0.13139905936374743
2020-08-24,0.10897199777622209
2020-08-25,-0.10897560197690093
2020-08-26,0.02104494971185554
2020-08-27,-0.06916038682770849
2020-08-28,-0.2302207404320886
2020-08-31,0.21920373210634242
2020-09-01,-0.07050659674820095
2020-09-02,0.3318580970619817
2020-09-03,0.05561644474500292
2020-09-04,0.26710526315789496
2020-09-07,-0.35064131192754094
2020-09-08,0.19361731092708312
2020-09-09,-0.4190952145741887
2020-09-10,0.06227421662871252
2020-09-11,-0.1988636363636394
2020-09-14,-0.013366868031562548
2020-09-15,-0.07434521777300773
2020-09-16,0.12032903103606753
2020-09-17,0.054395673661976465
2020-09-18,0.06142195673689234
2020-09-21,0.2647601565141808
2020-09-22,0.05930752222797226
2020-09-23,0.008136698295902703
2020-09-24,-0.13860031964592887
2020-09-25,0.06646012494953833
2020-09-28,-0.1943307086614185
2020-09-29,-0.16692246475670813
2020-09-30,0.045907096157866395
2020-10-09,0.07194300372082439
2020-10-12,-0.026129999107651177
2020-10-13,-0.02718346253229848
2020-10-14,0.14017774699907465
2020-10-15,-0.09911702524561869
2020-10-16,-0.12701177035791494
2020-10-19,-0.05246601917981133
2020-10-20,0.05615984048505363
2020-10-21,-0.02645694020501859
2020-10-22,-0.003681742269602349
2020-10-23,0.05539505994511389
2020-10-26,-0.028595668887814858
2020-10-27,0.10160333219216872
2020-10-28,-0.04111560192140916
2020-10-29,0.08134797171163768
2020-10-30,0.1031088827590737
2020-11-02,0.3357819375046578
2020-11-03,-0.06878794259044024
2020-11-04,0.11805435278928034
2020-11-05,-0.025422222887294718
2020-11-06,-0.15831531684358063
2020-11-09,-0.49876071465454525
2020-11-10,0.07517792941521037
2020-11-11,-0.15417244900630975
2020-11-12,-0.05137848863039862
2020-11-13,0.32434553563007396
2020-11-16,0.33911312314290043
2020-11-17,-0.19864567462332383
2020-11-18,0.21444572716527693
2020-11-19,0.09798666345304258
2020-11-20,-0.3004642376896954
2020-11-23,-0.007449552985413971
2020-11-24,0.08885546483311607
2020-11-25,-0.19471821710627643
2020-11-26,-0.002742794190285773
2020-11-27,0.10188659793814667
2020-11-30,-0.30126708532258295
2020-12-01,0.13220585561011206
2020-12-02,0.009937264425121897
2020-12-03,-0.1470127841710766
2020-12-04,-0.05481508515815399
2020-12-07,0.3143093042539964
2020-12-08,-0.11062302077426524
2020-12-09,0.011956151605102276
2020-12-10,0.24819651307505103
2020-12-11,0.065233689809316
2020-12-14,-0.04097775200138702
2020-12-15,-0.03459852197141661
2020-12-16,0.03412023973549827
2020-12-17,-0.2854766672099872
2020-12-18,-0.11191052714153682
2020-12-21,-0.20585558797761289
2020-12-22,0.19168985849266895
2020-12-23,-0.004923532499864517
2020-12-24,0.17251409820171784
2020-12-25,0.09967785213861459
2020-12-28,0.10374468617154493
2020-12-29,-0.351694366501188
2020-12-30,-0.01763082893699939
2020-12-31,0.02741187715962222
2021-01-04,-0.1234920286125672
2021-01-05,0.02964823384687127
2021-01-06,0.23298710994971505
2021-01-07,0.06781028916821454
2021-01-08,-0.06270126160700554
2021-01-11,0.11773146372302334
2021-01-12,-0.08257798559928368
2021-01-13,-0.009806845392346018
2021-01-14,-0.07806444218169463
2021-01-15,-0.07491407864674327
2021-01-18,0.07927115265423773
2021-01-19,0.06074571050133627
2021-01-20,-0.09483673810347602
2021-01-21,-0.05420046178438358
2021-01-22,0.16746955466678815
2021-01-25,-0.14628370602503615
2021-01-26,-0.044941591633162706
2021-01-27,0.039338945453640736
2021-01-28,0.12121949523743622
2021-01-29,-0.18986222902572836
2021-02-01,0.007575984130308147
2021-02-02,0.0242829949913357
2021-02-03,0.024084161982993887
2021-02-04,-0.002507767464398007
2021-02-05,0.08655845065112466
2021-02-08,-0.10913165266106403
2021-02-09,0.13499341565356487
2021-02-10,0.0015479156286322768
2021-02-18,0.23620003233941278
2021-02-19,0.09919625798801408
2021-02-22,0.6115565031982954
2021-02-23,0.026151278772993364
2021-02-24,0.01803636252707675
2021-02-25,-0.2865365309948799
2021-02-26,-0.039157762413579045
2021-03-01,-0.6178685175437824
2021-03-02,-0.1958746396654823
2021-03-03,-0.04783163265306309
2021-03-04,-0.07390274654126537
2021-03-05,-0.11970283802331574
2021-03-08,0.17021669129208966
2021-03-09,0.1290058161142657
2021-03-10,0.08095335039553342
2021-03-11,0.06524411661397977
2021-03-12,0.017966847586917224
2021-03-15,-0.15558097752463854
2021-03-16,-0.2280357900198037
2021-03-17,-0.11625904046817034
2021-03-18,-0.0107452499538867
2021-03-19,0.24055454567487977
2021-03-22,0.13089600091923367
2021-03-23,0.2253861454215026
2021-03-24,0.04594260063043282
2021-03-25,0.10780853149992685
2021-03-26,-0.3018758347023781
2021-03-29,0.09874620206914894
2021-03-30,-0.11004309718657221
2021-03-31,0.044005771686504006
2021-04-01,-0.07213991269477875
2021-04-02,0.11529095236453406
2021-04-06,-0.22488319564343295
2021-04-07,0.06510769724439243
2021-04-08,-0.04811072735708084
2021-04-09,-0.14259099534241743
2021-04-12,0.054466811624691566
2021-04-13,0.11000862812770179
2021-04-14,-0.10363634510107553
2021-04-15,0.0404327940473734
2021-04-16,0.1596832058485036
2021-04-19,-0.05700277276797867
2021-04-20,0.01157933436196118
2021-04-21,0.21166813805750276
2021-04-22,-0.09574603007998028
2021-04-23,-0.07778013418596079
2021-04-26,-0.12254875974142361
2021-04-27,0.10449537597243329
2021-04-28,-0.2891872029406164
2021-04-29,0.0004590676446018793
2021-04-30,0.2543196483837038
2021-05-06,0.3015928261198933
2021-05-07,-0.13424275849187908
2021-05-10,0.2308926601336901
2021-05-11,0.14907501462123657
2021-05-12,-0.08488582165052472
2021-05-13,-0.16492660376848614
2021-05-14,0.08136890878001773
2021-05-17,-0.042924428744402554
2021-05-18,-0.1038923031899346
2021-05-19,-0.15948354771884293
2021-05-20,-0.0578079165610412
2021-05-21,-0.13584884576345546
2021-05-24,-0.0908510452199802
2021-05-25,0.026614333178399053
2021-05-26,0.0220035703906676
2021-05-27,-0.03655660377358352
2021-05-28,0.14303753555817614
2021-05-31,0.06836128273021688
2021-06-01,0.0012620563997128018
2021-06-02,-0.03840430847815318
2021-06-03,0.03408003729987566
2021-06-04,-0.0845638346206255
2021-06-07,0.11531246070664902
2021-06-08,-0.03702608934510965
2021-06-09,-0.015378800734305823
2021-06-10,0.05186420942244498
2021-06-11,-0.04477694836932288
2021-06-15,-0.18284184068773635
2021-06-16,0.01080110659838399
2021-06-17,0.013409949720496472
2021-06-18,0.03646796501771914
2021-06-21,0.12791124067784007
2021-06-22,0.03550184915229222
2021-06-23,0.12770562770563162
2021-06-24,0.06488522238163472
2021-06-25,-0.01256577337249009
2021-06-28,-0.08339851434693242
2021-06-29,0.05625040472908663
2021-06-30,-0.1281471737962458
2021-07-01,0.06578087375300848
2021-07-02,-0.06645344276145251
2021-07-05,0.10803548303548044
2021-07-06,-0.07654344806297281
2021-07-07,0.15149864942987717
2021-07-08,-0.10774225953431493
2021-07-09,0.06374943068353256
2021-07-12,-0.14670963364992767
2021-07-13,-0.009982456140348636
2021-07-14,-0.2533099024759112
2021-07-15,0.1928408785832879
2021-07-16,-0.0787659037197696
2021-07-19,0.23012714206743531
2021-07-20,0.17204246284500904
2021-07-21,0.09745820395304101
2021-07-22,-0.2029979020031166
2021-07-23,0.06800263843954761
2021-07-26,-0.24467028003613014
2021-07-27,-0.1691526886086227
2021-07-28,0.1045534860817412
2021-07-29,0.02842559874361513
2021-07-30,-0.07084566287602102
2021-08-02,0.11419319277938816
2021-08-03,0.1077604765616072
2021-08-04,-0.09805599907820257
2021-08-05,-0.003043735224580041
2021-08-06,0.09713214319586301
2021-08-09,-0.07823750969314831
2021-08-10,-0.023216460843657076
2021-08-11,-0.057786843376584074
2021-08-12,-0.00801913661976543
2021-08-13,-0.07979836055323716
2021-08-16,-0.05877278639086502
2021-08-17,-0.20450332447419484
2021-08-18,0.08769803230933897
2021-08-19,0.3042155811284044
2021-08-20,0.014618974378305494
2021-08-23,0.23312002105461677
2021-08-24,0.2312084650545912
2021-08-25,-0.040475011488612406
2021-08-26,-0.27239891584303705
2021-08-27,-0.007888585897936822
2021-08-30,-0.2543531764344002
2021-08-31,-0.08840120667569365
2021-09-01,0.17245540078201005
2021-09-02,-0.06299698002382727
2021-09-03,0.05462184873949279
2021-09-06,0.1339542970690542
2021-09-07,0.11260373955559444
2021-09-08,-0.18948374141728103
2021-09-09,-0.03696089864346451
2021-09-10,0.08237369021683316
2021-09-13,0.10804531690508648
2021-09-14,-0.04829105923013749
2021-09-15,0.5877347564532034
2021-09-16,0.2929730700384224
2021-09-17,-0.030602642174972564
2021-09-22,-0.039858015791895754
2021-09-23,0.10207980414883834
2021-09-24,-0.6471686436389352
2021-09-27,-0.016820779353304754
2021-09-28,-0.017705610670421534
2021-09-29,-0.04685034366818897
2021-09-30,-0.07005136250209974
2021-10-08,0.286132209105689
2021-10-11,-0.18115943719721697
2021-10-12,-0.05765674358230572
2021-10-13,0.14864813942534244
2021-10-14,-0.15291835200407627
2021-10-15,-0.2986567772100428
2021-10-18,-0.1406505940668494
2021-10-19,-0.057425715982622944
2021-10-20,-0.3847845870849096
2021-10-21,0.10628469632943743
2021-10-22,0.18700378512427526
2021-10-25,0.1520406775193901
2021-10-26,0.045942573178374975
2021-10-27,0.22154672905252965
2021-10-28,0.0341417219088451
2021-10-29,-0.16283631865813508
2021-11-01,-0.012071765326358067
2021-11-02,0.038528860095510646
2021-11-03,-0.09474130023810312
2021-11-04,-0.08326711394660702
2021-11-05,0.044146967503957316
2021-11-08,0.007866450635314612
2021-11-09,-0.1044903209398331
2021-11-10,0.0667997771317152
2021-11-11,-0.054072884538589695
2021-11-12,0.038027501185397494
2021-11-15,0.10171895052389113
2021-11-16,0.056738688896365325
2021-11-17,-0.12236622722917434
2021-11-18,0.05706554565002364
2021-11-19,0.014307250799186006
2021-11-22,-0.20438752062247206
2021-11-23,0.053918597603617974
2021-11-24,0.17879484338916252
2021-11-25,0.0075019701835344794
2021-11-26,-0.00856640356897979
2021-11-29,0.0267292853728663
2021-11-30,-0.02089417844419046
2021-12-01,0.03904317360108293
2021-12-02,0.086402501803129
2021-12-03,0.03144325536145326
2021-12-06,0.0644875808197541
2021-12-07,-0.11423226748070263
2021-12-08,-0.12619007379865826
2021-12-09,-0.10340740740741092
2021-12-10,-0.14196391212771345
2021-12-13,0.12093293601787931
2021-12-14,0.07941690841163425
2021-12-15,0.08862152401027942
2021-12-16,0.036211188062415675
2021-12-17,0.17811996163530258
2021-12-20,-0.1831254854094041
2021-12-21,0.0429910989521249
2021-12-22,-0.11341529240035914
2021-12-23,-0.04638630326978653
2021-12-24,-0.10144410408379687
2021-12-27,0.2601269810497739
2021-12-28,-0.04122891219665535
2021-12-29,0.09652423170617468
2021-12-30,-0.023242623452074083
2021-12-31,0.03703357125899488
2022-01-04,-0.3376196466663025
2022-01-05,0.04937307616532575
2022-01-06,-0.16017320662993206
2022-01-07,0.18225796104282135
2022-01-10,0.11004423262623425
2022-01-11,0.027457427317530772
2022-01-12,0.0043884832096472565
2022-01-13,0.1154158201409464
2022-01-14,-0.06354345104326134
2022-01-17,-0.1672680040409894
2022-01-18,0.29828362703255035
2022-01-19,0.0003005672677991317
2022-01-20,0.034924588349244265
2022-01-21,-0.028582485625827124
2022-01-24,0.10872224941051198
2022-01-25,-0.32763362769500315
2022-01-26,0.04567611138994036
2022-01-27,0.004069490718707127
2022-01-28,0.03720047558075841
2022-02-07,0.17212022775384822
2022-02-08,0.20212862611207086
2022-02-09,-0.08252168318174882
2022-02-10,-0.021299834114609537
2022-02-11,-0.04935419638467039
2022-02-14,-0.38642015526639306
2022-02-15,0.0570892555552917
2022-02-16,-0.10704208306126749
2022-02-17,0.11900238911258652
2022-02-18,-0.16224307189875004
2022-02-21,0.05929703566754699
2022-02-22,-0.2605748208074091
2022-02-23,0.14946005686768118
2022-02-24,-0.20250838103245983
2022-02-25,0.47063133066046015
2022-02-28,0.271388817900442
2022-03-01,0.1536351165980801
2022-03-02,0.0818395371770899
2022-03-03,0.23220763903682964
2022-03-04,-0.2821951290908058
2022-03-07,0.0774319519729616
2022-03-08,0.05192178017532081
2022-03-09,0.03918028578762678
2022-03-10,-0.059145395633553324
2022-03-11,-0.011147563869883848
2022-03-14,-0.3569276852683717
2022-03-15,-0.026064557016243287
2022-03-16,-0.3094836670179137
2022-03-17,-0.2917938999027613
2022-03-18,-0.20754447899756814
2022-03-21,0.011066332215770122
2022-03-22,-0.16887274422337759
2022-03-23,0.07550018607453796
2022-03-24,0.20128617363344248
2022-03-25,0.21190009365377765
2022-03-28,0.2035293325250886
2022-03-29,0.15418177416603737
2022-03-30,0.08348796419018856
2022-03-31,0.08980582524271938
2022-04-01,0.020552413079736587
2022-04-06,-0.22652409206494048
2022-04-07,-0.025854135598677067
2022-04-08,-0.020980832984029335
2022-04-11,-0.12493756928287003
2022-04-12,-0.005344921962105231
2022-04-13,0.15867545260915933
2022-04-14,-0.03634492430743449
2022-04-15,0.009937888198750609
2022-04-18,0.08378731382248047
2022-04-19,-0.15220062999081943
2022-04-20,-0.10087199436924878
2022-04-21,0.04152221823577858
2022-04-22,-0.02966666475981751
2022-04-25,0.07336208112586054
2022-04-26,0.21434755275617112
2022-04-27,0.07088283699626281
2022-04-28,0.011991978146757868
2022-04-29,0.0977359716905147
2022-05-05,-0.35956110397887436
2022-05-06,-0.16172953311076865
2022-05-09,0.11917130599980671
2022-05-10,0.10156485319640325
2022-05-11,-0.15445674148566624
2022-05-12,0.29771537284145666
2022-05-13,-0.02856732112051366
2022-05-16,-0.1771914078860865
2022-05-17,-0.11192025852259478
2022-05-18,0.1117842599517993
2022-05-19,-0.11280349871814016
2022-05-20,0.11071365483130202
2022-05-23,0.04328481836469856
2022-05-24,-0.0018662439922299615
2022-05-25,-0.09424928441321828
2022-05-26,0.28150481838398844
2022-05-27,0.01867146094349992
2022-05-30,0.009096861802406805
2022-05-31,0.02082059215022942
2022-06-01,0.07296204805748785
2022-06-02,-0.39804104298368925
2022-06-06,-0.03333709731298959
2022-06-07,0.05248018495535446
2022-06-08,0.04032153674891077
2022-06-09,0.07737189244038545
2022-06-10,0.15272944738268573
2022-06-13,0.06978424834538383
2022-06-14,-0.07531836813709747
2022-06-15,-0.10066951230135861
2022-06-16,-0.12069716775598774
2022-06-17,-0.017089340628621892
2022-06-20,-0.2031829659226022
2022-06-21,0.029715762273906057
2022-06-22,0.042371091418341125
2022-06-23,0.03574346405228078
2022-06-24,0.24781341107872182
2022-06-27,0.3317882500091986
2022-06-28,0.01783590963138503
2022-06-29,0.031429262004511155
2022-06-30,-0.03301580514379516
2022-07-01,-0.2888419273034708
2022-07-04,-0.28971991765953553
2022-07-05,-0.05828221367601712
2022-07-06,0.1775021734405564
2022-07-07,0.19610108661632297
2022-07-08,0.05578666140148747
2022-07-11,0.194703626495187
2022-07-12,0.08442335949396015
2022-07-13,-0.3366502683363174
2022-07-14,-0.26649136612860896
2022-07-15,0.17990699237456056
2022-07-18,-0.05342015658548381
2022-07-19,0.018703754579598948
2022-07-20,0.1818023174647528
2022-07-21,0.184867908264789
2022-07-22,-0.26483518995443645
2022-07-25,-0.18910496934199644
2022-07-26,-0.06474479351706264
2022-07-27,-0.15990668465908925
2022-07-28,-0.12344414684102684
2022-07-29,0.05241569791409007
2022-08-01,0.08975766285183487
2022-08-02,-0.1147145400018009
2022-08-03,0.10664072445410094
2022-08-04,0.17695301640255884
2022-08-05,0.053984753984752776
2022-08-08,0.13687137272042554
2022-08-09,0.11308848658956681
2022-08-10,0.10978273105932632
2022-08-11,-0.32836647989656087
2022-08-12,-0.04309267484754638
2022-08-15,-0.14938834750155167
2022-08-16,0.02209494487582446
2022-08-17,-0.06269925760906395
2022-08-18,0.23830816781760158
2022-08-19,0.04838558089078375
2022-08-22,0.0343317829423071
2022-08-23,0.015372023850771736
2022-08-24,-0.16461555720574994
2022-08-25,-0.07789023810835499
2022-08-26,0.08246491756985189
2022-08-29,-0.08922805204501515
2022-08-30,-0.07777016363671588
2022-08-31,0.16962881022615206
2022-09-01,0.00430117907009446
2022-09-02,-0.041509477364741316
2022-09-05,0.23193061840120777
2022-09-06,0.055862668012264916
2022-09-07,-0.02695611553732799
2022-09-08,0.09114170592460105
2022-09-09,0.0013206901793872058
2022-09-13,-0.2552867615351433
2022-09-14,0.064136525050083
2022-09-15,-0.03152695753893458
2022-09-16,-0.11088621389003653
2022-09-19,-0.09908830717777437
2022-09-20,0.1988274561955865
2022-09-21,-0.15472316241804118
2022-09-22,0.010883095480206722
2022-09-23,0.17233714822972812
2022-09-26,0.006383753337296676
2022-09-27,-0.08903060111046932
2022-09-28,0.0016779262417093571
2022-09-29,0.08832532267086632
2022-09-30,-0.21984133045653204
2022-10-10,0.012332480261880548
2022-10-11,0.16698415932358873
2022-10-12,0.19752120263531345
2022-10-13,-0.09480756031888463
2022-10-14,0.12107780716361254
2022-10-17,0.02877407450121068
2022-10-18,-0.29755002976599365
2022-10-19,-0.22079540733466985
2022-10-20,-0.15569855007305933
2022-10-21,-0.06959688346883065
2022-10-24,-0.016179210512569455
2022-10-25,0.21731041683304225
2022-10-26,0.20491599008407874
2022-10-27,0.18459639953542467
2022-10-28,0.19633967223252408
2022-10-31,0.26952485656614367
2022-11-01,0.11347654285508461
2022-11-02,-0.11993657398708671
2022-11-03,0.010312384130512216
2022-11-04,-0.13224177579239796
2022-11-07,-0.32951407825099954
2022-11-08,-0.3575812019748302
2022-11-09,0.015334063526834614
2022-11-10,0.008124969773184661
2022-11-11,0.040498932169858656
2022-11-14,-0.0502192286729919
2022-11-15,0.15755475319572884
2022-11-16,-0.0838323353293399
2022-11-17,-0.034368726452717276
2022-11-18,-0.22741186926039403
2022-11-21,0.27673352866050516
2022-11-22,0.025374901933349507
2022-11-23,0.09063505641777282
2022-11-24,-0.03699655537890765
2022-11-25,0.17247690801515242
2022-11-28,-0.16992553118808654
2022-11-29,0.18164041149963603
2022-11-30,0.01872280443709248
2022-12-01,-0.08649984171580305
2022-12-02,-0.02333988508346238
2022-12-05,-0.04361020568730771
2022-12-06,-0.32842906136367883
2022-12-07,0.01472871176261207
2022-12-08,0.2815272265344339
2022-12-09,0.09339853727505226
2022-12-12,0.2851043643263732
2022-12-13,0.15006912100914588
2022-12-14,-0.08679679047962685
2022-12-15,-0.23606651529204709
2022-12-16,-0.12383671502578619
2022-12-19,-0.3758344668186397
2022-12-20,-0.011453849707121483
2022-12-21,0.019582380087785456
2022-12-22,0.173519825454115
2022-12-23,0.2362433884519043
2022-12-26,0.05006104633933754
2022-12-27,0.05939617086814354
2022-12-28,0.03794918409271369
2022-12-29,-0.14541715628672844
2022-12-30,-0.2622593068035888
2023-01-03,0.17925925925925992
2023-01-04,-0.10225480920845093
2023-01-05,0.002804092459266822
2023-01-06,-0.014492753623182718
2023-01-09,-0.07565827195343212
2023-01-10,-0.1445868945868957
2023-01-11,-0.0006568144499191977
2023-01-12,0.007946026986505822
2023-01-13,0.2770178993583208
2023-01-16,0.15759054758686544
2023-01-17,0.037630808907406416
2023-01-18,0.03427586206896647
2023-01-19,0.004630037922214083
2023-01-20,-0.34200001868826757
2023-01-30,0.08866729492208812
2023-01-31,0.05974151573764821
2023-02-01,0.014000000000003942
2023-02-02,0.08027067067721136
2023-02-03,0.19359683794466218
2023-02-06,-0.12316303496567879
2023-02-07,-0.06019283746556492
2023-02-08,-0.019963702359350743
2023-02-09,-0.21960280199717352
2023-02-10,-0.060740178401978234
2023-02-13,-0.03978112984324364
2023-02-14,0.006607275426869261
2023-02-15,0.02682869091769958
2023-02-16,0.08341750841751269
2023-02-17,-0.08095026230485335
2023-02-20,0.1183731727210024
2023-02-21,0.10865376874983733
2023-02-22,0.042132784270153475
2023-02-23,-0.006547963713567518
2023-02-24,0.07039688844411808
2023-02-27,-0.04356478694227146
2023-02-28,-0.15665298556865073
2023-03-01,-0.10125430489500772
2023-03-02,0.0786999345497435
2023-03-03,-0.11077812605896327
2023-03-06,-0.007125038137802814
2023-03-07,0.09918179646440557
2023-03-08,0.09469685036888242
2023-03-09,-0.027339340718199767
2023-03-10,0.19067500481973776
2023-03-13,-0.05542950778344475
2023-03-14,-0.00470343531937558
2023-03-15,-0.04001901079632867
2023-03-16,0.06444296935500765
2023-03-17,0.018502632419978307
2023-03-20,0.10303749406739068
2023-03-21,-0.013893711419752649
2023-03-22,-0.05290674439925295
2023-03-23,-0.11856495065349885
2023-03-24,-0.14513303822171053
2023-03-27,-0.02252659453042602
2023-03-28,-0.029929396881842173
2023-03-29,0.06393835169140707
2023-03-30,-0.020879707548369042
2023-03-31,-0.009887359199003597
2023-04-03,0.08262863534675233
2023-04-04,0.06479400378229433
2023-04-06,0.09524273737570643
2023-04-07,0.04600902307825493
2023-04-10,0.0667758156940745
2023-04-11,-0.2746252465483218
2023-04-12,-0.10960759235176258
2023-04-13,-0.15981740967308977
2023-04-14,0.04778633167737741
2023-04-17,-0.021282063718623623
2023-04-18,0.13657114828409334
2023-04-19,0.12272234698193814
2023-04-20,-0.0010975636496431962
2023-04-21,-0.017531915861463736
2023-04-24,0.07295037364227912
2023-04-25,0.14047097805962994
2023-04-26,-0.044600861241942305
2023-04-27,0.1620591380824588
2023-04-28,-0.08869387407343934
2023-05-04,-0.061842818428187715
2023-05-05,-0.07623647890453089
2023-05-08,-0.035155801854562144
2023-05-09,-0.1586203047385155
2023-05-10,0.12344699973566017
2023-05-11,-0.08646957378664598
2023-05-12,-0.10660619164512655
2023-05-15,0.12328634761850578
2023-05-16,-0.03275428437737857
2023-05-17,-0.06694784762670124
2023-05-18,0.1231745546295599
2023-05-19,0.1882463035747691
2023-05-22,0.06392190152801609
2023-05-23,0.09542366107114568
2023-05-24,0.10764231297870153
2023-05-25,0.01390433815350383
2023-05-26,-0.12307692307691946
2023-05-29,-0.33745612568945527
2023-05-30,0.02384696016771348
2023-05-31,-0.021269445926982516
2023-06-01,0.08557516737674836
2023-06-02,-0.004718631340930059
2023-06-05,0.20826039770340266
2023-06-06,-0.08356236296822248
2023-06-07,-0.14789403468648704
2023-06-08,-0.31983587009889525
2023-06-09,-0.06721673922457864
2023-06-12,0.03009446013177232
2023-06-13,0.12545180665166739
2023-06-14,0.04464900302497191
2023-06-15,0.19484221581342342
2023-06-16,0.14219178082191325
2023-06-19,-0.1607215494852743
2023-06-20,-0.2354392462284229
2023-06-21,-0.006029532158500488
2023-06-26,0.005358037699000947
2023-06-27,-0.02892655367231211
2023-06-28,0.03277907010137292
2023-06-29,0.32883448134761173
2023-06-30,0.028567493112941815
2023-07-03,-0.10523573847356776
2023-07-04,-0.20885122410546275
2023-07-05,0.10967234357645465
2023-07-06,-0.34130531750325266
2023-07-07,0.19677042801556582
2023-07-10,0.07123695976155903
2023-07-11,0.32827945001857967
2023-07-12,0.06363922061596372
2023-07-13,0.2102795403001862
2023-07-14,-0.11120367738583668
2023-07-17,0.30772833723652937
2023-07-18,-0.17050167224079854
2023-07-19,-0.17620377960909764
2023-07-20,-0.010122240696012787
2023-07-21,-0.18946636452934207
2023-07-24,-0.49938518212384797
2023-07-25,0.05867403314916903
2023-07-26,0.13779457624443253
2023-07-27,-0.0766486293631426
2023-07-28,0.24671211389961806
2023-07-31,0.21592667718427916
2023-08-01,-0.0981706006548913
2023-08-02,-0.08618056634053368
2023-08-03,0.2502216639574432
2023-08-04,-0.2724428901437374
2023-08-07,-0.02130414506350329
2023-08-08,0.08376841216591023
2023-08-09,0.0904913458101236
2023-08-10,-0.35997093086792487
2023-08-11,0.13963039014373588
2023-08-14,0.07153673112034555
2023-08-15,0.0029558781120873276
2023-08-16,-0.22526694455547072
2023-08-17,0.3214635753240155
2023-08-18,0.23357137021975352
2023-08-21,-0.0061032331707732285
2023-08-22,-0.06984366283884066
2023-08-23,0.17610234817388293
2023-08-24,-0.25574127781363476
2023-08-25,-0.40094425157568514
2023-08-28,-0.05636064182175263
2023-08-29,0.05800055545118006
2023-08-30,0.11964427468117353
2023-08-31,0.07335055017173492
2023-09-01,0.27723835220795046
2023-09-04,0.0197547999074741
2023-09-05,0.05846768002456534
2023-09-06,-0.10304720063083993
2023-09-07,0.20295253863135163
2023-09-08,-0.15648201220540175
2023-09-11,-0.09414013956600664
2023-09-12,0.0464226186801627
2023-09-13,-0.025554769995672445
2023-09-14,-0.3310045317220549
2023-09-15,0.004288499025338684
2023-09-18,0.24039830129377804
2023-09-19,-0.20135599517042535
2023-09-20,-0.037828772793849344
2023-09-21,0.21784081490789758
2023-09-22,0.0851616502357875
2023-09-25,-0.15364003735609344
2023-09-26,0.013471018187996578
2023-09-27,-0.11072956114297855
2023-09-28,-0.13853861781619775
2023-10-09,-0.06362362869776539
2023-10-10,-0.04083275475191691
2023-10-11,0.03236777214418525
2023-10-12,0.16290127592075032
2023-10-13,0.022073731526144953
2023-10-16,0.03004928004928311
2023-10-17,-0.08775979275014806
2023-10-18,0.10592291902114892
2023-10-19,-0.019900414196557782
2023-10-20,0.08571213821316706
2023-10-23,-0.06262352840079209
2023-10-24,0.15571595610721084
2023-10-25,-0.1514407232841255
2023-10-26,0.04448361479122429
2023-10-27,0.14023999430280581
2023-10-30,0.016097188396186762
2023-10-31,-0.044765970904483435
2023-11-01,0.11561848281144005
2023-11-02,-0.06900040799673071
2023-11-03,-0.27570387129210383
2023-11-06,0.07020825721593754
2023-11-07,-0.06226761701815565
2023-11-08,-0.015153954302029034
2023-11-09,-0.009417747266721765
2023-11-10,-0.0071295591097595284
2023-11-13,0.13738849385906926
2023-11-14,0.08456051418610364
2023-11-15,0.015179287432692496
2023-11-16,-0.007306084785322645
2023-11-17,0.19877788242861377
2023-11-20,-0.21463346779801512
2023-11-21,0.17824829773341758
2023-11-22,-0.06648223394137828
2023-11-23,0.09096163385020083
2023-11-24,-0.21752160462691827
2023-11-27,-0.03988511423595851
2023-11-28,-0.342346489274293
2023-11-29,0.044861112480646274
2023-11-30,-0.0673543628342562
2023-12-01,0.2127404305762648
2023-12-04,0.21912867074045295
2023-12-05,0.239634210200605
2023-12-06,-0.056315437042881465
2023-12-07,-0.02077645370935708
2023-12-08,-0.08024996528259487
2023-12-11,-0.1785082237664288
2023-12-12,-0.1868779676784968
2023-12-13,0.12811472363080018
2023-12-14,0.037948577361918014
2023-12-15,-0.08715955143297273
2023-12-18,0.025042944521450363
2023-12-19,0.15818971772619878
2023-12-20,0.04827144727591598
2023-12-21,-0.053943466961503164
2023-12-22,0.1191318388393821
2023-12-25,-0.04638320190069817
2023-12-26,-0.15385132293227607
2023-12-27,-0.30400641025640773
2023-12-28,0.05332039862421574
2023-12-29,-0.08119188813236189
2024-01-02,0.18098015068096482
2024-01-03,0.10294721619667972
2024-01-04,0.19985079575596595
2024-01-05,0.02996414164051717
2024-01-08,0.04688970651150357
2024-01-09,-0.24107142857143282
2024-01-10,0.2187563025210028
2024-01-11,-0.0932509453775128
2024-01-12,-0.12912434149169233
2024-01-15,0.017162944582302664
2024-01-16,0.1354438642297692
2024-01-17,-0.34295268494994857
2024-01-18,0.13152190689652993
2024-01-19,0.09046454767726159
2024-01-22,0.0116388987356675
2024-01-23,0.005387270334876265
2024-01-24,0.007174737407299597
2024-01-25,-0.13470014234021171
2024-01-26,0.04702194357367574
2024-01-29,-0.053184839112972296
2024-01-30,0.07810825937475149
2024-01-31,0.16708997373817233
2024-02-01,0.15124096330063735
2024-02-02,-0.034915406043415545
2024-02-05,-0.16266510042116974
2024-02-06,-0.024374176548088572
2024-02-07,0.07738966586340709
2024-02-08,-0.1820756257142452
2024-02-19,-0.00680149774246233
2024-02-20,0.45168600320661534
2024-02-21,-0.13361480416816604
2024-02-22,-0.2674491645578603
2024-02-23,0.09298408358558871
2024-02-26,0.028028293545538218
2024-02-27,-0.32915403602270016
2024-02-28,0.030018173164292485
2024-02-29,0.15091799924621657
2024-03-01,0.0024353741496542366
2024-03-04,-0.009269162210344392
2024-03-05,-0.04710752904132448
2024-03-06,0.005045906366195944
2024-03-07,-0.07297658051207609
2024-03-08,0.015324894514772664
2024-03-11,0.0446858288770104
2024-03-12,0.04366115462720746
2024-03-13,0.0475613586395594
2024-03-14,0.18133647870071887
2024-03-15,0.10896339377352149
2024-03-18,-0.10971385542168839
2024-03-19,0.06309324399776842
2024-03-20,-0.06096986635578248
2024-03-21,-0.1740992274569357
2024-03-22,-0.1599777860051852
2024-03-25,-0.08154326708543687
2024-03-26,-0.020524701429223243
2024-03-27,0.10818348864680583
2024-03-28,0.006269290123459781
2024-03-29,-0.08099867432612122
2024-04-01,0.21041921041921313
2024-04-02,-0.04088504088504306
2024-04-03,-0.1725510395205039
2024-04-08,0.10695489646352267
2024-04-09,0.0631750634287864
2024-04-10,-0.1394993894993951
2024-04-11,0.16265866475071716
2024-04-12,0.14781037208816075
2024-04-15,-0.010059419139755235
2024-04-16,0.25833197353066734
2024-04-17,0.04546484495064277
2024-04-18,-0.09781472463837307
2024-04-19,0.23167846647540605
2024-04-22,-0.12288202935198617
2024-04-23,-0.20455027978454457
2024-04-24,-0.03714677413256709
2024-04-25,-0.0888613334764678
2024-04-26,-0.47708694575179944
2024-04-29,0.0554977984344346
2024-04-30,-0.19899080735411523
2024-05-06,0.18674749163879015
2024-05-07,0.22998070198903497
2024-05-08,0.13835307236446226
2024-05-09,0.05610145699211485
2024-05-10,0.3234227871939691
2024-05-13,-0.14347826086955573
2024-05-14,-0.25481028798548944
2024-05-15,0.059272593926057555
2024-05-16,-0.011894352278847012
2024-05-17,0.16086083853702418
2024-05-20,0.02051282051281089
2024-05-21,0.20824667142358969
2024-05-22,0.013552188552186036
2024-05-23,0.041726288403405316
2024-05-24,-0.5144736842105283
2024-05-27,0.00414471373376463
2024-05-28,-0.06809448311074051
2024-05-29,0.016377694470480035
2024-05-30,-0.06971587129203088
2024-05-31,0.30695583179053515
2024-06-03,0.12020227883753176
2024-06-04,-0.12926988977409531
2024-06-05,-0.05465655044596155
2024-06-06,-0.10228687312616358
2024-06-07,-0.1088820390612864
2024-06-11,-0.39285981308411105
2024-06-12,0.14502822405558197
2024-06-13,0.1425717852684139
2024-06-14,0.10279828446881299
2024-06-17,0.036526302675426614
2024-06-18,0.22390361445782814
2024-06-19,0.027055424218546953
2024-06-20,-0.2196825396825391
2024-06-21,0.08030303030303478
2024-06-24,0.005854591608718282
2024-06-25,0.07394975797618525
2024-06-26,-0.21153182978136997
2024-06-27,0.09249425815341827
2024-06-28,-0.13235294117647411
2024-07-01,-0.0947863925659266
2024-07-02,-0.06113156792273641
2024-07-03,0.013414193767661037
2024-07-04,0.1410771704180048
2024-07-05,0.11798512508451178
2024-07-08,0.13250563499980195
2024-07-09,-0.08118755793593795
2024-07-10,0.27636128847119945
2024-07-11,-0.1347719869706807
2024-07-12,-0.21370235934663118
2024-07-15,-0.10428728977115456
2024-07-16,0.11287391668996852
2024-07-17,-0.13849056603774443
2024-07-18,-0.08434566008813443
2024-07-19,0.19668489405331008
2024-07-22,0.12353592909148427
2024-07-23,-0.05515719801433757
2024-07-24,-0.09999999999999204
2024-07-25,0.19846547314577578
2024-07-26,0.018918089784224476
2024-07-29,-0.05849068022269671
2024-07-30,0.17343516613588653
2024-07-31,0.2626923076923021
2024-08-01,-0.11518793448804421
2024-08-02,-0.10374285406104454
2024-08-05,0.02664139310113719
2024-08-06,-0.2290970902909686
2024-08-07,-0.3573911028730274
2024-08-08,0.010840108401087147
2024-08-09,0.07302269773022682
2024-08-12,-0.08311714129515674
2024-08-13,0.17528180761259488
2024-08-14,0.14810756819607718
2024-08-15,0.046476715147668254
2024-08-16,-0.07273049597729722
2024-08-19,0.0742342068372158
2024-08-20,0.010660614710501518
2024-08-21,0.05745542451551344
2024-08-22,-0.05845276305186125
2024-08-23,-0.006809428818103903
2024-08-26,0.08529869481754995
2024-08-27,-0.24041782705534795
2024-08-28,-0.11059841679997544
2024-08-29,-0.09632720119327873
2024-08-30,-0.0010918905655752861
2024-09-02,-0.12728773176803226
2024-09-03,0.23501511900117397
2024-09-04,0.41831689643446235
2024-09-05,0.20830324909746742
2024-09-06,0.12604732728571702
2024-09-09,-0.007752904741111875
2024-09-10,-0.04214895738501674
2024-09-11,-0.4012332795749933
2024-09-12,-0.030591259640092724
2024-09-13,-0.10238842040311648
2024-09-18,-0.00715429920387551
2024-09-19,0.020202020202021873
2024-09-20,-0.001179184824405946
2024-09-23,-0.14516631611748193
2024-09-24,0.265460802858338
2024-09-25,0.06679578199483201
2024-09-26,-0.13160676532769144
2024-09-27,0.09543249603765941
2024-09-30,0.3558451031098755
2024-10-08,-0.3170099481574902
2024-10-09,-0.00014855559793461315
2024-10-10,0.07406324501821565
2024-10-11,-0.08774305968081071
2024-10-14,-0.5124295347872367
2024-10-15,0.05869083835185655
2024-10-16,-0.17422668849958534
2024-10-17,0.06606624758220454
2024-10-18,0.12474193399064794
2024-10-21,0.2619716370645687
2024-10-22,-0.1437919882012095
2024-10-23,0.1025371077110584
2024-10-24,-0.22376336898395957
2024-10-25,-0.0754981348375906
2024-10-28,-0.053935185185188944
2024-10-29,0.3563241933143987
2024-10-30,0.1788390297869513
2024-10-31,0.17037488570557868
2024-11-01,-0.06398952422523128
2024-11-04,-0.04381433545261522
2024-11-05,-0.3402738756737772
2024-11-06,-0.12506268177715454
2024-11-07,0.24335060449050558
2024-11-08,0.15772818121253024
2024-11-11,0.12138865614135048
2024-11-12,0.10294414196411306
2024-11-13,-0.12647296206618092
2024-11-14,-0.5768270944741531
2024-11-15,-0.02095063239494714
2024-11-18,-0.11145058331498979
2024-11-19,0.15803488217280334
2024-11-20,0.17137947962689745
2024-11-21,0.3943028226294837
2024-11-22,-0.16439893555478605
2024-11-25,0.04824804334737458
2024-11-26,-0.15699693960562502
2024-11-27,-0.12413940712731364
2024-11-28,-0.1284228376264217
2024-11-29,0.0675187992511043
2024-12-02,0.029731117527057153
2024-12-03,0.05284744131017323
2024-12-04,0.13114499922586234
2024-12-05,0.12304294793044557
2024-12-06,0.05756673652516325
2024-12-09,-0.0974672456052382
2024-12-10,-0.0615078884145637
2024-12-11,-0.17142536476573553
2024-12-12,-0.16039515818724848
2024-12-13,-0.11991140642301976
2024-12-16,0.0923757852655609
2024-12-17,0.003457920162733205
2024-12-18,0.10256410256408911
2024-12-19,0.20726079376474354
2024-12-20,0.2317261904761793
2024-12-23,0.16960784313725744
2024-12-24,-0.004399014620727934
2024-12-25,0.04844290657440734
2024-12-26,-0.21803738162761171
2024-12-27,-0.14930194805195435
2024-12-30,-0.33137254901960755
2024-12-31,0.2844256679607221
