date,FCT_Demark_Atr_Dfive
2014-02-28,
2014-03-03,
2014-03-04,
2014-03-05,
2014-03-06,
2014-03-07,
2014-03-10,
2014-03-11,
2014-03-12,
2014-03-13,0.540035352201391
2014-03-14,0.6077186069990939
2014-03-17,0.6533957845433266
2014-03-18,0.15773809523809681
2014-03-19,0.0690789473684212
2014-03-20,0.12962962962962962
2014-03-21,0.0342465753425046
2014-03-24,0.023474178403766498
2014-03-25,0.05154639175259607
2014-03-26,0.3235294117646866
2014-03-27,0.3165467625899177
2014-03-28,0.46022727272726266
2014-03-31,0.7522123893805295
2014-04-01,0.9230769230769401
2014-04-02,0.345360824742294
2014-04-03,0.4824561403508878
2014-04-04,0.415841584158412
2014-04-08,0.4732142857142856
2014-04-09,0.3458333333333263
2014-04-10,0.7925531914893603
2014-04-11,0.7346938775510236
2014-04-14,0.5053763440860228
2014-04-15,0.38857142857142357
2014-04-16,0.33009708737863697
2014-04-17,0.12101910828022612
2014-04-18,0.10559006211177273
2014-04-21,0.22881355932201175
2014-04-22,0.5869565217391302
2014-04-23,0.9653179190751638
2014-04-24,0.9259259259259771
2014-04-25,0.9796610169491698
2014-04-28,0.8691588785046958
2014-04-29,0.6491803278688679
2014-04-30,0.4587458745874669
2014-05-05,0.5297619047618987
2014-05-06,0.11174785100285257
2014-05-07,0.2919896640826714
2014-05-08,0.3487654320987495
2014-05-09,0.5457227138642944
2014-05-12,0.4089635854341686
2014-05-13,0.6460176991150504
2014-05-14,0.36548223350254105
2014-05-15,0.30769230769230477
2014-05-16,0.0
2014-05-19,0.0
2014-05-20,0.1372549019607746
2014-05-21,0.4041095890410982
2014-05-22,0.7658536585365951
2014-05-23,0.9747899159663866
2014-05-26,1.0
2014-05-27,1.0
2014-05-28,0.9246376811594196
2014-05-29,0.7892857142857133
2014-05-30,0.5863453815261097
2014-06-03,0.5657370517928321
2014-06-04,0.0
2014-06-05,0.0844444444444412
2014-06-06,0.07723577235772013
2014-06-09,0.08755760368663067
2014-06-10,0.47397260273972025
2014-06-11,0.7578947368421004
2014-06-12,0.7444444444444415
2014-06-13,0.949494949494945
2014-06-16,1.0
2014-06-17,0.7979797979797976
2014-06-18,0.718749999999994
2014-06-19,0.637931034482752
2014-06-20,0.21582733812949184
2014-06-23,0.6449511400651424
2014-06-24,0.4829268292682901
2014-06-25,0.4562211981566819
2014-06-26,0.47368421052631676
2014-06-27,0.5280000000000072
2014-06-30,0.0
2014-07-01,0.3995271867612312
2014-07-02,0.6140651801029162
2014-07-03,0.623946037099492
2014-07-04,0.635761589403964
2014-07-07,1.0
2014-07-08,0.7767295597484251
2014-07-09,0.3624999999999847
2014-07-10,0.2738095238095168
2014-07-11,0.16666666666668173
2014-07-14,0.0
2014-07-15,0.0
2014-07-16,0.0
2014-07-17,0.1698717948717807
2014-07-18,0.3303030303030267
2014-07-21,0.39208633093524875
2014-07-22,0.45041322314049226
2014-07-23,0.6526946107784373
2014-07-24,0.27053140096620104
2014-07-25,0.0
2014-07-28,0.0
2014-07-29,0.08666666666667373
2014-07-30,0.06701030927835716
2014-07-31,0.16099856992855346
2014-08-01,0.1724331663467709
2014-08-04,0.2728493649537079
2014-08-05,0.5838936449095974
2014-08-06,0.9932448908587785
2014-08-07,0.9936920958525877
2014-08-08,1.0
2014-08-11,1.0
2014-08-12,0.3949981270164607
2014-08-13,0.17241379310341529
2014-08-14,0.2546583850931719
2014-08-15,0.2341772151898801
2014-08-18,0.16483516483517402
2014-08-19,0.3191489361702317
2014-08-20,0.479166666666668
2014-08-21,0.4186046511627635
2014-08-22,0.21556886227542638
2014-08-25,0.29577464788730673
2014-08-26,0.49068322981365503
2014-08-27,0.32307692307692965
2014-08-28,0.18777292576420343
2014-08-29,0.41242937853110223
2014-09-01,0.44680851063831634
2014-09-02,0.3918128654970785
2014-09-03,0.5714285714285714
2014-09-04,1.0
2014-09-05,1.0
2014-09-09,1.0
2014-09-10,0.9492753623188575
2014-09-11,0.9530201342282026
2014-09-12,0.9375000000000184
2014-09-15,0.42342342342344536
2014-09-16,0.418181818181823
2014-09-17,0.5957446808510524
2014-09-18,0.5985915492957726
2014-09-19,0.3297297297297212
2014-09-22,0.7432950191570871
2014-09-23,0.8074712643678145
2014-09-24,0.768987341772162
2014-09-25,0.7943661971831065
2014-09-26,0.9820895522388172
2014-09-29,0.928909952606647
2014-09-30,0.47465437788018605
2014-10-08,0.6129032258064483
2014-10-09,0.42279411764705066
2014-10-10,0.6133004926108362
2014-10-13,0.6014492753623163
2014-10-14,0.8018018018017934
2014-10-15,0.8417266187050277
2014-10-16,0.9595238095238052
2014-10-17,0.9476923076923012
2014-10-20,0.8953488372093036
2014-10-21,0.8841463414634074
2014-10-22,0.29677419354837714
2014-10-23,0.35375494071145736
2014-10-24,0.1502423263327971
2014-10-27,0.14463452566096585
2014-10-28,0.22269503546099773
2014-10-29,0.41534988713319104
2014-10-30,0.17984189723320743
2014-10-31,0.34146341463415375
2014-11-03,0.522935779816514
2014-11-04,0.3614864864864821
2014-11-05,0.45217391304347543
2014-11-06,0.8817204301075257
2014-11-07,0.6838905775075957
2014-11-10,0.5514950166112991
2014-11-11,0.7190082644628139
2014-11-12,0.5167597765363136
2014-11-13,0.31456953642384294
2014-11-14,0.3769841269841292
2014-11-17,0.4771784232365172
2014-11-18,0.07812500000000505
2014-11-19,0.4190140845070438
2014-11-20,0.459459459459466
2014-11-21,0.42049469964664965
2014-11-24,0.42049469964664965
2014-11-25,0.79804852780485
2014-11-26,0.4234500138445001
2014-11-27,0.4233583275957116
2014-11-28,0.6717778784839672
2014-12-01,0.6932236067537672
2014-12-02,0.6011301197860051
2014-12-03,0.9579917263904778
2014-12-04,1.0
2014-12-05,0.6565164503919896
2014-12-08,0.6111111111111251
2014-12-09,0.3526315789473826
2014-12-10,0.23125000000000961
2014-12-11,0.18012422360249092
2014-12-12,0.48765432098765615
2014-12-15,0.7331189710610915
2014-12-16,0.9382716049382714
2014-12-17,0.9553571428571428
2014-12-18,0.9837837837837863
2014-12-19,0.7566265060240969
2014-12-22,0.33411764705882524
2014-12-23,0.3060344827586214
2014-12-24,0.0957683741648081
2014-12-25,0.0
2014-12-26,0.0
2014-12-29,0.0
2014-12-30,0.34263959390862614
2014-12-31,0.456521739130439
2015-01-05,0.7745098039215693
2015-01-06,0.8034482758620693
2015-01-07,1.0
2015-01-08,0.7788461538461561
2015-01-09,0.8108552631578949
2015-01-12,0.4367201426024902
2015-01-13,0.34387351778655795
2015-01-14,0.22371364653243347
2015-01-15,0.3053892215568752
2015-01-16,0.004987531172065333
2015-01-19,0.00952380952380103
2015-01-20,0.09004739336491992
2015-01-21,0.11055276381908806
2015-01-22,0.2745901639344316
2015-01-23,0.7127659574468149
2015-01-26,0.8495575221238968
2015-01-27,0.3969849246231211
2015-01-28,0.3568075117370941
2015-01-29,0.11885245901639291
2015-01-30,0.25563909774436033
2015-02-02,0.12621359223300926
2015-02-03,0.4630225080385896
2015-02-04,0.5384615384615432
2015-02-05,0.6862745098039192
2015-02-06,0.6946564885496174
2015-02-09,0.9649122807017473
2015-02-10,0.5665024630541841
2015-02-11,0.3668122270742376
2015-02-12,0.4453441295546605
2015-02-13,0.44534412955465386
2015-02-16,0.4170212765957358
2015-02-17,0.7076923076923025
2015-02-25,1.0
2015-02-26,1.0
2015-02-27,0.9265306122449077
2015-03-02,0.945454545454553
2015-03-03,0.9469026548672647
2015-03-04,0.6722972972973076
2015-03-05,0.7104477611940372
2015-03-06,0.6010101010101009
2015-03-09,0.3159203980099511
2015-03-10,0.18013856812932658
2015-03-11,0.20911528150133518
2015-03-12,0.3544857768052478
2015-03-13,0.5023041474654322
2015-03-16,0.757612331459702
2015-03-17,0.9523800152072042
2015-03-18,1.0
2015-03-19,0.5857281400796072
2015-03-20,0.5074974386304448
2015-03-23,0.4026200723016008
2015-03-24,0.3943009644427672
2015-03-25,0.13897743784989108
2015-03-26,0.35002668036917406
2015-03-27,0.3803418803418758
2015-03-30,0.2772585669781926
2015-03-31,0.07068062827225126
2015-04-01,0.44444444444444114
2015-04-02,0.3348314606741547
2015-04-03,0.556414219474498
2015-04-07,0.6271777003484311
2015-04-08,0.8510638297872339
2015-04-09,0.645217391304347
2015-04-10,0.7571157495256147
2015-04-13,0.3828920570264719
2015-04-14,0.41935483870967505
2015-04-15,0.10169491525423989
2015-04-16,0.37044534412955804
2015-04-17,0.4476021314387226
2015-04-20,0.6072289156626528
2015-04-21,0.5484633569739941
2015-04-22,0.799999999999991
2015-04-23,0.324414715719058
2015-04-24,0.0
2015-04-27,0.3708133971291891
2015-04-28,0.3780487804878081
2015-04-29,0.4878048780487838
2015-04-30,0.6045340050377769
2015-05-04,0.7970588235293998
2015-05-05,0.30129870129869946
2015-05-06,0.42758620689654775
2015-05-07,0.22696629213483166
2015-05-08,0.31554524361949804
2015-05-11,0.2592592592592657
2015-05-12,0.606299212598435
2015-05-13,0.33870967741937086
2015-05-14,0.5941176470588354
2015-05-15,0.4782608695652181
2015-05-18,0.4342105263157838
2015-05-19,0.12686567164177798
2015-05-20,0.7363184079601849
2015-05-21,0.8037037037036943
2015-05-22,0.8287671232876641
2015-05-25,0.7311178247734124
2015-05-26,0.8672768878718526
2015-05-27,0.5450549450549406
2015-05-28,0.3681818181818163
2015-05-29,0.28601252609603117
2015-06-01,0.4297188755020086
2015-06-02,0.15400000000000402
2015-06-03,0.26933333333334436
2015-06-04,0.3753846153846286
2015-06-05,0.531986531986547
2015-06-08,0.32142857142859005
2015-06-09,0.496932515337442
2015-06-10,0.5638297872340514
2015-06-11,0.5119047619047589
2015-06-12,0.37593984962404214
2015-06-15,0.4999999999999717
2015-06-16,0.9958847736625469
2015-06-17,0.9953271028037333
2015-06-18,0.8688524590163947
2015-06-19,0.8548387096774244
2015-06-23,0.8582677165354387
2015-06-24,0.13636363636364843
2015-06-25,0.023026315789476642
2015-06-26,0.032727272727273896
2015-06-29,0.4276315789473677
2015-06-30,0.403433476394847
2015-07-01,0.557863501483679
2015-07-02,0.9172661870503609
2015-07-03,0.7666666666666644
2015-07-06,0.44666666666666627
2015-07-07,0.7642857142857182
2015-07-08,0.7833935018050532
2015-07-09,0.8692810457516343
2015-07-10,0.9887640449438233
2015-07-13,0.8488745980707352
2015-07-14,0.6523972602739693
2015-07-15,0.6633499170812582
2015-07-16,0.25724020442930434
2015-07-17,0.038260869565219104
2015-07-20,0.03900709219858369
2015-07-21,0.04330708661417576
2015-07-22,0.012195121951219233
2015-07-23,0.018404907975459725
2015-07-24,0.32107023411371566
2015-07-27,0.6874999999999983
2015-07-28,0.8699029126213574
2015-07-29,0.8632812499999971
2015-07-30,0.9941747572815521
2015-07-31,0.8339920948616589
2015-08-03,0.6846361185983895
2015-08-04,0.2784781249562882
2015-08-05,0.29575704889075355
2015-08-06,0.024649207660369037
2015-08-07,0.5918548090550235
2015-08-10,0.5417677058073481
2015-08-11,0.5897305566138172
2015-08-12,0.5371779931613029
2015-08-13,0.6069994297941735
2015-08-14,0.12670730981761116
2015-08-17,0.28571428571429125
2015-08-18,0.41025641025643306
2015-08-19,0.5172413793103549
2015-08-20,0.4531250000000252
2015-08-21,0.7341772151898835
2015-08-24,0.3975903614457989
2015-08-25,0.6551724137930934
2015-08-26,0.6644295302013417
2015-08-27,0.5028248587570631
2015-08-28,0.4611398963730596
2015-08-31,0.45641025641025773
2015-09-01,0.051194539249152675
2015-09-02,0.0
2015-09-07,0.2413793103448231
2015-09-08,0.3401162790697641
2015-09-09,0.34718100890207604
2015-09-10,0.7885462555066077
2015-09-11,0.840375586854456
2015-09-14,0.5248618784530384
2015-09-15,0.3874999999999962
2015-09-16,0.5403726708074439
2015-09-17,0.417322834645655
2015-09-18,0.46666666666666234
2015-09-21,0.7179487179487034
2015-09-22,0.46666666666666234
2015-09-23,0.2583333333333364
2015-09-24,0.0154639175257785
2015-09-25,0.11574074074074002
2015-09-28,0.09615384615384538
2015-09-29,0.37800687285224294
2015-09-30,0.3618421052631619
2015-10-08,0.6017316017315938
2015-10-09,0.7220543806646472
2015-10-12,0.8074324324324327
2015-10-13,0.4904458598726039
2015-10-14,0.6064516129032242
2015-10-15,0.4953271028037477
2015-10-16,0.09855072463768559
2015-10-19,0.20652173913043773
2015-10-20,0.3414634146341572
2015-10-21,0.22775800711744396
2015-10-22,0.37455830388692435
2015-10-23,0.841807909604516
2015-10-26,0.7379310344827527
2015-10-27,0.6799999999999705
2015-10-28,0.8173076923076736
2015-10-29,0.7121212121211963
2015-10-30,0.10256410256412402
2015-11-02,0.19354838709680927
2015-11-03,0.5490196078431907
2015-11-04,0.799999999999997
2015-11-05,0.8571428571428503
2015-11-06,0.6906474820143896
2015-11-09,0.6351351351351314
2015-11-10,0.6249999999999892
2015-11-11,0.4218749999999961
2015-11-12,0.10588235294117745
2015-11-13,0.5400843881856523
2015-11-16,0.6677966101694934
2015-11-17,0.66089965397924
2015-11-18,0.7417218543046366
2015-11-19,1.0
2015-11-20,1.0
2015-11-23,1.0
2015-11-24,1.0
2015-11-25,1.0
2015-11-26,1.0
2015-11-27,0.826352421777481
2015-11-30,0.6433166479511243
2015-12-01,0.5638782615171245
2015-12-02,0.47442999113393225
2015-12-03,0.02910815324234276
2015-12-04,0.035950655962404855
2015-12-07,0.19281266458068744
2015-12-08,0.13738985129173045
2015-12-09,0.10052910052910108
2015-12-10,0.11728395061728478
2015-12-11,0.10555555555555671
2015-12-14,0.0
2015-12-15,0.0
2015-12-16,0.0
2015-12-17,0.0
2015-12-18,0.11764705882352741
2015-12-21,0.11363636363636183
2015-12-22,0.2702702702702608
2015-12-23,0.7247706422018246
2015-12-24,0.9153846153846066
2015-12-25,0.7071428571428513
2015-12-28,0.7755102040816262
2015-12-29,0.8445595854922286
2015-12-30,0.7703703703703714
2015-12-31,0.5765765765765706
2016-01-04,0.8888888888888796
2016-01-05,0.5330396475770938
2016-01-06,0.3144104803493418
2016-01-07,0.42435424354243484
2016-01-08,0.33923303834808505
2016-01-11,0.1387096774193584
2016-01-12,0.17479674796748298
2016-01-13,0.18614718614719064
2016-01-14,0.0
2016-01-15,0.06289308176100876
2016-01-18,0.4854368932038859
2016-01-19,0.7352941176470589
2016-01-20,0.839285714285713
2016-01-21,1.0
2016-01-22,1.0
2016-01-25,0.6873239436619688
2016-01-26,0.3801916932907328
2016-01-27,0.4277286135693195
2016-01-28,0.27999999999999675
2016-01-29,0.10374639769452357
2016-02-01,0.14693877551020354
2016-02-02,0.20689655172413748
2016-02-03,0.06756756756757047
2016-02-04,0.6535433070866237
2016-02-05,0.7155172413793127
2016-02-15,0.8612716763005783
2016-02-16,0.856321839080456
2016-02-17,0.8618784530386698
2016-02-18,0.5
2016-02-19,0.7517482517482531
2016-02-22,0.6913043478260849
2016-02-23,0.7478260869565199
2016-02-24,0.598455598455595
2016-02-25,0.821705426356586
2016-02-26,0.39215686274508904
2016-02-29,0.32710280373831646
2016-03-01,0.27804878048780646
2016-03-02,0.5641025641025735
2016-03-03,0.3409090909090991
2016-03-04,0.7184873949579882
2016-03-07,0.89532293986637
2016-03-08,0.9310897435897428
2016-03-09,0.9429708222811666
2016-03-10,1.0
2016-03-11,0.9849812265331638
2016-03-14,0.7354497354497335
2016-03-15,0.5416666666666681
2016-03-16,0.2529411764705893
2016-03-17,0.0
2016-03-18,0.0
2016-03-21,0.07899807321772676
2016-03-22,0.32391713747645995
2016-03-23,0.43544303797468303
2016-03-24,0.6953316953316945
2016-03-25,0.837278106508873
2016-03-28,0.8148148148148119
2016-03-29,0.3750000000000006
2016-03-30,0.45656169963568743
2016-03-31,0.0
2016-04-01,0.45964624174621355
2016-04-05,0.44182143778943617
2016-04-06,0.6430805605275453
2016-04-07,0.6870577562267771
2016-04-08,0.9439988832588143
2016-04-11,0.3423814845710064
2016-04-12,0.359191906905072
2016-04-13,0.5947368421052605
2016-04-14,0.49595687331535987
2016-04-15,0.39947780678851297
2016-04-18,0.6219512195122026
2016-04-19,0.747159090909098
2016-04-20,0.3971119133574022
2016-04-21,0.6801909307875919
2016-04-22,0.7878787878787856
2016-04-25,0.8421052631578889
2016-04-26,0.7463414634146243
2016-04-27,0.9248554913294758
2016-04-28,0.6331877729257578
2016-04-29,0.3194444444444493
2016-05-03,0.05128205128205524
2016-05-04,0.037037037037039866
2016-05-05,0.0
2016-05-06,0.0
2016-05-09,0.26897689768976746
2016-05-10,0.3153153153153142
2016-05-11,0.39325842696629126
2016-05-12,0.6586102719033248
2016-05-13,0.9192307692307704
2016-05-16,0.4269662921348328
2016-05-17,0.2655601659751068
2016-05-18,0.5140186915887842
2016-05-19,0.4341637010676093
2016-05-20,0.3098159509202414
2016-05-23,0.4023904382470106
2016-05-24,0.5762711864406743
2016-05-25,0.006249999999998784
2016-05-26,0.005917159763312552
2016-05-27,0.12068965517241612
2016-05-30,0.39240506329113745
2016-05-31,0.5450236966824655
2016-06-01,0.7324840764331199
2016-06-02,0.7565789473684102
2016-06-03,0.7784431137724447
2016-06-06,0.35497835497835284
2016-06-07,0.09964412811387786
2016-06-08,0.24915824915824838
2016-06-13,0.36283185840708365
2016-06-14,0.3006329113924098
2016-06-15,0.4784688995215352
2016-06-16,0.9731182795698916
2016-06-17,0.9785407725321883
2016-06-20,0.8248847926267315
2016-06-21,0.8026905829596491
2016-06-22,0.8358208955223934
2016-06-23,0.5813008130081261
2016-06-24,0.2793296089385366
2016-06-27,0.7125748502993878
2016-06-28,0.8387096774193444
2016-06-29,0.8620129870129783
2016-06-30,0.9655629139072817
2016-07-01,0.9824797843665801
2016-07-04,0.957522123893807
2016-07-05,0.8280098280098304
2016-07-06,0.7543859649122842
2016-07-07,0.11564625850340562
2016-07-08,0.327586206896546
2016-07-11,0.17484662576687057
2016-07-12,0.19322033898304916
2016-07-13,0.13157894736841647
2016-07-14,0.16326530612244322
2016-07-15,0.0
2016-07-18,0.2974137931034389
2016-07-19,0.20720720720720465
2016-07-20,0.367021276595745
2016-07-21,0.32394366197183
2016-07-22,0.42857142857143193
2016-07-25,0.20909090909091185
2016-07-26,0.24468085106383183
2016-07-27,0.0
2016-07-28,0.30597014925373256
2016-07-29,0.38260869565217326
2016-08-01,0.4313725490196083
2016-08-02,0.5779467680608363
2016-08-03,0.8000000000000009
2016-08-04,0.3966005665722372
2016-08-05,0.22222222222222152
2016-08-08,0.30370370370370303
2016-08-09,0.10773480662983562
2016-08-10,0.5324909747292458
2016-08-11,0.5267857142857181
2016-08-12,0.6349206349206388
2016-08-15,0.5435203094777603
2016-08-16,0.6034472442108892
2016-08-17,0.10211112145630354
2016-08-18,0.5338998029783593
2016-08-19,0.5140204673088234
2016-08-22,0.6555817395379221
2016-08-23,0.6617408509758854
2016-08-24,1.0
2016-08-25,0.5517786260613422
2016-08-26,0.5401864716400416
2016-08-29,0.6341463414634144
2016-08-30,0.4818652849740946
2016-08-31,0.36597938144329656
2016-09-01,0.4595469255663407
2016-09-02,0.5160349854227381
2016-09-05,0.0847457627118642
2016-09-06,0.34649122807017496
2016-09-07,0.32644628099173656
2016-09-08,0.33832976445396296
2016-09-09,0.29612756264237217
2016-09-12,0.6433823529411828
2016-09-13,0.21848739495799172
2016-09-14,0.41361256544502956
2016-09-19,0.5215053763440879
2016-09-20,0.6180257510729584
2016-09-21,0.621276595744674
2016-09-22,1.0
2016-09-23,1.0
2016-09-26,1.0
2016-09-27,0.6999999999999883
2016-09-28,0.17341040462427312
2016-09-29,0.3091787439613554
2016-09-30,0.2304526748971195
2016-10-10,0.43504531722054174
2016-10-11,0.402234636871508
2016-10-12,0.5905511811023622
2016-10-13,0.49268292682927195
2016-10-14,0.7156398104265451
2016-10-17,0.43795620437958155
2016-10-18,0.9421768707483023
2016-10-19,0.9530386740331512
2016-10-20,0.8296836982968322
2016-10-21,0.8401826484018207
2016-10-24,0.8141592920353911
2016-10-25,0.6744186046511489
2016-10-26,0.43668122270741694
2016-10-27,0.6431924882629212
2016-10-28,0.7174721189591181
2016-10-31,0.9066390041493838
2016-11-01,0.7016949152542432
2016-11-02,0.8421686746987963
2016-11-03,0.8102815177478547
2016-11-04,0.7987012987012955
2016-11-07,0.552083333333331
2016-11-08,0.7364341085271271
2016-11-09,0.40169133192388523
2016-11-10,0.5415929203539813
2016-11-11,0.37414965986394344
2016-11-14,0.41825095057034095
2016-11-15,0.465034965034965
2016-11-16,0.5995850622406648
2016-11-17,0.3611691022964518
2016-11-18,0.4148681055155888
2016-11-21,0.6780684104627779
2016-11-22,0.31166666666666837
2016-11-23,0.31735537190082835
2016-11-24,0.5620437956204376
2016-11-25,0.5500000000000007
2016-11-28,0.3593495934959331
2016-11-29,0.7025316455696169
2016-11-30,0.5658627087198494
2016-12-01,0.24771488022078647
2016-12-02,0.3392409409550209
2016-12-05,0.5918306837505694
2016-12-06,0.32871996087288613
2016-12-07,0.5141842887117033
2016-12-08,0.5863025093933913
2016-12-09,0.6752578679136018
2016-12-12,0.4722215526073358
2016-12-13,0.7377287167157706
2016-12-14,0.5734406438631795
2016-12-15,0.6519999999999999
2016-12-16,0.36444444444444385
2016-12-19,0.6277665995975865
2016-12-20,0.47969543147208077
2016-12-21,0.5851393188854463
2016-12-22,0.4625000000000016
2016-12-23,0.6271186440678008
2016-12-26,0.0
2016-12-27,0.0
2016-12-28,0.09604519774011788
2016-12-29,0.3369565217391321
2016-12-30,0.5078534031413595
2017-01-03,0.48500000000000326
2017-01-04,0.6000000000000127
2017-01-05,0.25705329153605333
2017-01-06,0.3070175438596527
2017-01-09,0.18666666666667078
2017-01-10,0.1711491442542814
2017-01-11,0.14078674948240058
2017-01-12,0.41204819277108434
2017-01-13,0.21868365180467217
2017-01-16,0.376299376299375
2017-01-17,0.5735607675906168
2017-01-18,0.7075471698113207
2017-01-19,0.5915915915915927
2017-01-20,0.9545454545454602
2017-01-23,0.5958904109589056
2017-01-24,0.2935153583617781
2017-01-25,0.5230414746543806
2017-01-26,0.5400943396226422
2017-02-03,0.5733041575492341
2017-02-06,0.7401129943502861
2017-02-07,0.8370607028754007
2017-02-08,0.32608695652173714
2017-02-09,0.27160493827160337
2017-02-10,0.0
2017-02-13,0.08192771084337477
2017-02-14,0.09018567639257422
2017-02-15,0.29966329966330224
2017-02-16,0.5311572700296746
2017-02-17,0.9606299212598406
2017-02-20,0.7317073170731674
2017-02-21,0.8341584158415821
2017-02-22,0.5949367088607602
2017-02-23,0.46376811594203177
2017-02-24,0.30382775119617134
2017-02-27,0.4042553191489355
2017-02-28,0.0984251968503928
2017-03-01,0.3290322580645112
2017-03-02,0.2417061611374338
2017-03-03,0.3053892215568806
2017-03-06,0.15116279069767052
2017-03-07,0.09454545454545124
2017-03-08,0.20192307692307526
2017-03-09,0.27753303964757714
2017-03-10,0.5035714285714321
2017-03-13,0.6894586894586935
2017-03-14,0.9963369963369986
2017-03-15,0.720689655172416
2017-03-16,0.7182130584192395
2017-03-17,0.39457831325301207
2017-03-20,0.11278195488721311
2017-03-21,0.0
2017-03-22,0.0
2017-03-23,0.0
2017-03-24,0.15454545454544857
2017-03-27,0.36820083682007754
2017-03-28,0.523809523809517
2017-03-29,0.7276785714285734
2017-03-30,0.9933554817275716
2017-03-31,0.9946091644204826
2017-04-05,0.9956709956709937
2017-04-06,1.0
2017-04-07,1.0
2017-04-10,1.0
2017-04-11,0.6605271326265502
2017-04-12,0.2325424254402395
2017-04-13,0.28656841243643943
2017-04-14,0.15892732796233497
2017-04-17,0.09284799464679558
2017-04-18,0.23003805854437542
2017-04-19,0.698245002543466
2017-04-20,0.7585778079249292
2017-04-21,0.5414492441766651
2017-04-24,0.5797101449275432
2017-04-25,0.42979942693410306
2017-04-26,0.4330484330484413
2017-04-27,0.12590799031477368
2017-04-28,0.14565826330532525
2017-05-02,0.14730878186969018
2017-05-03,0.16613418530351584
2017-05-04,0.0
2017-05-05,0.19634703196346748
2017-05-08,0.5303643724696327
2017-05-09,0.48518518518518944
2017-05-10,0.6803069053708464
2017-05-11,0.8134556574923617
2017-05-12,0.6539589442815313
2017-05-15,0.5113636363636374
2017-05-16,0.6720647773279295
2017-05-17,0.13901345291479086
2017-05-18,0.25104602510459545
2017-05-19,0.6064516129032173
2017-05-22,0.5856697819314656
2017-05-23,0.5429553264604822
2017-05-24,0.9243986254295633
2017-05-25,0.9182156133829104
2017-05-26,0.47035573122530433
2017-05-31,0.7135549872122774
2017-06-01,0.6984924623115619
2017-06-02,0.5833333333333379
2017-06-05,0.44846796657381865
2017-06-06,0.6742424242424261
2017-06-07,0.05625000000000081
2017-06-08,0.2722772277227725
2017-06-09,0.2064393939393928
2017-06-12,0.3467432950191565
2017-06-13,0.46214511041009465
2017-06-14,0.7139588100686507
2017-06-15,0.510440835266822
2017-06-16,0.6918238993710718
2017-06-19,0.5342960288808658
2017-06-20,0.07279693486590338
2017-06-21,0.0202429149797513
2017-06-22,0.12359550561796702
2017-06-23,0.1122448979591734
2017-06-26,0.12290502793295072
2017-06-27,0.2291666666666505
2017-06-28,0.546012269938653
2017-06-29,0.5956284153005545
2017-06-30,0.7990867579908708
2017-07-03,0.7291666666666728
2017-07-04,0.8793103448275891
2017-07-05,0.6182432432432465
2017-07-06,0.6586102719033246
2017-07-07,0.590579710144927
2017-07-10,0.7442622950819653
2017-07-11,0.5927419354838687
2017-07-12,0.8878048780487802
2017-07-13,0.4721030042918351
2017-07-14,0.3793103448275771
2017-07-17,0.1666666666666627
2017-07-18,0.15837104072397742
2017-07-19,0.0
2017-07-20,0.576719576719574
2017-07-21,0.6881443298969082
2017-07-24,0.6675000000000032
2017-07-25,0.6935064935065026
2017-07-26,0.9096509240246486
2017-07-27,0.44466403162055745
2017-07-28,0.4457593688362923
2017-07-31,0.49105367793240495
2017-08-01,0.6030150753768811
2017-08-02,0.333333333333329
2017-08-03,0.6515957446808498
2017-08-04,0.6147058823529394
2017-08-07,0.6981566820276474
2017-08-08,0.5459770114942519
2017-08-09,0.8933853794451045
2017-08-10,0.7074579728907949
2017-08-11,0.6532455478970943
2017-08-14,0.12316833563751435
2017-08-15,0.1098101459092159
2017-08-16,0.0
2017-08-17,0.11249851731428143
2017-08-18,0.08416664404599594
2017-08-21,0.18110352862013657
2017-08-22,0.5808080808080818
2017-08-23,0.616621983914209
2017-08-24,0.5175202156334245
2017-08-25,0.8279220779220777
2017-08-28,0.8571428571428571
2017-08-29,0.43437499999999946
2017-08-30,0.4100294985250757
2017-08-31,0.49068322981366425
2017-09-01,0.49693251533742644
2017-09-04,0.42253521126761096
2017-09-05,0.7142857142857246
2017-09-06,0.9444444444444481
2017-09-07,0.9508196721311507
2017-09-08,0.7568807339449473
2017-09-11,0.4337748344370776
2017-09-12,0.5046728971962492
2017-09-13,0.6426966292134719
2017-09-14,0.6214285714285603
2017-09-15,0.6214285714285667
2017-09-18,0.9042056074766383
2017-09-19,0.900485436893207
2017-09-20,0.3764434180138618
2017-09-21,0.33571428571429135
2017-09-22,0.43333333333333895
2017-09-25,0.265432098765435
2017-09-26,0.17191283292978485
2017-09-27,0.28744939271255227
2017-09-28,0.45424836601307456
2017-09-29,0.38602941176470695
2017-10-09,0.4300341296928335
2017-10-10,0.7700729927007262
2017-10-11,1.0
2017-10-12,0.615384615384615
2017-10-13,0.6699266503667475
2017-10-16,0.4879649890590801
2017-10-17,0.37600000000000033
2017-10-18,0.22077922077922085
2017-10-19,0.5606694560669463
2017-10-20,0.5312500000000011
2017-10-23,0.572115384615396
2017-10-24,0.4853556485355696
2017-10-25,0.6060606060606081
2017-10-26,0.4367816091954045
2017-10-27,0.19875776397515402
2017-10-30,0.21768707482992664
2017-10-31,0.23188405797100925
2017-11-01,0.12396694214875457
2017-11-02,0.10638297872339852
2017-11-03,0.1570680628272167
2017-11-06,0.39080459770113574
2017-11-07,0.34871794871793554
2017-11-08,0.15966386554621026
2017-11-09,0.48818897637795017
2017-11-10,0.6167247386759565
2017-11-13,0.6451612903225837
2017-11-14,0.7787878787878817
2017-11-15,1.0
2017-11-16,0.666666666666673
2017-11-17,0.6346153846153919
2017-11-20,0.5174129353233873
2017-11-21,0.19665271966527756
2017-11-22,0.11864406779661311
2017-11-23,0.4349999999999984
2017-11-24,0.18495297805642386
2017-11-27,0.5551724137931027
2017-11-28,0.6700404858299592
2017-11-29,0.6304761904761883
2017-11-30,0.6024590163934405
2017-12-01,0.8964543808707057
2017-12-04,0.33219515322342347
2017-12-05,0.4041828598808272
2017-12-06,0.4526370191905928
2017-12-07,0.5194935027676635
2017-12-08,0.4024304490219587
2017-12-11,0.7977466754364616
2017-12-12,0.5258514032880038
2017-12-13,0.7005048665662083
2017-12-14,0.38348082595870153
2017-12-15,0.27884615384615574
2017-12-18,0.3044619422572193
2017-12-19,0.5135746606334874
2017-12-20,0.23319327731092834
2017-12-21,0.28682170542636126
2017-12-22,0.44108761329305424
2017-12-25,0.5350649350649344
2017-12-26,0.3869863013698517
2017-12-27,0.8749999999999963
2017-12-28,0.8423236514522786
2017-12-29,0.6511627906976675
2018-01-02,0.6470588235294109
2018-01-03,0.36386138613861874
2018-01-04,0.15877437325905822
2018-01-05,0.2024169184290117
2018-01-08,0.2933333333333414
2018-01-09,0.08093994778068105
2018-01-10,0.42187499999999867
2018-01-11,0.40662650602409667
2018-01-12,0.36337209302325246
2018-01-15,0.27882037533511905
2018-01-16,0.6861313868613153
2018-01-17,0.4759358288770099
2018-01-18,0.5709876543209895
2018-01-19,0.7111111111111154
2018-01-22,0.7804878048780531
2018-01-23,0.33950617283950735
2018-01-24,0.40293040293040006
2018-01-25,0.4115523465703995
2018-01-26,0.05140186915888126
2018-01-29,0.23790322580645834
2018-01-30,0.39333333333332693
2018-01-31,0.42753623188405543
2018-02-01,0.496815286624196
2018-02-02,0.4561403508771856
2018-02-05,0.4329268292682735
2018-02-06,0.4437499999999902
2018-02-07,0.6768060836501882
2018-02-08,0.5943775100401611
2018-02-09,0.6351931330472027
2018-02-12,0.41153846153846124
2018-02-13,0.4115384615384611
2018-02-14,0.0
2018-02-22,0.1199999999999969
2018-02-23,0.14685314685314957
2018-02-26,0.6707317073170899
2018-02-27,0.8776595744681034
2018-02-28,0.5789473684210559
2018-03-01,0.6449704142011876
2018-03-02,0.6797752808988757
2018-03-05,0.47962382445140905
2018-03-06,0.33447098976109374
2018-03-07,0.6625000000000002
2018-03-08,0.5089820359281497
2018-03-09,0.4149659863945537
2018-03-12,0.7888198757763915
2018-03-13,0.760479041916163
2018-03-14,0.7080291970802843
2018-03-15,0.4145299145299063
2018-03-16,0.5695792880258864
2018-03-19,0.3064066852367669
2018-03-20,0.4868105515587499
2018-03-21,0.3847874720357916
2018-03-22,0.4586666666666685
2018-03-23,0.5024509803921591
2018-03-26,0.7156862745098085
2018-03-27,0.5250000000000083
2018-03-28,0.7695652173913157
2018-03-29,0.9126213592233033
2018-03-30,0.44736842105263247
2018-04-02,0.5312499999999997
2018-04-03,0.4897119341563763
2018-04-04,0.48654244306417993
2018-04-09,0.3058823529411744
2018-04-10,0.5534601488489586
2018-04-11,0.26732487178394965
2018-04-12,0.5759212643915239
2018-04-13,0.3235725883794016
2018-04-16,0.5189252401718148
2018-04-17,0.45297217865313627
2018-04-18,0.5025543363260017
2018-04-19,0.2563465647866471
2018-04-20,0.715275039175069
2018-04-23,0.40977443609023106
2018-04-24,0.4360000000000086
2018-04-25,0.564748201438847
2018-04-26,0.5358361774744065
2018-04-27,0.14159292035397866
2018-05-02,0.47999999999999954
2018-05-03,0.47493403693931463
2018-05-04,0.3341772151898746
2018-05-07,0.38172043010752427
2018-05-08,0.6861924686192453
2018-05-09,0.17679558011049032
2018-05-10,0.2994923857867921
2018-05-11,0.4306569343065599
2018-05-14,0.6904761904761888
2018-05-15,0.6204081632653042
2018-05-16,0.7715736040609162
2018-05-17,0.7750000000000035
2018-05-18,0.8385826771653538
2018-05-21,0.6423357664233611
2018-05-22,0.7384615384615388
2018-05-23,0.9230769230769301
2018-05-24,0.6168224299065498
2018-05-25,0.2807017543859655
2018-05-28,0.09937888198757389
2018-05-29,0.325581395348845
2018-05-30,0.2834008097166035
2018-05-31,0.43529411764705406
2018-06-01,0.38867924528301384
2018-06-04,0.5919540229885071
2018-06-05,0.2356321839080351
2018-06-06,0.5213270142180034
2018-06-07,0.35937500000000266
2018-06-08,0.3000000000000017
2018-06-11,0.5795795795795817
2018-06-12,0.7346938775510258
2018-06-13,0.5086505190311446
2018-06-14,0.5986622073578599
2018-06-15,0.6964980544747043
2018-06-19,0.462068965517238
2018-06-20,0.2528735632183886
2018-06-21,0.4761904761904739
2018-06-22,0.2666666666666552
2018-06-25,0.42201834862384685
2018-06-26,0.23943661971831462
2018-06-27,0.5130434782608636
2018-06-28,0.2925170068027144
2018-06-29,0.55288461538462
2018-07-02,0.4349775784753374
2018-07-03,0.36329588014981296
2018-07-04,0.3750000000000009
2018-07-05,0.5933333333333387
2018-07-06,0.30459770114942963
2018-07-09,0.3761194029850781
2018-07-10,0.5744680851063834
2018-07-11,0.5238095238095325
2018-07-12,0.34065934065933484
2018-07-13,0.7848101265822578
2018-07-16,0.5675675675675498
2018-07-17,0.1052631578947512
2018-07-18,0.05769230769228501
2018-07-19,0.057692307692335035
2018-07-20,0.42142857142859497
2018-07-23,0.5822784810126763
2018-07-24,0.7251461988304051
2018-07-25,1.0
2018-07-26,0.5714285714285656
2018-07-27,0.39444444444443294
2018-07-30,0.45226130653265717
2018-07-31,0.24066390041493843
2018-08-01,0.41719745222929405
2018-08-02,0.7413793103448226
2018-08-03,0.8624535315985105
2018-08-06,0.845995893223818
2018-08-07,0.9979117247783988
2018-08-08,0.9976057160229359
2018-08-09,0.8523936496798485
2018-08-10,0.4888798318171427
2018-08-13,0.5471160255839796
2018-08-14,0.537578206568954
2018-08-15,0.3431012464968186
2018-08-16,0.6541396885323291
2018-08-17,0.5878599370968897
2018-08-20,0.6070460704607058
2018-08-21,0.514285714285712
2018-08-22,0.7658959537572229
2018-08-23,0.5595238095238086
2018-08-24,0.6238938053097314
2018-08-27,0.351535836177473
2018-08-28,0.41666666666666313
2018-08-29,0.0897009966777351
2018-08-30,0.06569343065693056
2018-08-31,0.07031249999999631
2018-09-03,0.3225806451612887
2018-09-04,0.21136363636363725
2018-09-05,0.25271739130435117
2018-09-06,0.49056603773585433
2018-09-07,0.5950704225352189
2018-09-10,0.30158730158730784
2018-09-11,0.6610878661087903
2018-09-12,0.7844522968197833
2018-09-13,0.5835962145110382
2018-09-14,0.5069444444444376
2018-09-17,0.6652892561983429
2018-09-18,0.39698492462310636
2018-09-19,0.06944444444444452
2018-09-20,0.35323383084577
2018-09-21,0.3008474576271157
2018-09-25,0.21132075471697842
2018-09-26,0.40140845070422426
2018-09-27,0.593607305936066
2018-09-28,0.5055555555555487
2018-10-08,0.8829787234042549
2018-10-09,1.0
2018-10-10,0.9162561576354699
2018-10-11,0.9313131313131325
2018-10-12,0.9332023575638518
2018-10-15,0.6062176165803123
2018-10-16,0.4950166112956746
2018-10-17,0.43695014662755843
2018-10-18,0.16988416988416388
2018-10-19,0.05058365758754235
2018-10-22,0.05555555555554948
2018-10-23,0.0
2018-10-24,0.0
2018-10-25,0.09177215189873658
2018-10-26,0.10034602076124713
2018-10-29,0.4984802431610911
2018-10-30,0.9617021276595706
2018-10-31,0.9934853420195379
2018-11-01,0.9169435215946752
2018-11-02,0.9445783132530097
2018-11-05,0.5867579908675808
2018-11-06,0.5761124121779863
2018-11-07,0.43376623376623236
2018-11-08,0.4174999999999997
2018-11-09,0.23856209150326887
2018-11-12,0.6543778801843305
2018-11-13,0.38235294117647706
2018-11-14,0.5582329317269124
2018-11-15,0.536679536679542
2018-11-16,0.3471810089020771
2018-11-19,0.162711864406775
2018-11-20,0.4971264367816001
2018-11-21,0.4496855345911924
2018-11-22,0.5238095238095222
2018-11-23,0.9238578680203041
2018-11-26,0.9931662870159486
2018-11-27,0.8227513227513321
2018-11-28,0.8640973630831704
2018-11-29,0.8905982905982937
2018-11-30,0.5033557046979852
2018-12-03,0.463768115942029
2018-12-04,0.6468797564687954
2018-12-05,0.46645367412140365
2018-12-06,0.3870728766698794
2018-12-07,0.6841203259784845
2018-12-10,0.5509898686728331
2018-12-11,0.09206445271516892
2018-12-12,0.09961578870386784
2018-12-13,0.048633158347168325
2018-12-14,0.003803172506369303
2018-12-17,0.0037161579203007777
2018-12-18,0.003074046365047789
2018-12-19,0.25151515151515313
2018-12-20,0.34133333333332555
2018-12-21,0.5039577836411571
2018-12-24,0.5667655786350055
2018-12-25,0.9301310043668064
2018-12-26,0.5822222222222191
2018-12-27,0.32075471698114477
2018-12-28,0.09205020920503125
2019-01-02,0.32323232323233114
2019-01-03,0.22289156626506096
2019-01-04,0.48126801152737836
2019-01-07,0.5218749999999923
2019-01-08,0.648484848484842
2019-01-09,0.4034582132564794
2019-01-10,0.53703703703703
2019-01-11,0.2515527950310521
2019-01-14,0.48148148148148395
2019-01-15,0.3262032085561523
2019-01-16,0.5464788732394406
2019-01-17,0.4545454545454608
2019-01-18,0.6203007518797035
2019-01-21,0.3181818181818178
2019-01-22,0.689542483660129
2019-01-23,0.4744027303754225
2019-01-24,0.5980392156862717
2019-01-25,0.6057692307692294
2019-01-28,0.7499999999999991
2019-01-29,0.21653543307087025
2019-01-30,0.528619528619531
2019-01-31,0.4050179211469527
2019-02-01,0.32278481012658206
2019-02-11,0.5000000000000011
2019-02-12,0.6930693069306927
2019-02-13,0.45188284518828753
2019-02-14,0.4843049327354301
2019-02-15,0.6298342541436492
2019-02-18,0.04687500000000125
2019-02-19,0.5598290598290633
2019-02-20,0.4486301369863022
2019-02-21,0.5236593059936929
2019-02-22,0.44817927170868543
2019-02-25,0.47619047619047733
2019-02-26,0.1310861423220989
2019-02-27,0.423728813559319
2019-02-28,0.29816513761467384
2019-03-01,0.6480263157894666
2019-03-04,0.7614379084967272
2019-03-05,0.7060606060606072
2019-03-06,0.6109090909090918
2019-03-07,0.672727272727273
2019-03-08,0.19413919413919198
2019-03-11,0.057627118644062454
2019-03-12,0.2173913043478223
2019-03-13,0.18032786885245583
2019-03-14,0.22118380062305812
2019-03-15,0.5219123505976178
2019-03-18,0.7847222222222242
2019-03-19,0.6666666666666679
2019-03-20,0.8577777777777776
2019-03-21,0.6106870229007643
2019-03-22,0.44843049327353757
2019-03-25,0.02645502645503194
2019-03-26,0.2205128205128177
2019-03-27,0.19895287958114435
2019-03-28,0.5439560439560361
2019-03-29,0.678756476683938
2019-04-01,0.9945945945945944
2019-04-02,0.7891891891891978
2019-04-03,0.8602941176470636
2019-04-04,0.6268115942029051
2019-04-08,0.7231855632865277
2019-04-09,0.5874516964437921
2019-04-10,0.6857422152708675
2019-04-11,0.453050605106718
2019-04-12,0.6689828186485273
2019-04-15,0.38513655913941913
2019-04-16,0.4037811731035286
2019-04-17,0.3204829817032583
2019-04-18,0.5387606865076787
2019-04-19,0.18840579710144897
2019-04-22,0.21052631578947298
2019-04-23,0.21487603305785274
2019-04-24,0.22510822510822756
2019-04-25,0.0
2019-04-26,0.2446043165467713
2019-04-29,0.223684210526322
2019-04-30,0.42038216560510067
2019-05-06,0.42580645161290415
2019-05-07,0.46808510638299144
2019-05-08,0.503311258278148
2019-05-09,0.9183673469387835
2019-05-10,0.8174603174603049
2019-05-13,0.901960784313724
2019-05-14,0.9734299516908144
2019-05-15,0.9181585677749314
2019-05-16,0.909090909090904
2019-05-17,0.9435483870967766
2019-05-20,0.8940397350993371
2019-05-21,0.18545454545454443
2019-05-22,0.21621621621621318
2019-05-23,0.14574898785425017
2019-05-24,0.0230414746543762
2019-05-27,0.019157088122603833
2019-05-28,0.24705882352941863
2019-05-29,0.19277108433735893
2019-05-30,0.14953271028038229
2019-05-31,0.11428571428572036
2019-06-03,0.6479591836734699
2019-06-04,0.7136929460580909
2019-06-05,0.7136929460580966
2019-06-06,0.8895522388059721
2019-06-10,0.9907975460122725
2019-06-11,0.7544483985765181
2019-06-12,0.5510948905109467
2019-06-13,0.5847750865051864
2019-06-14,0.15412186379928539
2019-06-17,0.06642066420664149
2019-06-18,0.07058823529411688
2019-06-19,0.17937219730942372
2019-06-20,0.28515625000000455
2019-06-21,0.5177304964539098
2019-06-24,0.5748031496063094
2019-06-25,0.9672131147541073
2019-06-26,0.9504950495049624
2019-06-27,0.505617977528105
2019-06-28,0.46875000000000294
2019-07-01,0.7241379310344881
2019-07-02,0.8558558558558599
2019-07-03,0.9065606361829044
2019-07-04,0.9878787878787867
2019-07-05,1.0
2019-07-08,1.0
2019-07-09,0.8785871964679889
2019-07-10,0.4978070175438581
2019-07-11,0.07013574660633742
2019-07-12,0.11612903225806215
2019-07-15,0.1383647798742128
2019-07-16,0.11148648648648586
2019-07-17,0.2697095435684642
2019-07-18,0.4113924050632916
2019-07-19,0.2469879518072333
2019-07-22,0.17158176943699757
2019-07-23,0.35944700460829226
2019-07-24,0.07106598984771183
2019-07-25,0.05761316872427655
2019-07-26,0.2028985507246219
2019-07-29,0.23728813559320694
2019-07-30,0.36018957345971486
2019-07-31,0.3619047619047624
2019-08-01,0.42222222222222555
2019-08-02,0.38578435525799337
2019-08-05,0.7177304095716499
2019-08-06,0.5204474777714186
2019-08-07,0.52393510016611
2019-08-08,0.718554355495471
2019-08-09,0.6639627285695273
2019-08-12,0.3038402764825934
2019-08-13,0.32953045235235995
2019-08-14,0.45221630060131374
2019-08-15,0.13909774436090283
2019-08-16,0.1213114754098349
2019-08-19,0.16371681415928982
2019-08-20,0.3970037453183505
2019-08-21,0.26640926640926643
2019-08-22,0.43722943722943214
2019-08-23,0.733333333333332
2019-08-26,0.9099378881987561
2019-08-27,0.7320261437908469
2019-08-28,0.816608996539791
2019-08-29,0.7727272727272753
2019-08-30,0.5297029702970236
2019-09-02,0.06936416184971202
2019-09-03,0.08571428571428712
2019-09-04,0.07246376811593705
2019-09-05,0.06756756756756235
2019-09-06,0.06622516556291022
2019-09-09,0.5312500000000013
2019-09-10,0.6820809248554902
2019-09-11,0.469565217391305
2019-09-12,0.5531914893617018
2019-09-16,0.7518518518518537
2019-09-17,0.6809523809523823
2019-09-18,0.7392996108949454
2019-09-19,1.0
2019-09-20,0.8233333333333375
2019-09-23,0.5437499999999985
2019-09-24,0.36720554272517386
2019-09-25,0.17062634989200653
2019-09-26,0.0
2019-09-27,0.08564231738034901
2019-09-30,0.16923076923076713
2019-10-08,0.4798534798534764
2019-10-09,0.8232044198895045
2019-10-10,0.7602040816326535
2019-10-11,0.5528846153846175
2019-10-14,0.5550239234449773
2019-10-15,0.25641025641025955
2019-10-16,0.27950310559005964
2019-10-17,0.5843373493975856
2019-10-18,0.8486842105263132
2019-10-21,0.8380281690140834
2019-10-22,0.8380281690140892
2019-10-23,0.5052631578947447
2019-10-24,0.2699386503067645
2019-10-25,0.09160305343512583
2019-10-28,0.0
2019-10-29,0.027397260273973743
2019-10-30,0.050000000000002466
2019-10-31,0.2500000000000033
2019-11-01,0.46875000000000355
2019-11-04,0.7627118644067743
2019-11-05,0.5694444444444402
2019-11-06,0.7204301075268716
2019-11-07,0.4615384615384501
2019-11-08,0.2708333333333213
2019-11-11,0.285714285714278
2019-11-12,0.5826086956521714
2019-11-13,0.6129032258064523
2019-11-14,0.8971962616822533
2019-11-15,0.8648648648648585
2019-11-18,0.8347826086956389
2019-11-19,0.48672566371681186
2019-11-20,0.2926829268292767
2019-11-21,0.0634920634920624
2019-11-22,0.0625000000000032
2019-11-25,0.3882352941176566
2019-11-26,0.5409836065573989
2019-11-27,0.43283582089553085
2019-11-28,0.3118279569892566
2019-11-29,0.24369747899159352
2019-12-02,0.0
2019-12-03,0.2314814814814636
2019-12-04,0.19841269841268694
2019-12-05,0.2815533980582412
2019-12-06,0.5443037974683714
2019-12-09,0.7935744343617942
2019-12-10,0.5984619589290323
2019-12-11,0.8363002471220848
2019-12-12,0.8036044667382151
2019-12-13,0.822998697878826
2019-12-16,0.4270015137395298
2019-12-17,0.5870293911142964
2019-12-18,0.35778987969192877
2019-12-19,0.4493836946437815
2019-12-20,0.27343750000000433
2019-12-23,0.42372881355932074
2019-12-24,0.193181818181816
2019-12-25,0.2207792207792206
2019-12-26,0.09774436090224323
2019-12-27,0.43689320388348907
2019-12-30,0.35714285714285776
2019-12-31,0.7009345794392591
2020-01-02,0.7352941176470674
2020-01-03,0.7052631578947542
2020-01-06,0.7723577235772529
2020-01-07,0.9027777777777899
2020-01-08,0.9230769230769331
2020-01-09,0.995833333333337
2020-01-10,0.9917012448132779
2020-01-13,0.8136363636363619
2020-01-14,0.7659574468085071
2020-01-15,0.4551282051281956
2020-01-16,0.0
2020-01-17,0.0
2020-01-20,0.0
2020-01-21,0.08212560386473136
2020-01-22,0.16292134831460067
2020-01-23,0.3970588235293956
2020-02-03,0.5892857142856961
2020-02-04,1.0
2020-02-05,0.9608540925266928
2020-02-06,0.7724550898203637
2020-02-07,0.7213622291021746
2020-02-10,0.7083333333333367
2020-02-11,0.0
2020-02-12,0.0
2020-02-13,0.007968127490036118
2020-02-14,0.008230452674893146
2020-02-17,0.039999999999992
2020-02-18,0.5581395348836805
2020-02-19,0.9387755102040553
2020-02-20,0.9523809523809319
2020-02-21,1.0
2020-02-24,1.0
2020-02-25,0.8560000000000118
2020-02-26,0.45000000000002016
2020-02-27,0.2115384615384823
2020-02-28,0.4029126213592243
2020-03-02,0.6283987915407869
2020-03-03,0.6884272997032642
2020-03-04,0.8445945945945935
2020-03-05,1.0
2020-03-06,0.7834645669291368
2020-03-09,0.195488721804512
2020-03-10,0.3096774193548335
2020-03-11,0.4005602240896307
2020-03-12,0.4498714652956257
2020-03-13,0.6434977578475299
2020-03-16,1.0
2020-03-17,0.8268656716417945
2020-03-18,0.8170347003154615
2020-03-19,0.8104575163398735
2020-03-20,0.5887445887445959
2020-03-23,0.40625000000000766
2020-03-24,0.7685950413223188
2020-03-25,0.5305343511450383
2020-03-26,0.6505681818181824
2020-03-27,0.8097345132743353
2020-03-30,0.8595229404918835
2020-03-31,0.8272581272692027
2020-04-01,0.9785435161040998
2020-04-02,0.9754672848955696
2020-04-03,0.5329501872148139
2020-04-07,0.5800342816639655
2020-04-08,0.49165235433178744
2020-04-09,0.650354389477132
2020-04-10,0.6254624648176742
2020-04-13,0.9262472885032573
2020-04-14,0.9511494252873586
2020-04-15,1.0
2020-04-16,0.8833333333333316
2020-04-17,0.6675031367628587
2020-04-20,0.4367396593673959
2020-04-21,0.07072135785007048
2020-04-22,0.0
2020-04-23,0.26824034334763897
2020-04-24,0.3229974160206716
2020-04-27,0.43793103448276044
2020-04-28,0.4276094276094293
2020-04-29,0.554307116104868
2020-04-30,0.09090909090909062
2020-05-06,0.0985324947589076
2020-05-07,0.1809523809523725
2020-05-08,0.39178082191780095
2020-05-11,0.49659863945578375
2020-05-12,0.7110389610389591
2020-05-13,0.6546546546546553
2020-05-14,0.4019370460048487
2020-05-15,0.2744186046511677
2020-05-18,0.0
2020-05-19,0.1613545816733089
2020-05-20,0.26168224299065734
2020-05-21,0.4392324093816629
2020-05-22,0.5629139072847703
2020-05-25,1.0
2020-05-26,0.7518796992481193
2020-05-27,0.4779661016949119
2020-05-28,0.40769230769230674
2020-05-29,0.22983870967741296
2020-06-01,0.4495677233429381
2020-06-02,0.645892351274785
2020-06-03,0.7599999999999977
2020-06-04,0.7242647058823519
2020-06-05,0.6888111888112014
2020-06-08,0.2696629213483204
2020-06-09,0.0
2020-06-10,0.2557077625570791
2020-06-11,0.18543046357615933
2020-06-12,0.3809523809523727
2020-06-15,0.4363636363636224
2020-06-16,0.45907473309607927
2020-06-17,0.31196581196580836
2020-06-18,0.5454545454545319
2020-06-19,0.14444444444444618
2020-06-22,0.21666666666667486
2020-06-23,0.07870370370369514
2020-06-24,0.06938775510203264
2020-06-29,0.1768953068592087
2020-06-30,0.27317073170732586
2020-07-01,0.2666666666666726
2020-07-02,0.6259541984732823
2020-07-03,0.934911242603544
2020-07-06,0.9441624365482177
2020-07-07,0.947867298578193
2020-07-08,1.0
2020-07-09,1.0
2020-07-10,0.8118811881188132
2020-07-13,0.36401673640167115
2020-07-14,0.3692946058091278
2020-07-15,0.17460317460316405
2020-07-16,0.24271844660194172
2020-07-17,0.2262443438914018
2020-07-20,0.5365853658536536
2020-07-21,0.40566037735849486
2020-07-22,0.325757575757579
2020-07-23,0.11940298507462485
2020-07-24,0.5517241379310341
2020-07-27,0.6130952380952377
2020-07-28,0.694300518134713
2020-07-29,0.7015706806282793
2020-07-30,0.6733668341708644
2020-07-31,0.5357142857142981
2020-08-03,0.22641509433963192
2020-08-04,0.03649635036496591
2020-08-05,0.28275862068964996
2020-08-06,0.5472972972972892
2020-08-07,0.5033112582781395
2020-08-10,0.8380952380952353
2020-08-11,0.8888888888889136
2020-08-12,0.877777777777808
2020-08-13,0.8135593220339437
2020-08-14,0.6000000000000116
2020-08-17,0.3108360676164055
2020-08-18,0.48985379670677937
2020-08-19,0.29442967921163476
2020-08-20,0.2625609261745703
2020-08-21,0.5270972650157818
2020-08-24,0.7653379527805658
2020-08-25,0.5400336590154783
2020-08-26,0.5935249913426066
2020-08-27,0.44520538714666136
2020-08-28,0.11282051282050914
2020-08-31,0.41750841750841955
2020-09-01,0.3668639053254447
2020-09-02,0.5974842767295598
2020-09-03,0.6418918918918912
2020-09-04,0.8266666666666659
2020-09-07,0.6169154228855714
2020-09-08,0.7849740932642478
2020-09-09,0.4465408805031456
2020-09-10,0.5115606936416195
2020-09-11,0.2893890675241128
2020-09-14,0.29315960912051686
2020-09-15,0.14566929133858017
2020-09-16,0.228395061728389
2020-09-17,0.3386243386243311
2020-09-18,0.4413793103448279
2020-09-21,0.9473684210526421
2020-09-22,0.9581395348837295
2020-09-23,0.963470319634712
2020-09-24,0.818681318681331
2020-09-25,0.8837209302325604
2020-09-28,0.6174496644295296
2020-09-29,0.25136612021857385
2020-09-30,0.35981308411214924
2020-10-09,0.48623853211009044
2020-10-12,0.43434343434343814
2020-10-13,0.394495412844042
2020-10-14,0.6829268292682961
2020-10-15,0.46625766871165336
2020-10-16,0.23979591836734468
2020-10-19,0.136125654450255
2020-10-20,0.17808219178081147
2020-10-21,0.047619047619050905
2020-10-22,0.04878048780488253
2020-10-23,0.07500000000000871
2020-10-26,0.06315789473685014
2020-10-27,0.40579710144928266
2020-10-28,0.3311258278145712
2020-10-29,0.49635036496350643
2020-10-30,0.6894409937888185
2020-11-02,0.9391025641025637
2020-11-03,0.9321428571428578
2020-11-04,1.0
2020-11-05,1.0
2020-11-06,0.7765363128491659
2020-11-09,0.26815642458101524
2020-11-10,0.35148514851485174
2020-11-11,0.1815789473684197
2020-11-12,0.15763546798029285
2020-11-13,0.45302713987473653
2020-11-16,0.7974683544303773
2020-11-17,0.5947867298578199
2020-11-18,0.75152749490835
2020-11-19,0.820866141732285
2020-11-20,0.6346153846153855
2020-11-23,0.640661938534278
2020-11-24,0.7855072463768062
2020-11-25,0.5563636363636295
2020-11-26,0.5547445255474353
2020-11-27,0.7579365079365015
2020-11-30,0.252941176470587
2020-12-01,0.43691588785046614
2020-12-02,0.4495192307692307
2020-12-03,0.3056768558951994
2020-12-04,0.23379629629629597
2020-12-07,0.5976676384839658
2020-12-08,0.44799999999999873
2020-12-09,0.47058823529411503
2020-12-10,0.8697183098591504
2020-12-11,0.9254658385093163
2020-12-14,0.9232846514191231
2020-12-15,0.8376529877609854
2020-12-16,0.9050590355289067
2020-12-17,0.45396280689359464
2020-12-18,0.29474223784416914
2020-12-21,0.025049024185264456
2020-12-22,0.3075989713499195
2020-12-23,0.298425572519084
2020-12-24,0.5043351889255643
2020-12-25,0.6583850931677051
2020-12-28,0.9339207048458247
2020-12-29,0.27142857142857935
2020-12-30,0.25259515570934477
2020-12-31,0.29411764705882365
2021-01-04,0.15406976744186082
2021-01-05,0.19061583577712263
2021-01-06,0.5421052631578922
2021-01-07,0.6636771300448461
2021-01-08,0.5639534883720954
2021-01-11,1.0
2021-01-12,0.6457142857142868
2021-01-13,0.6331360946745578
2021-01-14,0.4246575342465759
2021-01-15,0.28985507246376924
2021-01-18,0.45149253731343464
2021-01-19,0.5707547169811343
2021-01-20,0.3852813852813866
2021-01-21,0.32363636363636317
2021-01-22,0.56842105263158
2021-01-25,0.3230088495575236
2021-01-26,0.278625954198474
2021-01-27,0.3244444444444437
2021-01-28,0.5497382198952886
2021-01-29,0.16580310880829513
2021-02-01,0.17486338797814815
2021-02-02,0.20000000000000887
2021-02-03,0.24000000000000613
2021-02-04,0.21379310344826044
2021-02-05,0.4078947368420778
2021-02-08,0.2039473684210362
2021-02-09,0.48484848484847143
2021-02-10,0.4874371859296334
2021-02-18,0.7150837988826783
2021-02-19,0.7767441860465126
2021-02-22,1.0
2021-02-23,1.0
2021-02-24,1.0
2021-02-25,0.9777777777777777
2021-02-26,0.977893368010403
2021-03-01,0.5443262411347543
2021-03-02,0.2606837606837636
2021-03-03,0.1790393013100426
2021-03-04,0.14855072463768043
2021-03-05,0.0
2021-03-08,0.08771929824561221
2021-03-09,0.32424242424241906
2021-03-10,0.4811827956989219
2021-03-11,0.6258741258741242
2021-03-12,0.6679104477611997
2021-03-15,0.37817258883248694
2021-03-16,0.14784394250513413
2021-03-17,0.0
2021-03-18,0.0
2021-03-19,0.2769784172661846
2021-03-22,0.3880597014925387
2021-03-23,0.741496598639452
2021-03-24,0.8549019607843004
2021-03-25,0.9611650485436849
2021-03-26,0.5162454873646138
2021-03-29,0.6407506702412776
2021-03-30,0.49166666666666453
2021-03-31,0.5511811023622053
2021-04-01,0.44480519480519454
2021-04-02,0.7421052631579093
2021-04-06,0.1919642857143038
2021-04-07,0.3160621761658146
2021-04-08,0.1600000000000163
2021-04-09,0.07407407407408667
2021-04-12,0.19117647058822715
2021-04-13,0.29545454545454086
2021-04-14,0.17216117216116794
2021-04-15,0.2382671480144346
2021-04-16,0.5029940119760409
2021-04-19,0.31404958677685585
2021-04-20,0.3423423423423318
2021-04-21,0.9859912088781069
2021-04-22,0.6461376111750381
2021-04-23,0.4783457256628355
2021-04-26,0.32853050206404805
2021-04-27,0.4559594877909494
2021-04-28,0.17686284456352613
2021-04-29,0.18552440941426346
2021-04-30,0.4171204474852578
2021-05-06,0.6531500757514804
2021-05-07,0.5578231292516995
2021-05-10,0.8074866310160446
2021-05-11,0.931989924433254
2021-05-12,0.9300518134715078
2021-05-13,0.9014598540146059
2021-05-14,1.0
2021-05-17,1.0
2021-05-18,0.8755364806866968
2021-05-19,0.5511363636363703
2021-05-20,0.395121951219518
2021-05-21,0.12033195020747481
2021-05-24,0.0
2021-05-25,0.004098360655738675
2021-05-26,0.00467289719626279
2021-05-27,0.004237288135594257
2021-05-28,0.2343749999999962
2021-05-31,0.35555555555555723
2021-06-01,0.3602941176470617
2021-06-02,0.29341317365269526
2021-06-03,0.36296296296296177
2021-06-04,0.044642857142867615
2021-06-07,0.4512820512820478
2021-06-08,0.3891402714932083
2021-06-09,0.3739130434782587
2021-06-10,0.45500000000000185
2021-06-11,0.3922413793103472
2021-06-15,0.02645502645503333
2021-06-16,0.028409090909097965
2021-06-17,0.032258064516137046
2021-06-18,0.1428571428571398
2021-06-21,0.37419354838709223
2021-06-22,0.4461538461538331
2021-06-23,0.6815642458100534
2021-06-24,0.8723404255319084
2021-06-25,0.8686131386861253
2021-06-28,0.6935483870967719
2021-06-29,0.8400000000000021
2021-06-30,0.5256410256410327
2021-07-01,0.6991869918699232
2021-07-02,0.5078124999999951
2021-07-05,0.7378048780487745
2021-07-06,0.5604395604395521
2021-07-07,0.7548638132295629
2021-07-08,0.6065573770491719
2021-07-09,0.7083333333333298
2021-07-12,0.47899159663865737
2021-07-13,0.46530612244898445
2021-07-14,0.09090909090909373
2021-07-15,0.38283828382838647
2021-07-16,0.29652996845426155
2021-07-19,0.5469168900804298
2021-07-20,0.7009569377990437
2021-07-21,0.8276836158192125
2021-07-22,0.6567656765676616
2021-07-23,0.7580071174377248
2021-07-26,0.43277310924369755
2021-07-27,0.07329842931936467
2021-07-28,0.30909090909090503
2021-07-29,0.3505154639175151
2021-07-30,0.24545454545454215
2021-08-02,0.4375000000000004
2021-08-03,0.6686046511627877
2021-08-04,0.45185185185186094
2021-08-05,0.4452554744525791
2021-08-06,0.7209302325581666
2021-08-09,0.49645390070923157
2021-08-10,0.4274193548387193
2021-08-11,0.3173652694610808
2021-08-12,0.3099415204678342
2021-08-13,0.12872146131937479
2021-08-16,0.10744889878937051
2021-08-17,0.0
2021-08-18,0.016899612996226637
2021-08-19,0.40912334459671734
2021-08-20,0.4234555758968548
2021-08-23,0.6473695354485511
2021-08-24,0.9496977951624606
2021-08-25,0.8703906053305189
2021-08-26,0.7533333333333492
2021-08-27,0.7197452229299469
2021-08-30,0.22560975609756445
2021-08-31,0.0
2021-09-01,0.38805970149252933
2021-09-02,0.3236514522821514
2021-09-03,0.3940677966101584
2021-09-06,0.6202531645569554
2021-09-07,0.78191489361702
2021-09-08,0.4825174825174766
2021-09-09,0.4156626506024022
2021-09-10,0.5424528301886802
2021-09-13,0.653571428571429
2021-09-14,0.6166007905138335
2021-09-15,0.8949096880131363
2021-09-16,1.0
2021-09-17,1.0
2021-09-22,1.0
2021-09-23,1.0
2021-09-24,0.7680097680097682
2021-09-27,0.7833523375142538
2021-09-28,0.7848244620611562
2021-09-29,0.7713598074608924
2021-09-30,0.7473404255319158
2021-10-08,1.0
2021-10-11,0.9765051395007354
2021-10-12,0.9722703639514745
2021-10-13,0.983350676378773
2021-10-14,0.7472627737226273
2021-10-15,0.4258373205741642
2021-10-18,0.32434402332361656
2021-10-19,0.29817444219067074
2021-10-20,0.0
2021-10-21,0.021008403361341545
2021-10-22,0.12836438923395085
2021-10-25,0.20919175911251525
2021-10-26,0.24626865671641252
2021-10-27,0.9069767441860479
2021-10-28,0.9304347826086993
2021-10-29,0.3859060402684685
2021-11-01,0.35548172757476026
2021-11-02,0.45896656534955105
2021-11-03,0.294663573085854
2021-11-04,0.11139240506329193
2021-11-05,0.14521452145214514
2021-11-08,0.15358361774744417
2021-11-09,0.0028571428571461835
2021-11-10,0.0041666666666714414
2021-11-11,0.003355704697990412
2021-11-12,0.004166666666671439
2021-11-15,0.31908831908831276
2021-11-16,0.41025641025640136
2021-11-17,0.26858513189448435
2021-11-18,0.3274853801169627
2021-11-19,0.34355828220859264
2021-11-22,0.0
2021-11-23,0.09597523219814333
2021-11-24,0.34975369458128375
2021-11-25,0.3659793814432964
2021-11-26,0.35148514851484497
2021-11-29,0.41520467836256336
2021-11-30,0.3421052631578911
2021-12-01,0.45652173913042715
2021-12-02,0.6473214285714252
2021-12-03,0.7046413502109758
2021-12-06,0.9382022471910142
2021-12-07,0.5783582089552317
2021-12-08,0.35169491525425034
2021-12-09,0.10526315789474856
2021-12-10,0.0
2021-12-13,0.22749145344153424
2021-12-14,0.29800750982540936
2021-12-15,0.43615335298911173
2021-12-16,0.4943676554441272
2021-12-17,0.8956634763086325
2021-12-20,0.5021806071838277
2021-12-21,0.6062041640560578
2021-12-22,0.3493563663042772
2021-12-23,0.29380979519304984
2021-12-24,0.08612440191387907
2021-12-27,0.5415162454873685
2021-12-28,0.48000000000000187
2021-12-29,0.6431535269709573
2021-12-30,0.5871212121212097
2021-12-31,0.6540084388185604
2022-01-04,0.10360360360360421
2022-01-05,0.1902654867256607
2022-01-06,0.06825938566552572
2022-01-07,0.28619528619528856
2022-01-10,0.4250000000000005
2022-01-11,0.4608433734939764
2022-01-12,0.4640718562874288
2022-01-13,0.6078431372549096
2022-01-14,0.5454545454545475
2022-01-17,0.2666666666666659
2022-01-18,0.7511520737327199
2022-01-19,0.7556561085972846
2022-01-20,0.8080357142857099
2022-01-21,0.7932692307692274
2022-01-24,1.0
2022-01-25,0.41474654377880504
2022-01-26,0.4879032258064535
2022-01-27,0.49402390438247473
2022-01-28,0.5464285714285767
2022-02-07,0.699763593380616
2022-02-08,1.0
2022-02-09,0.9931271477663223
2022-02-10,0.9927272727272718
2022-02-11,0.9915966386554611
2022-02-14,0.23949579831931533
2022-02-15,0.35815602836878657
2022-02-16,0.26165803108807667
2022-02-17,0.4171779141104303
2022-02-18,0.31181102362204943
2022-02-21,0.36263736263736546
2022-02-22,0.1843971631205697
2022-02-23,0.26708074534161846
2022-02-24,0.057870370370371814
2022-02-25,0.451612903225807
2022-02-28,0.6699999999999974
2022-03-01,0.8634020618556679
2022-03-02,0.8879492600422815
2022-03-03,1.0
2022-03-04,1.0
2022-03-07,1.0
2022-03-08,1.0
2022-03-09,1.0
2022-03-10,1.0
2022-03-11,1.0
2022-03-14,0.6917098445595872
2022-03-15,0.6788124156545221
2022-03-16,0.3306982872200305
2022-03-17,0.09581497797356778
2022-03-18,0.041856232939034455
2022-03-21,0.047471620227037055
2022-03-22,0.0
2022-03-23,0.0
2022-03-24,0.0
2022-03-25,0.05787781350482546
2022-03-28,0.3248175182481791
2022-03-29,0.6363636363636432
2022-03-30,1.0
2022-03-31,1.0
2022-04-01,1.0
2022-04-06,0.5215686274509751
2022-04-07,0.4806201550387538
2022-04-08,0.44747081712062314
2022-04-11,0.1943127962085234
2022-04-12,0.15422885572140776
2022-04-13,0.5294117647059111
2022-04-14,0.40909090909093077
2022-04-15,0.4354838709677448
2022-04-18,0.6865671641790934
2022-04-19,0.31340439117833857
2022-04-20,0.16957048514529843
2022-04-21,0.20157617680767578
2022-04-22,0.18238884045335363
2022-04-25,0.31723186573169043
2022-04-26,0.6613578591465912
2022-04-27,0.8494447555550949
2022-04-28,0.882026731364955
2022-04-29,0.9952964162309851
2022-05-05,0.39053254437869794
2022-05-06,0.18874172185430138
2022-05-09,0.3475935828877022
2022-05-10,0.4504504504504527
2022-05-11,0.31868131868132166
2022-05-12,0.6404109589041125
2022-05-13,0.5880503144654099
2022-05-16,0.3999999999999916
2022-05-17,0.19266055045871078
2022-05-18,0.3452380952380875
2022-05-19,0.10000000000000009
2022-05-20,0.2752293577981605
2022-05-23,0.37974683544305443
2022-05-24,0.37500000000001077
2022-05-25,0.13207547169811507
2022-05-26,0.7128712871287214
2022-05-27,0.7327188940092257
2022-05-30,0.750000000000004
2022-05-31,0.7803738317757022
2022-06-01,0.9714285714285694
2022-06-02,0.23668639053253743
2022-06-06,0.11034482758619599
2022-06-07,0.26190476190475914
2022-06-08,0.3575129533678832
2022-06-09,0.49387755102041214
2022-06-10,0.9097744360902323
2022-06-13,0.9347826086956564
2022-06-14,0.804469273743016
2022-06-15,0.6065573770491746
2022-06-16,0.3589743589743581
2022-06-17,0.3353293413173605
2022-06-20,0.0
2022-06-21,1.0273913086701212e-14
2022-06-22,1.2730718390042903e-14
2022-06-23,1.5686063730587942e-14
2022-06-24,0.5801886792452833
2022-06-27,0.9780219780219733
2022-06-28,0.9791666666666619
2022-06-29,0.9934426229508125
2022-06-30,0.9044776119402971
2022-07-01,0.6545454545454475
2022-07-04,0.1836734693877445
2022-07-05,0.10000000000000199
2022-07-06,0.42378048780487665
2022-07-07,0.6331775700934563
2022-07-08,0.7075718015665825
2022-07-11,0.8888888888888934
2022-07-12,0.9590909090909113
2022-07-13,0.6316964285714276
2022-07-14,0.3621103117506005
2022-07-15,0.5364485981308403
2022-07-18,0.49075975359342716
2022-07-19,0.5098814229248991
2022-07-20,0.7542579075425799
2022-07-21,1.0
2022-07-22,0.6717557251908401
2022-07-25,0.42946058091286504
2022-07-26,0.3389021479713623
2022-07-27,0.18907563025209975
2022-07-28,0.0
2022-07-29,0.0
2022-08-01,0.0
2022-08-02,0.0
2022-08-03,0.0
2022-08-04,0.3426294820717177
2022-08-05,0.4170616113744103
2022-08-08,0.6359999999999982
2022-08-09,0.9578313253012197
2022-08-10,0.987804878048788
2022-08-11,0.46726190476190205
2022-08-12,0.4269972451790637
2022-08-15,0.25531914893617347
2022-08-16,0.2840236686390518
2022-08-17,0.1394850383258742
2022-08-18,0.5069899374553682
2022-08-19,0.6655437307597817
2022-08-22,0.839706911701182
2022-08-23,0.8590525279191983
2022-08-24,0.35757800464095846
2022-08-25,0.18822232636115369
2022-08-26,0.3843951503411776
2022-08-29,0.2991138240910156
2022-08-30,0.20754716981132626
2022-08-31,0.40099009900990723
2022-09-01,0.40909090909091095
2022-09-02,0.31578947368420995
2022-09-05,0.739884393063591
2022-09-06,0.8774193548387039
2022-09-07,0.8661971830985873
2022-09-08,1.0
2022-09-09,1.0
2022-09-13,0.4925373134328407
2022-09-14,0.5819672131147592
2022-09-15,0.5375000000000008
2022-09-16,0.3728813559322057
2022-09-19,0.21982758620689444
2022-09-20,0.5433526011560612
2022-09-21,0.24431818181817647
2022-09-22,0.25595238095237616
2022-09-23,0.5748792270531361
2022-09-26,0.5833333333333333
2022-09-27,0.431818181818182
2022-09-28,0.43930635838150284
2022-09-29,0.5733333333333352
2022-09-30,0.2465116279069787
2022-10-10,0.26108374384236543
2022-10-11,0.5036764705882371
2022-10-12,0.7209302325581395
2022-10-13,0.6456692913385836
2022-10-14,0.882352941176471
2022-10-17,0.9625668449197856
2022-10-18,0.4403669724770623
2022-10-19,0.0792079207920757
2022-10-20,0.05517241379310099
2022-10-21,0.0
2022-10-24,0.0
2022-10-25,0.13302752293578518
2022-10-26,0.3872549019607924
2022-10-27,0.743801652892573
2022-10-28,0.9550561797752783
2022-10-31,1.0
2022-11-01,1.0
2022-11-02,0.9649122807017543
2022-11-03,0.9663461538461535
2022-11-04,0.9601139601139597
2022-11-07,0.6753731343283489
2022-11-08,0.15034965034964148
2022-11-09,0.15808823529410837
2022-11-10,0.15808823529412433
2022-11-11,0.2341137123745901
2022-11-14,0.21472392638037782
2022-11-15,0.37837837837839544
2022-11-16,0.29045643153528417
2022-11-17,0.20833333333333903
2022-11-18,0.010752688172042292
2022-11-21,0.3098039215686304
2022-11-22,0.3347107438016571
2022-11-23,0.4473684210526306
2022-11-24,0.3980582524271844
2022-11-25,0.8137254901960785
2022-11-28,0.18421052631576798
2022-11-29,0.778571428571419
2022-11-30,0.7973856209150261
2022-12-01,0.5674418604651058
2022-12-02,0.5330396475770824
2022-12-05,0.4782608695652117
2022-12-06,0.07456140350877093
2022-12-07,0.08260869565217636
2022-12-08,0.43231441048035435
2022-12-09,0.5447470817120684
2022-12-12,0.77683615819209
2022-12-13,1.0
2022-12-14,0.8817567567567578
2022-12-15,0.6742739649292764
2022-12-16,0.5343185107560653
2022-12-19,0.02224014841076703
2022-12-20,0.0
2022-12-21,0.0
2022-12-22,0.25748138896649847
2022-12-23,0.5767803715965921
2022-12-26,0.6410815330022512
2022-12-27,0.6900250798522112
2022-12-28,0.7350746268656708
2022-12-29,0.5918367346938691
2022-12-30,0.21276595744680377
2023-01-03,0.5157232704402506
2023-01-04,0.31612903225806305
2023-01-05,0.3205128205128243
2023-01-06,0.30864197530865217
2023-01-09,0.25125628140703643
2023-01-10,0.0421052631578966
2023-01-11,0.043956043956045764
2023-01-12,0.049180327868851445
2023-01-13,0.42083333333332534
2023-01-16,0.6560509554140079
2023-01-17,0.7304964539007083
2023-01-18,0.8110236220472457
2023-01-19,0.8167938931297716
2023-01-20,0.14705882352941174
2023-01-30,0.3829787234042554
2023-01-31,0.489051094890514
2023-02-01,0.5153846153846261
2023-02-02,0.6294117647058948
2023-02-03,1.0
2023-02-06,0.8524590163934496
2023-02-07,0.7109375000000137
2023-02-08,0.6546762589928128
2023-02-09,0.258503401360542
2023-02-10,0.035398230088475445
2023-02-13,0.031007751937966604
2023-02-14,0.032786885245882066
2023-02-15,0.06140350877190808
2023-02-16,0.10606060606057162
2023-02-17,0.032258064516128296
2023-02-20,0.2820512820512902
2023-02-21,0.5600000000000164
2023-02-22,0.6302521008403476
2023-02-23,0.6097560975609894
2023-02-24,0.806451612903244
2023-02-27,0.7631578947368626
2023-02-28,0.315789473684213
2023-03-01,0.026315789473692452
2023-03-02,0.25000000000000044
2023-03-03,0.15573770491802985
2023-03-06,0.14049586776858658
2023-03-07,0.27083333333332626
2023-03-08,0.46666666666663775
2023-03-09,0.39240506329112623
2023-03-10,0.9841269841269659
2023-03-13,0.7126436781609202
2023-03-14,0.7093023255813982
2023-03-15,0.6478873239436728
2023-03-16,0.7448979591836719
2023-03-17,0.7727272727272737
2023-03-20,1.0
2023-03-21,1.0
2023-03-22,0.7952755905511864
2023-03-23,0.6017699115044401
2023-03-24,0.26881720430108846
2023-03-27,0.1604938271605215
2023-03-28,0.11235955056181174
2023-03-29,0.2318840579710305
2023-03-30,0.207792207792216
2023-03-31,0.2025316455696225
2023-04-03,0.4324324324324192
2023-04-04,0.5593220338982988
2023-04-06,0.6790123456790068
2023-04-07,0.7746478873239291
2023-04-10,0.9421487603305643
2023-04-11,0.4363636363636361
2023-04-12,0.30681818181818005
2023-04-13,0.027389807068549033
2023-04-14,0.10987666431359634
2023-04-17,0.08289458584440673
2023-04-18,0.15960262129342193
2023-04-19,0.4623235053964243
2023-04-20,0.4613088599459547
2023-04-21,0.4053833554162078
2023-04-24,0.5946562210556313
2023-04-25,0.8174629292888185
2023-04-26,0.7872340425532115
2023-04-27,1.0
2023-04-28,0.7682119205298069
2023-05-04,0.7230769230769253
2023-05-05,0.6470588235294134
2023-05-08,0.5636363636363599
2023-05-09,0.16666666666666655
2023-05-10,0.5070422535211264
2023-05-11,0.3272727272727301
2023-05-12,0.17322834645669588
2023-05-15,0.3881578947368428
2023-05-16,0.359756097560974
2023-05-17,0.24999999999999578
2023-05-18,0.41322314049586273
2023-05-19,0.7014925373134245
2023-05-22,0.760479041916162
2023-05-23,0.9571428571428539
2023-05-24,1.0
2023-05-25,1.0
2023-05-26,0.9617834394904538
2023-05-29,0.428571428571435
2023-05-30,0.46000000000000424
2023-05-31,0.42553191489361836
2023-06-01,0.5344827586206898
2023-06-02,0.5276595744680819
2023-06-05,0.9407894736842084
2023-06-06,0.7716049382716056
2023-06-07,0.5232558139534873
2023-06-08,0.09452736318407914
2023-06-09,0.08333333333333305
2023-06-12,0.10683760683760565
2023-06-13,0.2458333333333352
2023-06-14,0.2809523809523845
2023-06-15,0.5526315789473736
2023-06-16,0.8571428571428618
2023-06-19,0.5118110236220502
2023-06-20,0.19374999999999196
2023-06-21,0.19496855345911138
2023-06-26,0.1999999999999955
2023-06-27,0.11111111111111624
2023-06-28,0.13223140495868235
2023-06-29,0.6637168141592972
2023-06-30,0.7281553398058146
2023-07-03,0.5223880597014782
2023-07-04,0.31550802139036804
2023-07-05,0.4090909090909017
2023-07-06,0.07692307692307591
2023-07-07,0.28638497652581546
2023-07-10,0.3333333333333318
2023-07-11,0.6463414634146333
2023-07-12,0.6914893617021266
2023-07-13,0.9605263157894807
2023-07-14,0.9552238805970233
2023-07-17,1.0
2023-07-18,0.9493087557603753
2023-07-19,0.7788018433179736
2023-07-20,0.7788018433179719
2023-07-21,0.565040650406499
2023-07-24,0.07272727272726949
2023-07-25,0.13452914798205945
2023-07-26,0.2641509433962317
2023-07-27,0.18691588785047591
2023-07-28,0.44174757281554555
2023-07-31,0.8378378378378412
2023-08-01,0.6422764227642358
2023-08-02,0.5096153846153882
2023-08-03,0.8047337278106566
2023-08-04,0.4569892473118323
2023-08-07,0.4345549738219973
2023-08-08,0.5314285714285747
2023-08-09,0.6231155778894479
2023-08-10,0.22043010752687286
2023-08-11,0.3474576271186318
2023-08-14,0.46969696969695807
2023-08-15,0.473684210526311
2023-08-16,0.19393939393939333
2023-08-17,0.5902765271714459
2023-08-18,0.7477018263024249
2023-08-21,0.7513760761655789
2023-08-22,0.6768575403252539
2023-08-23,0.8943759018483554
2023-08-24,0.6586578086197076
2023-08-25,0.19978992400191162
2023-08-28,0.0754704409105494
2023-08-29,0.1250039393360767
2023-08-30,0.3298429319371787
2023-08-31,0.41447368421052416
2023-09-01,0.9180327868852294
2023-09-04,0.9439999999999862
2023-09-05,0.9551282051281937
2023-09-06,0.9421487603305652
2023-09-07,1.0
2023-09-08,0.845771144278611
2023-09-11,0.6639676113360402
2023-09-12,0.7035714285714342
2023-09-13,0.6902985074626887
2023-09-14,0.3100775193798419
2023-09-15,0.3187250996015888
2023-09-18,0.5824561403508707
2023-09-19,0.3609022556390919
2023-09-20,0.31970260223048086
2023-09-21,0.5925925925925943
2023-09-22,0.7064220183486295
2023-09-25,0.5259259259259395
2023-09-26,0.5590551181102416
2023-09-27,0.3678756476683982
2023-09-28,0.15760869565217367
2023-10-09,0.017857142857144764
2023-10-10,0.0
2023-10-11,0.0
2023-10-12,0.14606741573033277
2023-10-13,0.17333333333333587
2023-10-16,0.24637681159421637
2023-10-17,0.1603773584905764
2023-10-18,0.37606837606838645
2023-10-19,0.3240740740740885
2023-10-20,0.4953271028037444
2023-10-23,0.3888888888888911
2023-10-24,0.7294117647058812
2023-10-25,0.3804347826086966
2023-10-26,0.4770642201834805
2023-10-27,0.6566265060240954
2023-10-30,0.6770186335403663
2023-10-31,0.6233766233766287
2023-11-01,0.8235294117647131
2023-11-02,0.7459016393442793
2023-11-03,0.17777777777778894
2023-11-06,0.3488372093023648
2023-11-07,0.2654867256637378
2023-11-08,0.2095238095238277
2023-11-09,0.20370370370371757
2023-11-10,0.20952380952382116
2023-11-13,0.4575163398692668
2023-11-14,0.5967741935483722
2023-11-15,0.618320610687005
2023-11-16,0.5999999999999828
2023-11-17,0.8985507246376745
2023-11-20,0.6391752577319529
2023-11-21,0.8033707865168517
2023-11-22,0.7111111111111158
2023-11-23,0.8071065989847789
2023-11-24,0.5296803652968067
2023-11-27,0.4853556485355657
2023-11-28,0.13901345291479575
2023-11-29,0.17061611374407354
2023-11-30,0.027322404371586412
2023-12-01,0.2662337662337644
2023-12-04,0.5739644970414156
2023-12-05,0.9785714285714319
2023-12-06,0.8407643312101943
2023-12-07,0.7857142857142827
2023-12-08,0.7410071942446037
2023-12-11,0.4519230769230897
2023-12-12,0.06306306306307398
2023-12-13,0.33985758430741275
2023-12-14,0.4056034236271953
2023-12-15,0.28096269463102025
2023-12-18,0.31017782313540065
2023-12-19,0.6064834751302544
2023-12-20,0.6779634470278203
2023-12-21,0.5648067635089431
2023-12-22,0.7760281700867202
2023-12-25,0.656402832330059
2023-12-26,0.4469273743016695
2023-12-27,0.11458333333332861
2023-12-28,0.1445086705202262
2023-12-29,0.018404907975461206
2024-01-02,0.2470588235294158
2024-01-03,0.3464566929134011
2024-01-04,0.8208955223880762
2024-01-05,0.8481012658227967
2024-01-08,1.0
2024-01-09,0.39285714285713236
2024-01-10,0.6851851851851745
2024-01-11,0.5586592178770846
2024-01-12,0.42288557213929623
2024-01-15,0.43961352657004454
2024-01-16,0.5937500000000001
2024-01-17,0.11904761904762458
2024-01-18,0.3140495867768646
2024-01-19,0.4523809523809569
2024-01-22,0.4772727272727194
2024-01-23,0.48888888888887566
2024-01-24,0.5057471264367788
2024-01-25,0.24137931034481266
2024-01-26,0.3529411764705949
2024-01-29,0.23076923076925604
2024-01-30,0.3965517241379569
2024-01-31,0.7096774193548646
2024-02-01,0.9607843137255104
2024-02-02,0.9565217391304549
2024-02-05,0.5465838509316755
2024-02-06,0.5259740259740245
2024-02-07,0.6010928961748555
2024-02-08,0.4062499999999893
2024-02-19,0.396825396825393
2024-02-20,0.8144796380090475
2024-02-21,0.6842105263157825
2024-02-22,0.4458333333333299
2024-02-23,0.5323383084577104
2024-02-26,0.5566037735849079
2024-02-27,0.10156250000000862
2024-02-28,0.11818181818182757
2024-02-29,0.3454545454545593
2024-03-01,0.35185185185185164
2024-03-04,0.29999999999997295
2024-03-05,0.22388059701491325
2024-03-06,0.23437499999999709
2024-03-07,0.11688311688310593
2024-03-08,0.16249999999999862
2024-03-11,0.27956989247313546
2024-03-12,0.35135135135136464
2024-03-13,0.45714285714285563
2024-03-14,0.793478260869559
2024-03-15,0.8571428571428532
2024-03-18,0.7187499999999959
2024-03-19,0.8482142857142861
2024-03-20,0.7235772357723544
2024-03-21,0.4752475247524795
2024-03-22,0.042857142857144565
2024-03-25,0.0312500000000011
2024-03-26,0.0
2024-03-27,0.20000000000000182
2024-03-28,0.21052631578947767
2024-03-29,0.16949152542372875
2024-04-01,0.44444444444444736
2024-04-02,0.39639639639639684
2024-04-03,0.19834710743802145
2024-04-08,0.32520325203251976
2024-04-09,0.3960396039604045
2024-04-10,0.1777777777777755
2024-04-11,0.42000000000000526
2024-04-12,0.6537992659550957
2024-04-15,0.6486323288662869
2024-04-16,0.8946958690184802
2024-04-17,0.9809976302351746
2024-04-18,0.9763334720818252
2024-04-19,0.9877941415170499
2024-04-22,0.8272582419615003
2024-04-23,0.7451212021907314
2024-04-24,0.6662666077106145
2024-04-25,0.5423728813559406
2024-04-26,0.0
2024-04-29,0.0
2024-04-30,0.0
2024-05-06,0.16417910447760628
2024-05-07,0.3476190476190437
2024-05-08,0.4709677419354833
2024-05-09,0.5214723926380408
2024-05-10,0.8581560283687981
2024-05-13,0.8148148148148238
2024-05-14,0.4705882352941178
2024-05-15,0.5714285714285658
2024-05-16,0.555555555555559
2024-05-17,0.7251908396946566
2024-05-20,0.7410071942445974
2024-05-21,0.9863945578231308
2024-05-22,1.0
2024-05-23,1.0
2024-05-24,0.4358974358974271
2024-05-27,0.4387755102040833
2024-05-28,0.34523809523809873
2024-05-29,0.3678160919540294
2024-05-30,0.23076923076923261
2024-05-31,1.0
2024-06-03,1.0
2024-06-04,0.6938775510204012
2024-06-05,0.6118421052631539
2024-06-06,0.47422680412371654
2024-06-07,0.35028248587570987
2024-06-11,0.0
2024-06-12,0.08426966292135095
2024-06-13,0.24365482233503094
2024-06-14,0.31612903225806654
2024-06-17,0.3496503496503488
2024-06-18,0.8620689655172304
2024-06-19,0.8840579710144846
2024-06-20,0.37837837837837635
2024-06-21,0.5353535353535411
2024-06-24,0.5445544554455526
2024-06-25,0.6545454545454611
2024-06-26,0.3511450381679377
2024-06-27,0.4693877551020325
2024-06-28,0.2298850574712513
2024-07-01,0.15596330275228615
2024-07-02,0.0
2024-07-03,0.0
2024-07-04,0.28155339805825225
2024-07-05,0.44339622641509124
2024-07-08,0.63829787234041
2024-07-09,0.5084745762711679
2024-07-10,0.7906976744185966
2024-07-11,0.7087378640776588
2024-07-12,0.4263565891472862
2024-07-15,0.3206106870229077
2024-07-16,0.4311926605504726
2024-07-17,0.1388888888888873
2024-07-18,0.10752688172042973
2024-07-19,0.3606557377049219
2024-07-22,0.6129032258064613
2024-07-23,0.5000000000000127
2024-07-24,0.3456790123456936
2024-07-25,0.6419753086419949
2024-07-26,0.6666666666666795
2024-07-29,0.6027397260274233
2024-07-30,0.8039215686274588
2024-07-31,1.0
2024-08-01,0.9663865546218392
2024-08-02,0.8584070796460096
2024-08-05,0.8699186991869802
2024-08-06,0.58474576271185
2024-08-07,0.10084033613444153
2024-08-08,0.10434782608694493
2024-08-09,0.2017543859649012
2024-08-12,0.09482758620689641
2024-08-13,0.3207547169811307
2024-08-14,0.6091244615647169
2024-08-15,0.6843423943545803
2024-08-16,0.5348017071210603
2024-08-19,0.7125821362460181
2024-08-20,0.7357950587701351
2024-08-21,0.8580578814793302
2024-08-22,0.7683475565906186
2024-08-23,0.7279905325643431
2024-08-26,0.8116408840585999
2024-08-27,0.3982300884955823
2024-08-28,0.27559055118110004
2024-08-29,0.2287581699346406
2024-08-30,0.2333333333333335
2024-09-02,0.0
2024-09-03,0.2359550561797759
2024-09-04,0.7086092715231731
2024-09-05,0.9096774193548267
2024-09-06,0.9774011299434955
2024-09-09,0.945355191256835
2024-09-10,0.9447513812154733
2024-09-11,0.7024793388429748
2024-09-12,0.6842105263157978
2024-09-13,0.5168539325842993
2024-09-18,0.5000000000000226
2024-09-19,0.5400000000000261
2024-09-20,0.5346534653465544
2024-09-23,0.25961538461538375
2024-09-24,0.6276595744680787
2024-09-25,0.7015706806282658
2024-09-26,0.5515463917525766
2024-09-27,0.6685082872928214
2024-09-30,0.8924731182795748
2024-10-08,0.6929824561403567
2024-10-09,0.6969696969697041
2024-10-10,0.8067632850241566
2024-10-11,0.6799999999999979
2024-10-14,0.11261261261261822
2024-10-15,0.13440860215054468
2024-10-16,0.026785714285715516
2024-10-17,0.1102040816326546
2024-10-18,0.2217573221757324
2024-10-21,0.5158730158730143
2024-10-22,0.34946236559139243
2024-10-23,0.4577464788732293
2024-10-24,0.23030303030302046
2024-10-25,0.08510638297871945
2024-10-28,0.0
2024-10-29,0.441860465116279
2024-10-30,0.6402439024390219
2024-10-31,0.9268292682926753
2024-11-01,0.7651006711409327
2024-11-04,0.6826347305389219
2024-11-05,0.3630573248407575
2024-11-06,0.12280701754385229
2024-11-07,0.4594594594594539
2024-11-08,0.621052631578944
2024-11-11,0.7486631016042755
2024-11-12,0.9032258064516211
2024-11-13,0.6887755102040913
2024-11-14,0.23706896551725176
2024-11-15,0.18055555555556016
2024-11-18,0.08095238095238014
2024-11-19,0.2158590308369994
2024-11-20,0.33668341708541993
2024-11-21,0.8532110091743116
2024-11-22,0.6079999999999841
2024-11-25,0.6785714285714027
2024-11-26,0.4888888888888666
2024-11-27,0.28888888888886866
2024-11-28,0.0
2024-11-29,0.0
2024-12-02,0.09375690053197534
2024-12-03,0.2071401636980778
2024-12-04,0.5821559770485332
2024-12-05,0.8613614855242417
2024-12-06,1.0
2024-12-09,0.6879925277614342
2024-12-10,0.5711867737579617
2024-12-11,0.3189792844117577
2024-12-12,0.08695652173911654
2024-12-13,0.0
2024-12-16,0.035714285714283235
2024-12-17,0.03749999999999831
2024-12-18,0.057692307692303366
2024-12-19,0.49122807017544917
2024-12-20,0.8805970149253582
2024-12-23,0.9279279279279189
2024-12-24,0.887931034482746
2024-12-25,0.9000000000000014
2024-12-26,0.6917293233082732
2024-12-27,0.5809523809523747
2024-12-30,0.14285714285715137
2024-12-31,0.4964539007092183
