date,FCT_Demark_Atr_Dfive
2012-05-10,
2012-05-11,
2012-05-14,
2012-05-15,
2012-05-16,
2012-05-17,
2012-05-18,
2012-05-21,
2012-05-22,
2012-05-23,0.0
2012-05-24,0.0
2012-05-25,0.0
2012-05-28,0.05376344086021504
2012-05-29,0.19285714285714295
2012-05-30,0.46551724137930994
2012-05-31,0.5
2012-06-01,0.306818181818182
2012-06-04,0.35106382978723427
2012-06-05,0.2906976744186046
2012-06-06,0.5390625
2012-06-07,0.5948275862068967
2012-06-08,0.9365079365079367
2012-06-11,0.7238805970149255
2012-06-12,0.6940298507462689
2012-06-13,0.33108108108108103
2012-06-14,0.441717791411043
2012-06-15,0.12849162011173204
2012-06-18,0.2701149425287357
2012-06-19,0.24102564102564109
2012-06-20,0.3333333333333335
2012-06-21,0.15686274509803916
2012-06-25,0.2666666666666665
2012-06-26,0.0
2012-06-27,0.11340206185567021
2012-06-28,0.20388349514563112
2012-06-29,0.7202380952380951
2012-07-02,0.7245508982035928
2012-07-03,0.9944444444444444
2012-07-04,0.9941176470588234
2012-07-05,0.993827160493827
2012-07-06,0.4841269841269842
2012-07-09,0.4880000000000001
2012-07-10,0.0225563909774434
2012-07-11,0.013422818791946498
2012-07-12,0.0
2012-07-13,0.0
2012-07-16,0.0
2012-07-17,0.5416666666666665
2012-07-18,0.9152542372881356
2012-07-19,0.6835443037974683
2012-07-20,0.45378151260504196
2012-07-23,0.49180327868852464
2012-07-24,0.2595419847328246
2012-07-25,0.2029210165409867
2012-07-26,0.435617699930045
2012-07-27,0.7502755355240721
2012-07-30,0.6641054243851724
2012-07-31,0.9028913346246681
2012-08-01,0.7136759030362724
2012-08-02,0.5074381986457837
2012-08-03,0.24478361708377142
2012-08-06,0.25712379904743204
2012-08-07,0.0
2012-08-08,0.020833333333325984
2012-08-09,0.12499999999998658
2012-08-10,0.3578947368420871
2012-08-13,0.4315789473684007
2012-08-14,1.0
2012-08-15,0.6746987951807163
2012-08-16,0.5499999999999932
2012-08-17,0.3472222222222214
2012-08-20,0.27692307692308443
2012-08-21,0.3733333333333232
2012-08-22,0.7849462365591395
2012-08-23,0.9611307420494712
2012-08-24,1.0
2012-08-27,1.0
2012-08-28,0.9871465295629843
2012-08-29,0.9854651162790724
2012-08-30,0.44444444444444575
2012-08-31,0.2759740259740299
2012-09-03,0.0
2012-09-04,0.1395348837209289
2012-09-05,0.1318681318681306
2012-09-06,0.7008928571428555
2012-09-07,0.9439528023598782
2012-09-10,0.8963585434173685
2012-09-11,0.8452380952380968
2012-09-12,0.8868501529052004
2012-09-13,0.5331230283911682
2012-09-14,0.02884615384615244
2012-09-17,0.027272727272725793
2012-09-18,0.028571428571427027
2012-09-19,0.28919860627177835
2012-09-20,0.5884955752212383
2012-09-21,0.4981273408239707
2012-09-24,0.6969696969696979
2012-09-25,0.7262247838616723
2012-09-26,0.5168195718654428
2012-09-27,0.36060606060606076
2012-09-28,0.5781818181818176
2012-10-08,0.5303643724696372
2012-10-09,0.4241245136186786
2012-10-10,0.545000000000004
2012-10-11,0.7777777777777808
2012-10-12,0.6283783783783865
2012-10-15,0.096385542168676
2012-10-16,0.11467889908256865
2012-10-17,0.1063829787234036
2012-10-18,0.004385964912278838
2012-10-19,0.058295964125555266
2012-10-22,0.4999999999999826
2012-10-23,0.49367088607594034
2012-10-24,0.7901234567901203
2012-10-25,1.0
2012-10-26,1.0
2012-10-29,0.8802083333333386
2012-10-30,0.8284313725490227
2012-10-31,0.7128712871287193
2012-11-01,0.5347593582887747
2012-11-02,0.0
2012-11-05,0.3218645540282171
2012-11-06,0.32529662436096085
2012-11-07,0.6444930048078896
2012-11-08,0.6276287708915437
2012-11-09,0.49321884206453864
2012-11-12,0.34560460316925073
2012-11-13,0.3831153409335954
2012-11-14,0.03571824710782923
2012-11-15,0.03896103896103787
2012-11-16,0.23809523809523467
2012-11-19,0.25157232704402127
2012-11-20,0.21192052980132295
2012-11-21,0.5714285714285681
2012-11-22,0.7432432432432444
2012-11-23,0.40677966101695406
2012-11-26,0.5853658536585371
2012-11-27,0.5609756097560916
2012-11-28,0.6086956521739116
2012-11-29,0.639999999999993
2012-11-30,0.5161290322580617
2012-12-03,0.608108108108108
2012-12-04,0.7777777777777801
2012-12-05,0.747747747747749
2012-12-06,0.7666666666666694
2012-12-07,1.0
2012-12-10,0.7207207207207189
2012-12-11,0.22314049586776855
2012-12-12,0.162337662337665
2012-12-13,0.25433526011560803
2012-12-14,0.3451776649746211
2012-12-17,0.5333333333333381
2012-12-18,0.8035607409559746
2012-12-19,1.0
2012-12-20,0.6008953629853303
2012-12-21,0.5538869113486627
2012-12-24,0.3604636219334703
2012-12-25,0.16166822227787467
2012-12-26,0.06595825459323265
2012-12-27,0.42931029143049176
2012-12-28,0.1795748730964372
2012-12-31,0.18840579710143784
2013-01-04,0.4615384615384411
2013-01-07,0.7468354430379678
2013-01-08,0.6543209876543173
2013-01-09,0.7412587412587378
2013-01-10,0.6424242424242412
2013-01-11,0.3763440860215108
2013-01-14,0.0
2013-01-15,0.15686274509804002
2013-01-16,0.23489932885906006
2013-01-17,0.33333333333333576
2013-01-18,0.518072289156617
2013-01-21,0.49425287356321945
2013-01-22,0.1775700934579448
2013-01-23,0.07766990291262481
2013-01-24,0.09523809523810325
2013-01-25,0.12500000000000625
2013-01-28,0.1481481481481556
2013-01-29,0.46808510638299483
2013-01-30,0.3666666666666762
2013-01-31,0.1643835616438319
2013-02-01,0.11494252873563263
2013-02-04,0.3370786516853852
2013-02-05,0.22727272727272013
2013-02-06,0.43529411764705267
2013-02-07,0.536231884057965
2013-02-08,0.8241758241758241
2013-02-18,0.774647887323949
2013-02-19,0.7142857142857125
2013-02-20,0.6615384615384627
2013-02-21,0.9044585987261161
2013-02-22,0.6887417218543064
2013-02-25,0.7283236994219641
2013-02-26,0.84158415841584
2013-02-27,0.840796019900496
2013-02-28,0.32258064516128804
2013-03-01,0.4221105527638176
2013-03-04,0.3039215686274507
2013-03-05,0.14970059880239384
2013-03-06,0.13939393939394015
2013-03-07,0.6197183098591509
2013-03-08,0.4687499999999986
2013-03-11,0.6521739130434808
2013-03-12,0.2987012987013015
2013-03-13,0.22340425531914643
2013-03-14,0.4785714285714293
2013-03-15,0.5217391304347817
2013-03-18,0.7121212121212113
2013-03-19,0.8294117647058822
2013-03-20,0.9393939393939398
2013-03-21,0.5789473684210531
2013-03-22,0.49112426035503126
2013-03-25,0.08805031446540967
2013-03-26,0.1176470588235314
2013-03-27,0.45344129554655793
2013-03-28,0.5773195876288635
2013-03-29,0.7309417040358707
2013-04-01,0.995535714285711
2013-04-02,0.9958158995815868
2013-04-03,0.6220095693779888
2013-04-08,0.6103286384976561
2013-04-09,0.427027027027031
2013-04-10,0.0959595959595966
2013-04-11,0.0
2013-04-12,0.0
2013-04-15,0.0
2013-04-16,0.0
2013-04-17,0.43772241992882727
2013-04-18,0.6644295302013441
2013-04-19,0.8018867924528306
2013-04-22,0.8990990990990996
2013-04-23,1.0
2013-04-24,0.974958263772955
2013-04-25,0.7243816254416968
2013-04-26,0.644646924829157
2013-05-02,0.5806451612903216
2013-05-03,0.03018867924527751
2013-05-06,0.035856573705172805
2013-05-07,0.33552631578946296
2013-05-08,0.21071310721531875
2013-05-09,0.26372165370446127
2013-05-10,0.39005560183660565
2013-05-13,0.28544982540222436
2013-05-14,0.09283012688790977
2013-05-15,0.3380752905928403
2013-05-16,0.2156367438634269
2013-05-17,0.21559396418325474
2013-05-20,0.4776945867695328
2013-05-21,0.7551020408163239
2013-05-22,0.5136186770427992
2013-05-23,0.6181818181818169
2013-05-24,0.6666666666666651
2013-05-27,0.3538461538461525
2013-05-28,0.019230769230767858
2013-05-29,0.10897435897436114
2013-05-30,0.12025316455697115
2013-05-31,0.10734463276837004
2013-06-03,0.11242603550296762
2013-06-04,0.28000000000002123
2013-06-05,0.13888888888890538
2013-06-06,0.06818181818182549
2013-06-07,0.07692307692308514
2013-06-13,0.20547945205480586
2013-06-14,0.08571428571428603
2013-06-17,0.07792207792207852
2013-06-18,0.1071428571428583
2013-06-19,0.25862068965517393
2013-06-20,0.7133333333333347
2013-06-21,0.7328767123287643
2013-06-24,0.954166666666663
2013-06-25,0.9922480620155006
2013-06-26,0.9951807228915641
2013-06-27,0.8160621761657996
2013-06-28,0.8617234468937864
2013-07-01,0.7421686746987946
2013-07-02,0.7060301507537671
2013-07-03,0.28894472361809115
2013-07-04,0.308310991957106
2013-07-05,0.0
2013-07-08,0.0
2013-07-09,0.16666666666666724
2013-07-10,0.3737864077669892
2013-07-11,0.7745358090185653
2013-07-12,0.7891891891891885
2013-07-15,0.9064327485380125
2013-07-16,0.7339181286549722
2013-07-17,0.6753623188405806
2013-07-18,0.0895522388059713
2013-07-19,0.10404624277456753
2013-07-22,0.23267326732673005
2013-07-23,0.3333333333333321
2013-07-24,0.4318181818181855
2013-07-25,0.29381443298969484
2013-07-26,0.24255319148936552
2013-07-29,0.04201680672269614
2013-07-30,0.03688524590164341
2013-07-31,0.07843137254901787
2013-08-01,0.2916666666666595
2013-08-02,0.6524390243902364
2013-08-05,0.8045112781954799
2013-08-06,0.7810218978102204
2013-08-07,0.6397058823529443
2013-08-08,0.6818181818181867
2013-08-09,0.43478260869566077
2013-08-12,0.8663967611336089
2013-08-13,0.9339339339339369
2013-08-14,0.991097922848666
2013-08-15,0.991097922848666
2013-08-16,1.0
2013-08-19,0.8014354066985638
2013-08-20,0.794044665012407
2013-08-21,0.7930174563591029
2013-08-22,0.6747572815533983
2013-08-23,0.23842592592592907
2013-08-26,0.4853556485355679
2013-08-27,0.3138075313807545
2013-08-28,0.3306122448979592
2013-08-29,0.5991316931982639
2013-08-30,0.8506375227686693
2013-09-02,0.7561521252796402
2013-09-03,0.7934272300469484
2013-09-04,0.7958236658932722
2013-09-05,0.22195121951219698
2013-09-06,0.09268292682927033
2013-09-09,0.06597222222222364
2013-09-10,0.14821428571428616
2013-09-11,0.0770547945205471
2013-09-12,0.11749347258485522
2013-09-13,0.20833333333333287
2013-09-16,0.619834710743805
2013-09-17,0.44117647058824067
2013-09-18,0.5898876404494436
2013-09-23,0.841328413284133
2013-09-24,0.747169811320753
2013-09-25,0.6089108910891019
2013-09-26,0.7068965517241268
2013-09-27,0.6059113300492535
2013-09-30,0.0
2013-10-08,0.0
2013-10-09,0.0
2013-10-10,0.0
2013-10-11,0.05208333333333395
2013-10-14,0.25874125874126025
2013-10-15,0.40993788819876004
2013-10-16,0.8372093023255829
2013-10-17,1.0
2013-10-18,0.8052631578947341
2013-10-21,0.8121827411167484
2013-10-22,0.615023474178401
2013-10-23,0.5287356321839084
2013-10-24,0.18823529411764894
2013-10-25,0.4419889502762442
2013-10-28,0.3053892215568894
2013-10-29,0.36956521739130777
2013-10-30,0.3287671232876695
2013-10-31,0.8108108108108096
2013-11-01,0.5892857142857142
2013-11-04,0.5454545454545484
2013-11-05,0.6209677419354863
2013-11-06,0.5365853658536617
2013-11-07,0.07612456747404843
2013-11-08,0.31329113924050894
2013-11-11,0.46511627906976843
2013-11-12,0.4407294832826757
2013-11-13,0.6214689265536737
2013-11-14,1.0
2013-11-15,0.6756756756756748
2013-11-18,0.4145454545454543
2013-11-19,0.412408759124089
2013-11-20,0.1484374999999998
2013-11-21,0.10655737704918188
2013-11-22,0.15294117647059083
2013-11-25,0.5037037037037042
2013-11-26,0.5179856115107891
2013-11-27,0.7409663411471187
2013-11-28,0.4503485922989326
2013-11-29,0.47438127731099416
2013-12-02,0.11005087554795383
2013-12-03,0.05325614080186306
2013-12-04,0.09052192673797703
2013-12-05,0.5566154321464486
2013-12-06,0.7564329503065234
2013-12-09,1.0
2013-12-10,0.9508196721311447
2013-12-11,0.9538461538461508
2013-12-12,0.6760563380281627
2013-12-13,0.7032258064516109
2013-12-16,0.3696969696969714
2013-12-17,0.556561085972853
2013-12-18,0.6230769230769254
2013-12-19,0.8141025641025658
2013-12-20,0.6077844311377242
2013-12-23,0.7652733118971047
2013-12-24,0.5253731343283553
2013-12-25,0.37573964497041257
2013-12-26,0.09943181818181811
2013-12-27,0.2694610778443112
2013-12-30,0.20779220779220692
2013-12-31,0.38521400778210124
2014-01-02,0.608856088560886
2014-01-03,1.0
2014-01-06,0.8139534883720949
2014-01-07,0.6787564766839397
2014-01-08,0.6352941176470611
2014-01-09,0.39622641509433937
2014-01-10,0.38461538461538364
2014-01-13,0.7894736842105231
2014-01-14,0.9887005649717481
2014-01-15,0.8810810810810852
2014-01-16,0.6995708154506495
2014-01-17,0.5335968379446694
2014-01-20,0.19642857142857284
2014-01-21,0.0
2014-01-22,0.0
2014-01-23,0.0
2014-01-24,0.0
2014-01-27,0.2945205479452036
2014-01-28,0.42574257425741807
2014-01-29,0.6825396825396685
2014-01-30,0.7692307692307648
2014-02-07,0.7954545454545465
2014-02-10,0.47368421052632614
2014-02-11,0.7166666666666739
2014-02-12,0.8208955223880636
2014-02-13,0.4042553191489385
2014-02-14,0.6164383561643801
2014-02-17,0.7962962962962938
2014-02-18,0.8204081632653036
2014-02-19,0.8345864661654109
2014-02-20,1.0
2014-02-21,0.787581699346406
2014-02-24,0.5540069686411149
2014-02-25,0.3999999999999986
2014-02-26,0.3241106719367593
2014-02-27,0.14070351758793967
2014-02-28,0.22627737226276934
2014-03-03,0.34065934065933384
2014-03-04,0.7499999999999967
2014-03-05,0.45454545454544987
2014-03-06,0.12707182320441746
2014-03-07,0.22549019607843335
2014-03-10,0.5236486486486499
2014-03-11,0.46075085324232246
2014-03-12,0.6450617283950634
2014-03-13,0.9384057971014503
2014-03-14,0.8233215547703188
2014-03-17,0.5188284518828445
2014-03-18,0.6079999999999997
2014-03-19,0.359447004608296
2014-03-20,0.1627906976744213
2014-03-21,0.274509803921568
2014-03-24,0.28187919463087335
2014-03-25,0.08484848484848109
2014-03-26,0.08749999999999565
2014-03-27,0.07567567567567204
2014-03-28,0.0
2014-03-31,0.0
2014-04-01,0.09448818897637891
2014-04-02,0.10810810810811003
2014-04-03,0.11320754716981288
2014-04-04,0.12500000000000117
2014-04-08,0.27586206896552484
2014-04-09,0.11538461538462146
2014-04-10,0.4705882352941198
2014-04-11,0.5982905982905986
2014-04-14,0.7363636363636367
2014-04-15,0.7339449541284386
2014-04-16,1.0
2014-04-17,0.5308641975308557
2014-04-18,0.4457831325301156
2014-04-21,0.656716417910446
2014-04-22,0.553956834532371
2014-04-23,0.4920634920634897
2014-04-24,0.6391752577319573
2014-04-25,0.8906882591093112
2014-04-28,0.6839826839826841
2014-04-29,0.7314814814814816
2014-04-30,0.7281105990783435
2014-05-05,0.7747747747747765
2014-05-06,0.06603773584905787
2014-05-07,0.07291666666666827
2014-05-08,0.11500000000000506
2014-05-09,0.1150000000000045
2014-05-12,0.07812500000000039
2014-05-13,0.5173842815421545
2014-05-14,0.932022281585472
2014-05-15,0.6975874252389113
2014-05-16,0.7862466985269791
2014-05-19,0.7733035768753694
2014-05-20,0.5707694440227099
2014-05-21,0.6942721874573784
2014-05-22,0.8377070569548128
2014-05-23,0.7782419967444272
2014-05-26,0.4032258064516065
2014-05-27,0.3968253968253999
2014-05-28,0.0
2014-05-29,0.243243243243253
2014-05-30,0.22784810126582886
2014-06-03,0.6444444444444574
2014-06-04,0.5800000000000062
2014-06-05,0.6444444444444468
2014-06-06,0.3960396039604
2014-06-09,0.46601941747573367
2014-06-10,0.0776699029126255
2014-06-11,0.09090909090909711
2014-06-12,0.18604651162791372
2014-06-13,0.5940594059405998
2014-06-16,0.6821705426356629
2014-06-17,0.9913793103448358
2014-06-18,1.0
2014-06-19,1.0
2014-06-20,1.0
2014-06-23,0.9234972677595604
2014-06-24,0.8711656441717799
2014-06-25,0.8965517241379319
2014-06-26,0.8729281767955812
2014-06-27,0.24752475247525002
2014-06-30,0.2659574468085158
2014-07-01,0.35784313725490485
2014-07-02,0.11557788944723714
2014-07-03,0.13432835820895375
2014-07-04,0.2934782608695634
2014-07-07,0.47580645161289914
2014-07-08,0.2903225806451573
2014-07-09,0.4756097560975605
2014-07-10,0.5000000000000029
2014-07-11,0.7444444444444418
2014-07-14,0.43209876543208925
2014-07-15,0.55555555555554
2014-07-16,0.654320987654309
2014-07-17,0.4326923076922984
2014-07-18,0.3655913978494617
2014-07-21,0.34000000000000147
2014-07-22,0.3366336633663397
2014-07-23,0.12264150943396616
2014-07-24,0.34042553191489683
2014-07-25,0.30337078651685
2014-07-28,0.6363636363636345
2014-07-29,0.6292134831460654
2014-07-30,0.8985507246376798
2014-07-31,0.6615384615384615
2014-08-01,0.34313725490196095
2014-08-04,0.05555555555555127
2014-08-05,0.28571428571428664
2014-08-06,0.306569343065697
2014-08-07,0.3255813953488385
2014-08-08,0.5624999999999943
2014-08-11,0.7105263157894735
2014-08-12,0.26829268292682185
2014-08-13,0.13333333333332736
2014-08-14,0.3039215686274497
2014-08-15,0.16964285714286007
2014-08-18,0.47651006711409094
2014-08-19,0.658119658119661
2014-08-20,0.7981651376146807
2014-08-21,0.7659574468085117
2014-08-22,1.0
2014-08-25,0.46666666666667517
2014-08-26,0.5675675675675695
2014-08-27,0.5096153846153869
2014-08-28,0.5486725663716815
2014-08-29,0.3883495145631022
2014-09-01,0.7619047619047559
2014-09-02,0.4468085106382931
2014-09-03,0.3281249999999974
2014-09-04,0.08163265306122847
2014-09-05,0.2777777777777842
2014-09-09,0.20370370370370547
2014-09-10,0.353448275862066
2014-09-11,0.455445544554451
2014-09-12,0.9245283018867843
2014-09-15,0.7599999999999925
2014-09-16,0.864406779661018
2014-09-17,0.6535433070866182
2014-09-18,0.7215189873417757
2014-09-19,0.5688073394495496
2014-09-22,0.8996763754045332
2014-09-23,0.8980263157894759
2014-09-24,0.9899665551839482
2014-09-25,0.9893617021276614
2014-09-26,1.0
2014-09-29,0.40952380952380757
2014-09-30,0.3292682926829253
2014-10-08,0.32721712538226255
2014-10-09,0.27499999999999986
2014-10-10,0.07189542483660234
2014-10-13,0.20967741935483777
2014-10-14,0.26804123711340055
2014-10-15,0.04999999999999362
2014-10-16,0.05633802816900655
2014-10-17,0.08163265306121412
2014-10-20,0.0
2014-10-21,0.0
2014-10-22,0.0
2014-10-23,0.0
2014-10-24,0.0
2014-10-27,4.872830551195107e-15
2014-10-28,0.10679611650485381
2014-10-29,0.15068493150684723
2014-10-30,0.7699115044247732
2014-10-31,0.9822485207100564
2014-11-03,0.9864864864864845
2014-11-04,0.9865470852017916
2014-11-05,1.0
2014-11-06,0.897498736332439
2014-11-07,0.8548802526870694
2014-11-10,0.850263349101121
2014-11-11,0.8314804692760487
2014-11-12,0.27213541666666835
2014-11-13,0.2687409699628737
2014-11-14,0.3771443552688983
2014-11-17,0.5209145641366334
2014-11-18,0.5532392559332878
2014-11-19,0.7772020725388599
2014-11-20,0.9521912350597626
2014-11-21,0.662460567823344
2014-11-24,0.2785145888594166
2014-11-25,0.23237597911227134
2014-11-26,0.2539682539682528
2014-11-27,0.019830028328610912
2014-11-28,0.12543554006968696
2014-12-01,0.592417061611374
2014-12-02,0.8468899521531104
2014-12-03,0.858407079646018
2014-12-04,0.9463414634146357
2014-12-05,0.9454094292803984
2014-12-08,0.7786666666666682
2014-12-09,0.18103448275861847
2014-12-10,0.1176470588235294
2014-12-11,0.2528409090909078
2014-12-12,0.1845730027548212
2014-12-15,0.226973684210527
2014-12-16,0.8341708542713586
2014-12-17,0.8764044943820236
2014-12-18,0.8669354838709693
2014-12-19,1.0
2014-12-22,0.7950530035335692
2014-12-23,0.5182186234817832
2014-12-24,0.18106995884773894
2014-12-25,0.038095238095239584
2014-12-26,0.0
2014-12-29,0.03690036900369091
2014-12-30,0.040816326530613185
2014-12-31,0.1842105263157924
2015-01-05,0.47422680412371465
2015-01-06,0.7388059701492569
2015-01-07,0.7535211267605656
2015-01-08,0.8230769230769256
2015-01-09,0.41836734693877525
2015-01-12,0.5169491525423718
2015-01-13,0.3239436619718291
2015-01-14,0.3542600896860963
2015-01-15,0.5061224489795891
2015-01-16,0.8113207547169793
2015-01-19,0.8224852071005903
2015-01-20,0.8797468354430396
2015-01-21,0.8869047619047635
2015-01-22,0.8901734104046253
2015-01-23,0.8972972972972982
2015-01-26,0.5249999999999982
2015-01-27,0.6274509803921542
2015-01-28,0.3543307086614156
2015-01-29,0.1481481481481488
2015-01-30,0.33526011560693475
2015-02-02,0.5126582278481007
2015-02-03,0.4744027303754271
2015-02-04,0.7053571428571415
2015-02-05,0.9461077844311433
2015-02-06,0.35714285714285904
2015-02-09,0.14598540145985292
2015-02-10,0.11235955056179425
2015-02-11,0.005747126436781024
2015-02-12,0.023809523809521296
2015-02-13,0.2911392405063211
2015-02-16,0.18487394957982628
2015-02-17,0.3086419753086343
2015-02-25,0.34246575342464364
2015-02-26,0.21999999999999129
2015-02-27,0.027027027027024097
2015-03-02,0.03614457831324905
2015-03-03,0.5675675675675665
2015-03-04,0.6294416243654838
2015-03-05,0.7688172043010771
2015-03-06,0.9212121212121213
2015-03-09,1.0
2015-03-10,0.4375000000000014
2015-03-11,0.3068783068783063
2015-03-12,0.3514851485148526
2015-03-13,0.317948717948719
2015-03-16,0.16000000000000086
2015-03-17,0.31067961165048513
2015-03-18,0.6213592233009702
2015-03-19,0.6548672566371668
2015-03-20,0.6607142857142891
2015-03-23,0.9795918367346992
2015-03-24,0.9935064935064971
2015-03-25,0.9837398373983793
2015-03-26,0.5302013422818808
2015-03-27,0.5197368421052609
2015-03-30,0.0599999999999963
2015-03-31,0.09032258064516037
2015-04-01,0.08749999999999915
2015-04-02,0.1458333333333317
2015-04-03,0.18749999999999958
2015-04-07,0.3396226415094335
2015-04-08,0.05000000000000098
2015-04-09,0.527027027027029
2015-04-10,0.506493506493509
2015-04-13,0.5096774193548422
2015-04-14,0.6709677419354887
2015-04-15,0.9290780141843984
2015-04-16,0.42222222222222394
2015-04-17,0.5142857142857142
2015-04-20,0.45890410958904065
2015-04-21,0.318181818181816
2015-04-22,0.12396694214875839
2015-04-23,0.26315789473683837
2015-04-24,0.0
2015-04-27,0.26027397260273716
2015-04-28,0.6884057971014492
2015-04-29,0.8269230769230765
2015-04-30,0.8506493506493504
2015-05-04,1.0
2015-05-05,1.0
2015-05-06,0.49999999999999617
2015-05-07,0.3711593333884702
2015-05-08,0.3589654690629091
2015-05-11,0.2198648427399558
2015-05-12,0.0
2015-05-13,0.594906660818196
2015-05-14,0.6843525427462255
2015-05-15,0.6716659910822972
2015-05-18,0.9129802627569539
2015-05-19,0.8882789933335055
2015-05-20,0.9051724137931063
2015-05-21,0.7445255474452571
2015-05-22,0.7629629629629602
2015-05-25,0.41007194244604034
2015-05-26,0.48965517241378803
2015-05-27,0.09316770186334429
2015-05-28,0.1071428571428462
2015-05-29,0.09395973154361899
2015-06-01,0.1249999999999935
2015-06-02,0.0
2015-06-03,0.0
2015-06-04,0.2380952380952459
2015-06-05,0.40625000000000877
2015-06-08,0.5967741935483974
2015-06-09,0.33035714285714385
2015-06-10,0.3592233009708757
2015-06-11,0.211538461538464
2015-06-12,0.11827956989247448
2015-06-15,0.0
2015-06-16,0.31666666666666676
2015-06-17,0.5
2015-06-18,0.7808219178082138
2015-06-19,0.8095238095238062
2015-06-23,1.0
2015-06-24,1.0
2015-06-25,0.8000000000000009
2015-06-26,0.5972222222222207
2015-06-29,0.573529411764698
2015-06-30,0.7679999999999947
2015-07-01,0.7456140350877145
2015-07-02,0.8983050847457573
2015-07-03,0.8983050847457643
2015-07-06,0.7443609022556429
2015-07-07,0.33009708737864357
2015-07-08,0.6349206349206347
2015-07-09,0.801152737752161
2015-07-10,0.8366762177650421
2015-07-13,0.8961424332344194
2015-07-14,1.0
2015-07-15,0.6407035175879396
2015-07-16,0.1943734015345272
2015-07-17,0.22029702970297063
2015-07-20,0.25882352941176595
2015-07-21,0.14180929095354536
2015-07-22,0.30897009966777444
2015-07-23,0.650349650349647
2015-07-24,0.5546218487394952
2015-07-27,0.4044943820224691
2015-07-28,0.3673469387755102
2015-07-29,0.009523809523806114
2015-07-30,0.20353982300884899
2015-07-31,0.15231788079470035
2015-08-03,0.11764705882353024
2015-08-04,0.3258426966292161
2015-08-05,0.42335766423358046
2015-08-06,0.2500000000000042
2015-08-07,0.41228070175439024
2015-08-10,0.6385542168674718
2015-08-11,0.714285714285711
2015-08-12,0.8830645161290327
2015-08-13,1.0
2015-08-14,0.936567164179106
2015-08-17,0.9442622950819687
2015-08-18,0.6647398843930653
2015-08-19,0.27044025157232715
2015-08-20,0.20274914089347126
2015-08-21,0.2760942760942758
2015-08-24,0.1460674157303358
2015-08-25,0.4487179487179467
2015-08-26,0.9161290322580622
2015-08-27,0.7159090909090923
2015-08-28,0.7607655502392354
2015-08-31,0.7035398230088491
2015-09-01,0.4649999999999999
2015-09-02,0.264150943396225
2015-09-07,0.2758620689655142
2015-09-08,0.0
2015-09-09,0.029556650246309598
2015-09-10,0.03191489361702573
2015-09-11,0.04026845637584464
2015-09-14,0.23333333333334014
2015-09-15,0.43750000000001
2015-09-16,0.2871287128712901
2015-09-17,0.45348837209302784
2015-09-18,0.71969696969697
2015-09-21,0.6574074074074076
2015-09-22,0.7326732673267325
2015-09-23,0.9024390243902418
2015-09-24,0.7529411764705873
2015-09-25,0.1290322580645177
2015-09-28,0.041666666666665145
2015-09-29,0.3030303030303006
2015-09-30,0.3061224489795898
2015-10-08,0.6540880503144637
2015-10-09,0.7999999999999984
2015-10-12,0.8813559322033896
2015-10-13,0.8640776699029128
2015-10-14,0.9385964912280702
2015-10-15,0.29729729729729815
2015-10-16,0.25581395348837377
2015-10-19,0.27343750000000044
2015-10-20,0.1470588235294113
2015-10-21,0.016393442622949308
2015-10-22,0.03846153846153514
2015-10-23,0.42857142857142316
2015-10-26,0.41666666666666496
2015-10-27,0.41666666666666063
2015-10-28,0.4444444444444421
2015-10-29,0.7446808510638291
2015-10-30,0.573033707865171
2015-11-02,0.4347826086956531
2015-11-03,0.5483870967741983
2015-11-04,0.5000000000000024
2015-11-05,0.014084507042255445
2015-11-06,0.014925373134330202
2015-11-09,0.5617977528089835
2015-11-10,0.6517857142857093
2015-11-11,0.7433628318584007
2015-11-12,0.6315789473684184
2015-11-13,0.7272727272727273
2015-11-16,0.44715447154471544
2015-11-17,0.44715447154471544
2015-11-18,0.39993650691160304
2015-11-19,0.6834977623238592
2015-11-20,0.6016616972092933
2015-11-23,1.0
2015-11-24,0.8554641728509066
2015-11-25,0.8666004403707331
2015-11-26,0.8759558668081167
2015-11-27,0.88300606983817
2015-11-30,0.330872552035276
2015-12-01,0.3441558441558481
2015-12-02,0.23668639053254786
2015-12-03,0.07006369426752
2015-12-04,0.46323529411764613
2015-12-07,0.7531380753138075
2015-12-08,0.8185483870967745
2015-12-09,0.9254385964912296
2015-12-10,0.9504504504504473
2015-12-11,0.34136546184738725
2015-12-14,0.1165413533834569
2015-12-15,0.029962546816478294
2015-12-16,0.0
2015-12-17,0.03333333333333401
2015-12-18,0.23943661971831118
2015-12-21,0.6145833333333286
2015-12-22,0.8194444444444381
2015-12-23,1.0
2015-12-24,0.6808510638297884
2015-12-25,0.3482142857142867
2015-12-28,0.13207547169811754
2015-12-29,0.1250000000000038
2015-12-30,0.0
2015-12-31,0.0
2016-01-04,0.4999999999999972
2016-01-05,0.576923076923075
2016-01-06,0.5696202531645623
2016-01-07,0.841666666666674
2016-01-08,0.9014084507042313
2016-01-11,0.6974789915966461
2016-01-12,0.8013698630137033
2016-01-13,0.8428571428571436
2016-01-14,0.584905660377356
2016-01-15,0.35353535353534793
2016-01-18,0.3888888888888838
2016-01-19,0.00961538461538424
2016-01-20,0.0
2016-01-21,0.0
2016-01-22,0.03809523809523752
2016-01-25,0.16190476190476355
2016-01-26,0.4285714285714265
2016-01-27,0.5131578947368386
2016-01-28,1.0
2016-01-29,0.9777777777777891
2016-02-01,0.6739130434782572
2016-02-02,0.4390243902439039
2016-02-03,0.22500000000000656
2016-02-04,0.5079365079365078
2016-02-05,0.5714285714285665
2016-02-15,0.7837837837837867
2016-02-16,0.8873239436619735
2016-02-17,1.0
2016-02-18,0.42465753424657354
2016-02-19,0.3066666666666672
2016-02-22,0.08333333333333194
2016-02-23,0.0
2016-02-24,0.0
2016-02-25,0.5789473684210535
2016-02-26,0.7704918032786814
2016-02-29,0.9098360655737656
2016-03-01,0.9492753623188387
2016-03-02,1.0
2016-03-03,0.9007092198581526
2016-03-04,0.9230769230769204
2016-03-07,0.9034482758620658
2016-03-08,0.930348258706465
2016-03-09,0.9380530973451303
2016-03-10,1.0
2016-03-11,1.0
2016-03-14,0.594142259414226
2016-03-15,0.35483870967742126
2016-03-16,0.058823529411767626
2016-03-17,0.1688311688311684
2016-03-18,0.1371681415929186
2016-03-21,0.3241379310344807
2016-03-22,0.27325581395348625
2016-03-23,0.5725806451612863
2016-03-24,0.29629629629629267
2016-03-25,0.19230769230769154
2016-03-28,0.10762331838564952
2016-03-29,0.12903225806451496
2016-03-30,0.0
2016-03-31,0.029629629629628847
2016-04-01,0.09836065573769434
2016-04-05,0.5199999999999751
2016-04-06,0.47272727272726334
2016-04-07,0.490566037735844
2016-04-08,0.4000000000000035
2016-04-11,0.5600000000000177
2016-04-12,0.3384615384615615
2016-04-13,0.5967741935484125
2016-04-14,0.8095238095238332
2016-04-15,0.8765432098765509
2016-04-18,0.8648648648648717
2016-04-19,1.0
2016-04-20,1.0
2016-04-21,1.0
2016-04-22,1.0
2016-04-25,1.0
2016-04-26,0.7712177121771228
2016-04-27,0.7378435517970416
2016-04-28,0.5466377440347079
2016-04-29,0.2011019283746575
2016-05-03,0.002710027100272344
2016-05-04,0.15570934256055366
2016-05-05,0.12464589235127346
2016-05-06,0.22758620689655104
2016-05-09,0.2365591397849457
2016-05-10,0.37491381750357383
2016-05-11,0.20187176645284577
2016-05-12,0.34447925567265
2016-05-13,0.22694701957096083
2016-05-16,0.8215618503769389
2016-05-17,0.528119108728732
2016-05-18,0.4436039301726597
2016-05-19,0.690031939034177
2016-05-20,0.49358267577504344
2016-05-23,0.39890710382513817
2016-05-24,0.43975903614458217
2016-05-25,0.4965986394557855
2016-05-26,0.0
2016-05-27,0.2926829268292677
2016-05-30,0.3720930232558117
2016-05-31,0.38095238095237804
2016-06-01,0.3310344827586181
2016-06-02,0.5517241379310379
2016-06-03,0.1111111111111107
2016-06-06,0.0
2016-06-07,0.0
2016-06-08,0.18994413407821173
2016-06-13,0.2925531914893598
2016-06-14,0.482993197278908
2016-06-15,0.8837209302325562
2016-06-16,1.0
2016-06-17,1.0
2016-06-20,0.9444444444444439
2016-06-21,0.9411764705882348
2016-06-22,0.9444444444444441
2016-06-23,0.5053191489361708
2016-06-24,0.18260869565217627
2016-06-27,0.3057851239669461
2016-06-28,0.30000000000000315
2016-06-29,0.6000000000000015
2016-06-30,0.9939024390243927
2016-07-01,1.0
2016-07-04,1.0
2016-07-05,1.0
2016-07-06,1.0
2016-07-07,1.0
2016-07-08,0.7876254180602019
2016-07-11,0.7719928186714553
2016-07-12,0.37358490566037733
2016-07-13,0.20994475138121418
2016-07-14,0.16634429400386808
2016-07-15,0.2004662004662
2016-07-18,0.0
2016-07-19,0.0
2016-07-20,0.0
2016-07-21,0.0
2016-07-22,0.20959595959595834
2016-07-25,0.4048780487804895
2016-07-26,0.558139534883722
2016-07-27,0.7692307692307683
2016-07-28,0.9090909090909071
2016-07-29,0.5591836734693861
2016-08-01,0.6037037037037011
2016-08-02,0.46840148698884315
2016-08-03,0.5158730158730146
2016-08-04,0.13953488372093353
2016-08-05,0.2000000000000037
2016-08-08,0.02666666666667298
2016-08-09,0.033613445378159655
2016-08-10,0.4819819819819844
2016-08-11,0.614942528735635
2016-08-12,0.7371428571428617
2016-08-15,0.8816568047337352
2016-08-16,0.9202127659574487
2016-08-17,0.3882352941176441
2016-08-18,0.4855491329479709
2016-08-19,0.3690476190476138
2016-08-22,0.41436464088397273
2016-08-23,0.26153846153845745
2016-08-24,0.4146341463414616
2016-08-25,0.5200000000000004
2016-08-26,0.5571428571428582
2016-08-29,0.41666666666666863
2016-08-30,0.734042553191501
2016-08-31,0.9069767441860537
2016-09-01,0.20000000000000442
2016-09-02,0.3842364532019737
2016-09-05,0.27272727272727393
2016-09-06,0.18685121107266392
2016-09-07,0.28353658536585385
2016-09-08,0.49773755656108465
2016-09-09,0.33505154639175194
2016-09-12,0.7554347826086969
2016-09-13,0.9166666666666671
2016-09-14,0.7281553398058236
2016-09-19,0.751111111111109
2016-09-20,0.7191489361702121
2016-09-21,0.45673076923076805
2016-09-22,0.2236024844720459
2016-09-23,0.30399999999999794
2016-09-26,0.020833333333335664
2016-09-27,0.2142857142857132
2016-09-28,0.35294117647057605
2016-09-29,0.46153846153845846
2016-09-30,0.27586206896551735
2016-10-10,0.18823529411764695
2016-10-11,0.06756756756756711
2016-10-12,0.050505050505051004
2016-10-13,0.03649635036496018
2016-10-14,0.03676470588234948
2016-10-17,0.04464285714285319
2016-10-18,0.03603603603604
2016-10-19,0.10526315789474133
2016-10-20,0.1818181818181911
2016-10-21,0.7714285714285829
2016-10-24,0.8999999999999915
2016-10-25,0.8333333333333264
2016-10-26,0.8717948717948667
2016-10-27,0.894736842105248
2016-10-28,0.3013698630136917
2016-10-31,0.3289473684210614
2016-11-01,0.28409090909091733
2016-11-02,0.05970149253733244
2016-11-03,0.36559139784946515
2016-11-04,0.8139534883720952
2016-11-07,0.8399999999999989
2016-11-08,1.0
2016-11-09,1.0
2016-11-10,1.0
2016-11-11,1.0
2016-11-14,1.0
2016-11-15,0.9672634403411868
2016-11-16,0.701374061702587
2016-11-17,0.6089003058443798
2016-11-18,0.5326420749141084
2016-11-21,0.0
2016-11-22,0.009703552276781324
2016-11-23,0.01226826530231448
2016-11-24,0.12977099236641246
2016-11-25,0.1374663072776282
2016-11-28,0.7253521126760573
2016-11-29,0.6125000000000015
2016-11-30,0.7677419354838718
2016-12-01,0.7073170731707328
2016-12-02,0.6904761904761911
2016-12-05,0.3977272727272707
2016-12-06,0.48611111111109895
2016-12-07,0.18181818181817774
2016-12-08,0.27586206896551724
2016-12-09,0.41249999999999903
2016-12-12,0.2750000000000037
2016-12-13,0.4029850746268731
2016-12-14,0.6560509554140156
2016-12-15,0.5448275862068971
2016-12-16,0.4929577464788725
2016-12-19,0.6930693069306888
2016-12-20,0.76335877862595
2016-12-21,0.7416666666666647
2016-12-22,0.6793893129770983
2016-12-23,0.7410071942446036
2016-12-26,0.8580246913580243
2016-12-27,0.5534591194968551
2016-12-28,0.2617801047120414
2016-12-29,0.2923976608187129
2016-12-30,0.23417721518987494
2017-01-03,0.006578947368423384
2017-01-04,0.11206896551724568
2017-01-05,0.2978723404255375
2017-01-06,0.40000000000001246
2017-01-09,0.24050632911393058
2017-01-10,0.3584905660377446
2017-01-11,0.10769230769231351
2017-01-12,0.1212121212121321
2017-01-13,0.025000000000002482
2017-01-16,0.4074074074074036
2017-01-17,0.49425287356321046
2017-01-18,0.6417910447761076
2017-01-19,0.7176470588235189
2017-01-20,0.6559139784946197
2017-01-23,0.3448275862068908
2017-01-24,0.20833333333333315
2017-01-25,0.4098360655737766
2017-01-26,0.2702702702702774
2017-02-03,0.38372093023256204
2017-02-06,0.6818181818181855
2017-02-07,0.8815789473684199
2017-02-08,0.40659340659340343
2017-02-09,0.3699999999999983
2017-02-10,0.4473684210526301
2017-02-13,0.4473684210526301
2017-02-14,0.4324324324324305
2017-02-15,0.7931034482758619
2017-02-16,1.0
2017-02-17,0.8111111111111198
2017-02-20,0.3770491803278712
2017-02-21,0.3613445378151308
2017-02-22,0.17460317460317773
2017-02-23,0.008130081300815993
2017-02-24,0.17968750000000053
2017-02-27,0.37837837837838045
2017-02-28,0.3866666666666633
2017-03-01,0.7096774193548432
2017-03-02,0.7213114754098449
2017-03-03,0.8712121212121253
2017-03-06,0.870229007633591
2017-03-07,0.7999999999999978
2017-03-08,0.7132352941176383
2017-03-09,0.8580645161290205
2017-03-10,0.2962962962962854
2017-03-13,0.326241134751768
2017-03-14,0.35877862595420223
2017-03-15,0.35877862595420656
2017-03-16,0.4782608695652274
2017-03-17,0.5923076923077033
2017-03-20,0.43225806451613663
2017-03-21,0.4258064516129046
2017-03-22,0.506329113924048
2017-03-23,0.06796116504854077
2017-03-24,0.1379310344827551
2017-03-27,0.2944785276073583
2017-03-28,0.2962962962962933
2017-03-29,0.2222222222222222
2017-03-30,0.8863636363636409
2017-03-31,0.6744186046511617
2017-04-05,0.1136363636363591
2017-04-06,0.10416666666666148
2017-04-07,0.5999999999999934
2017-04-10,0.8797468354430366
2017-04-11,0.9067524115755619
2017-04-12,0.988668555240792
2017-04-13,1.0
2017-04-14,0.8707124010554096
2017-04-17,0.3365695792880266
2017-04-18,0.33441558441558533
2017-04-19,0.13584905660377447
2017-04-20,0.011718750000000222
2017-04-21,0.0422535211267613
2017-04-24,0.08333333333333456
2017-04-25,0.05504587155963364
2017-04-26,0.05172413793103511
2017-04-27,0.06250000000000136
2017-04-28,0.0
2017-05-02,0.0
2017-05-03,0.0
2017-05-04,0.7167630057803551
2017-05-05,0.7877358490566094
2017-05-08,0.8975609756097608
2017-05-09,0.9207920792079247
2017-05-10,1.0
2017-05-11,0.3886823696804451
2017-05-12,0.197798586714042
2017-05-15,0.18333643841800834
2017-05-16,0.1832053697117193
2017-05-17,0.0922990132756298
2017-05-18,0.5259578298303527
2017-05-19,0.9019443889776269
2017-05-22,0.5895236656662249
2017-05-23,0.45622158331104756
2017-05-24,0.7272727272727363
2017-05-25,0.6250000000000115
2017-05-26,0.3977272727272788
2017-05-31,0.4605263157894787
2017-06-01,0.5844155844155822
2017-06-02,0.12820512820512217
2017-06-05,0.285714285714285
2017-06-06,0.5384615384615373
2017-06-07,0.4615384615384591
2017-06-08,0.344086021505377
2017-06-09,0.7368421052631544
2017-06-12,0.5094339622641463
2017-06-13,0.4042553191489329
2017-06-14,0.5473684210526317
2017-06-15,0.780141843971633
2017-06-16,0.5179856115107964
2017-06-19,0.5853658536585443
2017-06-20,0.5581395348837267
2017-06-21,0.45312500000000333
2017-06-22,0.0
2017-06-23,0.0
2017-06-26,0.0
2017-06-27,0.0
2017-06-28,0.3220338983050871
2017-06-29,0.22891566265060276
2017-06-30,0.319444444444441
2017-07-03,0.36363636363635404
2017-07-04,0.6594202898550694
2017-07-05,0.6178861788617838
2017-07-06,1.0
2017-07-07,1.0
2017-07-10,1.0
2017-07-11,1.0
2017-07-12,1.0
2017-07-13,0.9644268774703557
2017-07-14,0.9613733905579399
2017-07-17,0.30373831775701
2017-07-18,0.1984732824427496
2017-07-19,0.038327526132404546
2017-07-20,0.06315789473684214
2017-07-21,0.02389078498293482
2017-07-24,0.04294478527607311
2017-07-25,0.06086956521739073
2017-07-26,0.5116279069767481
2017-07-27,0.621621621621625
2017-07-28,0.6448598130841171
2017-07-31,0.6106194690265514
2017-08-01,0.6634615384615383
2017-08-02,0.31999999999999934
2017-08-03,0.0
2017-08-04,0.0
2017-08-07,0.4264705882352933
2017-08-08,0.4714285714285715
2017-08-09,0.7132867132867127
2017-08-10,0.9470198675496688
2017-08-11,1.0
2017-08-14,1.0
2017-08-15,1.0
2017-08-16,0.7727272727272751
2017-08-17,0.7682119205298042
2017-08-18,0.6212121212121251
2017-08-21,0.6453900709219909
2017-08-22,0.378787878787883
2017-08-23,0.5648148148148165
2017-08-24,0.14197530864197475
2017-08-25,0.13772455089820276
2017-08-28,0.07692307692307512
2017-08-29,0.20567375886524333
2017-08-30,0.23809523809523547
2017-08-31,0.6428571428571347
2017-09-01,1.0
2017-09-04,0.6176470588235229
2017-09-05,0.28735632183907533
2017-09-06,0.08421052631578434
2017-09-07,0.1714285714285729
2017-09-08,0.10576923076923288
2017-09-11,0.12222222222222523
2017-09-12,0.3384615384615473
2017-09-13,0.3928571428571465
2017-09-14,0.18965517241379437
2017-09-15,0.19642857142857137
2017-09-18,0.1392405063291128
2017-09-19,0.31313131313131043
2017-09-20,0.38095238095237877
2017-09-21,0.6854838709677386
2017-09-22,0.7154471544715441
2017-09-25,0.9565217391304384
2017-09-26,0.9480519480519521
2017-09-27,0.953488372093027
2017-09-28,0.38157894736842846
2017-09-29,0.33766233766233567
2017-10-09,0.5299999999999964
2017-10-10,0.2587412587412583
2017-10-11,0.19708029197080199
2017-10-12,0.3020833333333318
2017-10-13,0.37623762376238024
2017-10-16,0.1250000000000068
2017-10-17,0.6785714285714323
2017-10-18,0.6440677966101774
2017-10-19,0.48648648648648946
2017-10-20,0.4492753623188375
2017-10-23,0.6712328767123218
2017-10-24,0.3548387096774061
2017-10-25,0.39285714285712703
2017-10-26,0.5749999999999905
2017-10-27,0.734374999999995
2017-10-30,0.5686274509803951
2017-10-31,0.6444444444444514
2017-11-01,0.7457627118644133
2017-11-02,0.8170731707317096
2017-11-03,0.41489361702127747
2017-11-06,0.4736842105263143
2017-11-07,0.6491228070175429
2017-11-08,0.5619047619047605
2017-11-09,0.3333333333333333
2017-11-10,0.5714285714285758
2017-11-13,0.4358974358974423
2017-11-14,0.06944444444444911
2017-11-15,0.11594202898550071
2017-11-16,0.2291666666666537
2017-11-17,0.10169491525421932
2017-11-20,0.3499999999999864
2017-11-21,0.6862745098039162
2017-11-22,0.5292634372926384
2017-11-23,0.440101223433613
2017-11-24,0.6293751084186325
2017-11-27,0.29242567451452944
2017-11-28,0.09282797409752568
2017-11-29,0.5447095177291927
2017-11-30,0.7493795864699502
2017-12-01,0.7646658064803175
2017-12-04,0.9287721626953751
2017-12-05,0.9635416666666676
2017-12-06,0.8216560509554143
2017-12-07,0.5304347826086951
2017-12-08,0.3981481481481472
2017-12-11,0.0
2017-12-12,0.03797468354430357
2017-12-13,0.03658536585365834
2017-12-14,0.39772727272727393
2017-12-15,0.49397590361445787
2017-12-18,0.4606741573033685
2017-12-19,0.46067415730337163
2017-12-20,0.5540540540540523
2017-12-21,0.0789473684210552
2017-12-22,0.0265486725663756
2017-12-25,0.28333333333333
2017-12-26,0.24409448818896887
2017-12-27,0.25619834710743095
2017-12-28,0.7313432835820738
2017-12-29,0.7999999999999897
2018-01-02,0.30000000000000404
2018-01-03,0.4800000000000081
2018-01-04,0.6435643564356479
2018-01-05,0.5662650602409688
2018-01-08,0.5609756097560997
2018-01-09,0.9583333333333344
2018-01-10,0.7750000000000028
2018-01-11,0.06060606060605947
2018-01-12,0.43636363636363745
2018-01-15,0.6395348837209308
2018-01-16,0.6847826086956519
2018-01-17,0.7555555555555555
2018-01-18,1.0
2018-01-19,0.6888888888888861
2018-01-22,0.26851851851851904
2018-01-23,0.19626168224299378
2018-01-24,0.22522522522522326
2018-01-25,0.29508196721311125
2018-01-26,0.4727272727272709
2018-01-29,0.8906250000000029
2018-01-30,1.0
2018-01-31,0.904761904761907
2018-02-01,0.4711538461538496
2018-02-02,0.3000000000000026
2018-02-05,0.5904255319148943
2018-02-06,0.5860215053763462
2018-02-07,0.6250000000000011
2018-02-08,0.8764044943820228
2018-02-09,1.0
2018-02-12,0.6103896103896108
2018-02-13,0.4223602484472036
2018-02-14,0.3974358974358968
2018-02-22,0.14383561643835546
2018-02-23,0.0
2018-02-26,0.06976744186046882
2018-02-27,0.08823529411765227
2018-02-28,0.2469135802469188
2018-03-01,0.4000000000000155
2018-03-02,0.7058823529411925
2018-03-05,0.4687500000000103
2018-03-06,0.5769230769230766
2018-03-07,0.32000000000000856
2018-03-08,0.3333333333333261
2018-03-09,0.0212765957446678
2018-03-12,0.5090909090908936
2018-03-13,0.4827586206896462
2018-03-14,0.5090909090908986
2018-03-15,0.37500000000000094
2018-03-16,0.3913043478260937
2018-03-19,0.0
2018-03-20,0.09302325581395256
2018-03-21,0.11764705882354379
2018-03-22,0.8208955223880642
2018-03-23,0.9552238805970164
2018-03-26,0.727272727272725
2018-03-27,0.7209302325581374
2018-03-28,0.7419354838709635
2018-03-29,0.33962264150943033
2018-03-30,0.18749999999999153
2018-04-02,0.3214285714285589
2018-04-03,0.25925925925924853
2018-04-04,0.0
2018-04-09,0.0
2018-04-10,0.0
2018-04-11,0.0
2018-04-12,0.20987654320987362
2018-04-13,0.23076923076923447
2018-04-16,0.6610169491525488
2018-04-17,0.8000000000000044
2018-04-18,1.0
2018-04-19,1.0
2018-04-20,0.9130434782608644
2018-04-23,0.8571428571428505
2018-04-24,0.8703703703703654
2018-04-25,0.5000000000000061
2018-04-26,0.1034482758620755
2018-04-27,0.16363636363637865
2018-05-02,0.18181818181819645
2018-05-03,0.31818181818182123
2018-05-04,0.36533876207872396
2018-05-07,0.7224274842836662
2018-05-08,0.3970369846545388
2018-05-09,0.4229786658094541
2018-05-10,0.05439456628321418
2018-05-11,0.05703710019611026
2018-05-14,0.07618772167506023
2018-05-15,0.5232319640603755
2018-05-16,0.4044197913698555
2018-05-17,0.6949152542372808
2018-05-18,0.7454545454545389
2018-05-21,0.7910447761193968
2018-05-22,0.380952380952375
2018-05-23,0.48979591836734365
2018-05-24,0.28888888888888287
2018-05-25,0.28888888888888287
2018-05-28,0.08571428571429597
2018-05-29,0.4166666666666895
2018-05-30,0.35714285714287713
2018-05-31,0.833333333333342
2018-06-01,0.8947368421052686
2018-06-04,0.46666666666667644
2018-06-05,0.6000000000000058
2018-06-06,0.6818181818181859
2018-06-07,0.5555555555555584
2018-06-08,0.672131147540982
2018-06-11,0.9325842696629206
2018-06-12,0.8658536585365869
2018-06-13,0.8441558441558421
2018-06-14,0.9464285714285705
2018-06-15,0.8217821782178193
2018-06-19,0.6029411764705858
2018-06-20,0.6119402985074526
2018-06-21,0.5694444444444416
2018-06-22,0.0
2018-06-25,0.0
2018-06-26,0.0
2018-06-27,0.03738317757009413
2018-06-28,0.07619047619047228
2018-06-29,0.16438356164383097
2018-07-02,0.2222222222222182
2018-07-03,1.0
2018-07-04,1.0
2018-07-05,0.7058823529411884
2018-07-06,0.46511627906977665
2018-07-09,0.4000000000000127
2018-07-10,0.10000000000001331
2018-07-11,0.0
2018-07-12,0.41666666666667185
2018-07-13,0.6250000000000033
2018-07-16,0.7142857142857103
2018-07-17,0.7391304347826054
2018-07-18,0.963636363636363
2018-07-19,0.9047619047619033
2018-07-20,0.9516129032258099
2018-07-23,0.9682539682539675
2018-07-24,0.7866666666666686
2018-07-25,0.27710843373493615
2018-07-26,0.24468085106382667
2018-07-27,0.02298850574712037
2018-07-30,0.0
2018-07-31,0.0
2018-08-01,0.21951219512194586
2018-08-02,0.42424242424242053
2018-08-03,0.6363636363636361
2018-08-06,0.8333333333333427
2018-08-07,0.9000000000000076
2018-08-08,0.7500000000000177
2018-08-09,0.5909090909090932
2018-08-10,0.5909090909090935
2018-08-13,0.11111111111108277
2018-08-14,0.7090909090909046
2018-08-15,0.803030303030297
2018-08-16,0.9363057324840752
2018-08-17,0.9617486338797792
2018-08-20,1.0
2018-08-21,0.8502994011976036
2018-08-22,0.7529411764705891
2018-08-23,0.2518518518518524
2018-08-24,0.0378787878787865
2018-08-27,0.0
2018-08-28,0.0
2018-08-29,0.20338983050847087
2018-08-30,0.2857142857142858
2018-08-31,0.5526315789473824
2018-09-03,0.690721649484546
2018-09-04,0.789915966386559
2018-09-05,0.6306306306306362
2018-09-06,0.7446808510638251
2018-09-07,0.6117647058823431
2018-09-10,0.374999999999991
2018-09-11,0.0
2018-09-12,0.19230769230768285
2018-09-13,0.3124999999999939
2018-09-14,0.3378378378378341
2018-09-17,0.3571428571428537
2018-09-18,0.7027027027027034
2018-09-19,0.2682926829268417
2018-09-20,0.4642857142857236
2018-09-21,0.6538461538461573
2018-09-25,0.7083333333333439
2018-09-26,0.7900000000000071
2018-09-27,0.9772727272727331
2018-09-28,0.6777777777777771
2018-10-08,0.4675324675324683
2018-10-09,0.46153846153846034
2018-10-10,0.09859154929577339
2018-10-11,0.0
2018-10-12,0.15094339622641909
2018-10-15,0.15094339622641742
2018-10-16,0.2881355932203383
2018-10-17,0.6296296296296258
2018-10-18,0.8461538461538427
2018-10-19,0.8169014084506966
2018-10-22,0.8405797101449269
2018-10-23,0.720588235294121
2018-10-24,0.44444444444444275
2018-10-25,0.0
2018-10-26,0.0
2018-10-29,0.2580645161290324
2018-10-30,0.5869565217391275
2018-10-31,0.7875000000000016
2018-11-01,0.8289473684210561
2018-11-02,0.8481012658227858
2018-11-05,0.8144949983865769
2018-11-06,0.21966609920458144
2018-11-07,0.13896377673572344
2018-11-08,0.18629164083196767
2018-11-09,0.18052701490672363
2018-11-12,0.21688184875773306
2018-11-13,1.0
2018-11-14,1.0
2018-11-15,1.0
2018-11-16,0.9000000000000096
2018-11-19,0.7187500000000053
2018-11-20,0.5675675675675673
2018-11-21,0.6734693877550914
2018-11-22,0.3199999999999867
2018-11-23,0.262295081967203
2018-11-26,0.23188405797100567
2018-11-27,0.36986301369862734
2018-11-28,0.1428571428571471
2018-11-29,0.4146341463414654
2018-11-30,0.46575342465753367
2018-12-03,0.6951219512195137
2018-12-04,0.6666666666666642
2018-12-05,0.877192982456151
2018-12-06,0.4090909090909122
2018-12-07,0.476923076923082
2018-12-10,0.29166666666665925
2018-12-11,0.19230769230769315
2018-12-12,0.19607843137254388
2018-12-13,0.6399999999999884
2018-12-14,0.5714285714285562
2018-12-17,0.13636363636362986
2018-12-18,0.14999999999999064
2018-12-19,0.1304347826086902
2018-12-20,0.42857142857143554
2018-12-21,0.42857142857143554
2018-12-24,0.7441860465116374
2018-12-25,0.8000000000000055
2018-12-26,0.9772727272727249
2018-12-27,0.9583333333333287
2018-12-28,0.983333333333331
2019-01-02,0.9850746268656695
2019-01-03,1.0
2019-01-04,1.0
2019-01-07,0.8972602739726027
2019-01-08,0.8800000000000001
2019-01-09,0.8559322033898282
2019-01-10,0.504950495049503
2019-01-11,0.16853932584270137
2019-01-14,0.17045454545454944
2019-01-15,0.0
2019-01-16,0.09420289855072497
2019-01-17,0.11504424778760987
2019-01-18,0.12999999999999903
2019-01-21,0.3047619047619009
2019-01-22,0.6607142857142815
2019-01-23,0.3582089552238783
2019-01-24,0.41666666666667473
2019-01-25,0.4098360655737774
2019-01-28,0.5555555555555627
2019-01-29,0.6170212765957506
2019-01-30,0.8620689655172429
2019-01-31,0.8775510204081629
2019-02-01,1.0
2019-02-11,0.463768115942028
2019-02-12,0.330935251798558
2019-02-13,0.2320000000000007
2019-02-14,0.20661157024794216
2019-02-15,0.07272727272727701
2019-02-18,0.5820895522388072
2019-02-19,0.8363636363636386
2019-02-20,0.9090909090908988
2019-02-21,0.9047619047618927
2019-02-22,0.9827586206896631
2019-02-25,0.5652173913043452
2019-02-26,0.5348837209302247
2019-02-27,0.16981132075470998
2019-02-28,0.08163265306122422
2019-03-01,0.2786885245901561
2019-03-04,0.7422680412371123
2019-03-05,0.7234042553191466
2019-03-06,0.9756097560975572
2019-03-07,0.7407407407407434
2019-03-08,0.6979166666666693
2019-03-11,0.14999999999999497
2019-03-12,0.18292682926829298
2019-03-13,0.035714285714291194
2019-03-14,0.25000000000000405
2019-03-15,0.3291139240506421
2019-03-18,0.481481481481495
2019-03-19,0.3239436619718351
2019-03-20,0.476923076923083
2019-03-21,0.5526315789473748
2019-03-22,0.35789473684210843
2019-03-25,0.36170212765957366
2019-03-26,0.5294117647058822
2019-03-27,0.47435897435897134
2019-03-28,0.13924050632911555
2019-03-29,0.5119047619047599
2019-04-01,0.6315789473684219
2019-04-02,0.5285714285714281
2019-04-03,0.6321839080459747
2019-04-04,0.7333333333333294
2019-04-08,0.280487804878044
2019-04-09,0.2435897435897333
2019-04-10,0.34146341463413804
2019-04-11,0.1162790697674381
2019-04-12,0.2823529411764701
2019-04-15,0.6811594202898599
2019-04-16,0.7027027027027101
2019-04-17,0.6231884057971095
2019-04-18,0.921568627450982
2019-04-19,0.5593220338983078
2019-04-22,0.21276595744680984
2019-04-23,0.09302325581395249
2019-04-24,0.3636363636363608
2019-04-25,0.3965517241379266
2019-04-26,0.6976744186046508
2019-04-29,0.7692307692307679
2019-04-30,0.6666666666666539
2019-05-06,0.2799999999999977
2019-05-07,0.14583333333333712
2019-05-08,0.0
2019-05-09,0.34403869935259046
2019-05-10,0.48015671789179065
2019-05-13,0.7286025546528917
2019-05-14,0.8943097206093339
2019-05-15,0.936788100286628
2019-05-16,0.5128296290751979
2019-05-17,0.6215851859388513
2019-05-20,0.654251691758904
2019-05-21,0.43455104131102457
2019-05-22,0.27472527472527003
2019-05-23,0.3939393939393831
2019-05-24,0.027397260273965045
2019-05-27,0.01388888888888083
2019-05-28,0.05882352941174307
2019-05-29,0.2954545454545267
2019-05-30,0.4464285714285714
2019-05-31,0.9999999999999806
2019-06-03,1.0
2019-06-04,1.0
2019-06-05,1.0
2019-06-06,1.0
2019-06-10,1.0
2019-06-11,1.0
2019-06-12,1.0
2019-06-13,0.9263157894736792
2019-06-14,0.8225806451612859
2019-06-17,0.8307692307692249
2019-06-18,0.6455696202531597
2019-06-19,0.33898305084745095
2019-06-20,0.7117117117117063
2019-06-21,0.6638655462184825
2019-06-24,0.5221238938053047
2019-06-25,0.7016129032258005
2019-06-26,0.8074074074074058
2019-06-27,0.40322580645161193
2019-06-28,0.413223140495869
2019-07-01,0.5289256198347134
2019-07-02,0.3050847457627163
2019-07-03,0.43835616438356456
2019-07-04,0.5871559633027565
2019-07-05,0.5203252032520327
2019-07-08,0.39370078740157377
2019-07-09,0.4807692307692252
2019-07-10,0.0
2019-07-11,0.029197080291970767
2019-07-12,0.11999999999999998
2019-07-15,0.1351351351351359
2019-07-16,0.27131782945737004
2019-07-17,0.9555555555555622
2019-07-18,0.977900552486191
2019-07-19,0.9839357429718897
2019-07-22,1.0
2019-07-23,1.0
2019-07-24,0.9357798165137607
2019-07-25,0.7201365187713297
2019-07-26,0.4907063197026011
2019-07-29,0.08208955223880658
2019-07-30,0.0
2019-07-31,0.0
2019-08-01,0.1567164179104485
2019-08-02,0.34732824427480985
2019-08-05,0.7987012987012964
2019-08-06,0.9209726443768995
2019-08-07,1.0
2019-08-08,0.9097938144329892
2019-08-09,0.8539325842696621
2019-08-12,0.4421364985163211
2019-08-13,0.428571428571428
2019-08-14,0.451895043731778
2019-08-15,0.5292307692307695
2019-08-16,0.5000000000000009
2019-08-19,0.8309859154929591
2019-08-20,0.4904214559386995
2019-08-21,0.06686930091185483
2019-08-22,0.013513513513513618
2019-08-23,0.01470588235294125
2019-08-26,0.3006263048016695
2019-08-27,0.4399999999999983
2019-08-28,0.7823129251700652
2019-08-29,0.9814814814814796
2019-08-30,1.0
2019-09-02,0.6633416458852873
2019-09-03,0.605978260869566
2019-09-04,0.6643518518518523
2019-09-05,0.512886597938146
2019-09-06,0.5000000000000016
2019-09-09,0.8810572687224683
2019-09-10,0.9114688128772651
2019-09-11,0.6920000000000006
2019-09-12,0.7424892703862644
2019-09-16,0.5106382978723394
2019-09-17,0.10018903591682492
2019-09-18,0.0
2019-09-19,0.060869565217391744
2019-09-20,0.05919661733615279
2019-09-23,0.26760563380281815
2019-09-24,0.5972850678733053
2019-09-25,0.883248730964469
2019-09-26,0.8940092165898633
2019-09-27,1.0
2019-09-30,0.757861635220125
2019-10-08,0.7147435897435883
2019-10-09,0.6534296028880864
2019-10-10,0.40303030303030213
2019-10-11,0.0
2019-10-14,0.0
2019-10-15,0.0
2019-10-16,0.019762845849797962
2019-10-17,0.029585798816561537
2019-10-18,0.053191489361690505
2019-10-21,0.22077922077921058
2019-10-22,0.6052631578947287
2019-10-23,0.37647058823529117
2019-10-24,0.36781609195402126
2019-10-25,0.6203703703703717
2019-10-28,0.6720000000000016
2019-10-29,0.49572649572649946
2019-10-30,0.707692307692312
2019-10-31,0.8277511961722507
2019-11-01,0.4835680751173721
2019-11-04,0.23265306122448845
2019-11-05,0.26511627906976537
2019-11-06,0.39694656488549473
2019-11-07,0.2948717948717956
2019-11-08,0.6807017543859629
2019-11-11,0.9411764705882375
2019-11-12,0.9686098654708545
2019-11-13,0.7461928934010166
2019-11-14,0.737536057721368
2019-11-15,0.1280848025207386
2019-11-18,0.04348703117182174
2019-11-19,0.14707727095935214
2019-11-20,0.1608029227839972
2019-11-21,0.15860937954627327
2019-11-22,0.22712318686352595
2019-11-25,0.45420408246866195
2019-11-26,0.20171261901781293
2019-11-27,0.23448275862069165
2019-11-28,0.23448275862069165
2019-11-29,0.30909090909091247
2019-12-02,0.0
2019-12-03,0.0
2019-12-04,0.42857142857142533
2019-12-05,0.6712328767123261
2019-12-06,0.7409638554216849
2019-12-09,0.8995433789954332
2019-12-10,1.0
2019-12-11,0.6681034482758629
2019-12-12,0.5340314136125688
2019-12-13,0.6147186147186169
2019-12-16,0.3269230769230768
2019-12-17,0.3301435406698565
2019-12-18,0.5531914893617026
2019-12-19,0.49367088607594756
2019-12-20,0.07738095238095262
2019-12-23,0.11016949152542366
2019-12-24,0.39655172413793094
2019-12-25,0.4067796610169492
2019-12-26,0.6158233645119202
2019-12-27,0.9932408819172288
2019-12-30,0.8422325927810254
2019-12-31,0.7516534156085568
2020-01-02,0.8997394658530985
2020-01-03,0.8830226364226634
2020-01-06,0.8983487305025847
2020-01-07,0.9965460809760152
2020-01-08,1.0
2020-01-09,0.7975830815709951
2020-01-10,0.6836461126005341
2020-01-13,0.5203252032520314
2020-01-14,0.32996632996632985
2020-01-15,0.0
2020-01-16,0.0
2020-01-17,0.0
2020-01-20,0.0
2020-01-21,0.0
2020-01-22,0.14691943127962337
2020-01-23,0.2230215827338145
2020-02-03,0.3082191780821931
2020-02-04,0.30000000000000315
2020-02-05,0.45000000000000384
2020-02-06,0.1044776119402995
2020-02-07,0.16822429906542472
2020-02-10,0.033333333333335755
2020-02-11,0.033613445378153604
2020-02-12,0.09090909090909113
2020-02-13,0.3661971830985877
2020-02-14,0.27499999999999447
2020-02-17,0.5230769230769239
2020-02-18,0.7936507936507922
2020-02-19,0.651515151515151
2020-02-20,0.6714285714285726
2020-02-21,0.8823529411764707
2020-02-24,0.8924731182795702
2020-02-25,0.9248120300751889
2020-02-26,1.0
2020-02-27,1.0
2020-02-28,1.0
2020-03-02,1.0
2020-03-03,0.9080882352941146
2020-03-04,0.8683274021352295
2020-03-05,0.5876623376623373
2020-03-06,0.01941747572815193
2020-03-09,0.3553191489361701
2020-03-10,0.4208333333333348
2020-03-11,0.4297872340425545
2020-03-12,0.6314699792960661
2020-03-13,0.9939393939393942
2020-03-16,0.43869209809264464
2020-03-17,0.29234338747099803
2020-03-18,0.4721254355400707
2020-03-19,0.3551797040169158
2020-03-20,0.43933823529411914
2020-03-23,0.7512315270935982
2020-03-24,0.9950495049504969
2020-03-25,0.742774566473989
2020-03-26,0.6222760290556884
2020-03-27,0.3927710843373487
2020-03-30,0.39999999999999913
2020-03-31,0.1939890710382497
2020-04-01,0.21068249258160116
2020-04-02,0.39570552147239124
2020-04-03,0.5159999999999976
2020-04-07,0.23107569721115473
2020-04-08,0.3421052631578984
2020-04-09,0.44827586206896636
2020-04-10,0.11299435028249
2020-04-13,0.38565022421524997
2020-04-14,0.6012269938650286
2020-04-15,0.6766169154228817
2020-04-16,0.772388059701493
2020-04-17,1.0
2020-04-20,0.8906249999999991
2020-04-21,0.7605633802816919
2020-04-22,0.6171875000000023
2020-04-23,0.5148514851485168
2020-04-24,0.08629441624365611
2020-04-27,0.09042553191489508
2020-04-28,0.28021978021978056
2020-04-29,0.24519230769230896
2020-04-30,0.13599999999999954
2020-05-06,0.3649289099526063
2020-05-07,0.33333333333333426
2020-05-08,0.32456140350877444
2020-05-11,0.7930721018927736
2020-05-12,0.9003251183291202
2020-05-13,0.7831096289400349
2020-05-14,0.8784276118502801
2020-05-15,0.893500795393968
2020-05-18,0.43797617718814025
2020-05-19,0.531102705612591
2020-05-20,0.6959599811163156
2020-05-21,0.6968633987148969
2020-05-22,0.5035629453681708
2020-05-25,0.5183374083129587
2020-05-26,0.45580110497237675
2020-05-27,0.22923588039867185
2020-05-28,0.1532846715328485
2020-05-29,0.1538461538461558
2020-06-01,0.4527363184079623
2020-06-02,0.30120481927710885
2020-06-03,0.43032786885246055
2020-06-04,0.2573289902280144
2020-06-05,0.31983805668016285
2020-06-08,0.1351351351351362
2020-06-09,0.18072289156626603
2020-06-10,0.0
2020-06-11,0.22613065326633044
2020-06-12,0.5223367697594492
2020-06-15,0.6241830065359465
2020-06-16,0.6852941176470593
2020-06-17,1.0
2020-06-18,0.7398648648648662
2020-06-19,0.40143369175627375
2020-06-22,0.24914675767918248
2020-06-23,0.110714285714286
2020-06-24,0.0
2020-06-29,0.02912621359223226
2020-06-30,0.04225352112675955
2020-07-01,0.25225225225225323
2020-07-02,0.4653465346534645
2020-07-03,0.7796610169491521
2020-07-06,0.7166666666666667
2020-07-07,0.9304347826086963
2020-07-08,0.582191780821917
2020-07-09,0.4852941176470579
2020-07-10,0.4573643410852723
2020-07-13,0.6945812807881766
2020-07-14,0.7047619047619025
2020-07-15,0.8505747126436756
2020-07-16,0.7400000000000003
2020-07-17,0.6043956043956055
2020-07-20,0.16666666666666424
2020-07-21,0.42148760330578466
2020-07-22,0.6215384615384622
2020-07-23,0.8271119842829074
2020-07-24,0.8733705772811908
2020-07-27,1.0
2020-07-28,1.0
2020-07-29,1.0
2020-07-30,0.9891808346213307
2020-07-31,0.9906666666666679
2020-08-03,0.5383435582822086
2020-08-04,0.2811671087533152
2020-08-05,0.4165769644779333
2020-08-06,0.4681908548707749
2020-08-07,0.38717067583046966
2020-08-10,0.666204986149585
2020-08-11,1.0
2020-08-12,0.7090012330456232
2020-08-13,0.5617848970251716
2020-08-14,0.5805038335158814
2020-08-17,0.5323565323565316
2020-08-18,0.14804469273742982
2020-08-19,0.38587848932676505
2020-08-20,0.6065857885615266
2020-08-21,0.38401048492791706
2020-08-24,0.28078250863061105
2020-08-25,0.35935198821796854
2020-08-26,0.14232673267326848
2020-08-27,0.0
2020-08-28,0.22052067381317045
2020-08-31,0.3085937500000011
2020-09-01,0.3697813121272355
2020-09-02,0.8269794721407598
2020-09-03,1.0
2020-09-04,0.8596491228070138
2020-09-07,0.8612716763005739
2020-09-08,0.510548523206751
2020-09-09,0.4553990610328657
2020-09-10,0.2521489971346707
2020-09-11,0.2352941176470597
2020-09-14,0.1531914893617027
2020-09-15,0.1846153846153851
2020-09-16,0.0
2020-09-17,0.1592689295039176
2020-09-18,0.18100890207715212
2020-09-21,0.34920634920635346
2020-09-22,0.7508196721311483
2020-09-23,0.9961038961038955
2020-09-24,0.9965947786606124
2020-09-25,1.0
2020-09-28,1.0
2020-09-29,0.6510590858416939
2020-09-30,0.30153508771929755
2020-10-09,0.10038986354775802
2020-10-12,0.06578947368420998
2020-10-13,0.026859504132231468
2020-10-14,0.13480055020632686
2020-10-15,0.320712694877506
2020-10-16,0.9344827586206864
2020-10-19,0.6515957446808502
2020-10-20,0.6218274111675138
2020-10-21,0.4168674698795192
2020-10-22,0.3648293963254574
2020-10-23,0.03380281690140591
2020-10-26,0.06477732793521575
2020-10-27,0.07339449541283645
2020-10-28,0.10062893081760027
2020-10-29,0.026845637583886885
2020-10-30,0.7485714285714261
2020-11-02,0.6318407960199004
2020-11-03,0.5962441314553966
2020-11-04,0.8395061728395045
2020-11-05,0.7411444141689391
2020-11-06,0.5141843971631226
2020-11-09,0.5017301038062291
2020-11-10,0.6868686868686877
2020-11-11,0.29812206572769967
2020-11-12,0.39810426540284316
2020-11-13,0.3307086614173227
2020-11-16,0.4058823529411772
2020-11-17,0.16771488469601822
2020-11-18,0.3470588235294144
2020-11-19,0.30841121495327295
2020-11-20,0.6178861788617909
2020-11-23,0.3951048951048958
2020-11-24,0.705223880597015
2020-11-25,0.6775510204081624
2020-11-26,0.4519808789158298
2020-11-27,0.28702666165784574
2020-11-30,0.6664018690939055
2020-12-01,0.6027516788894819
2020-12-02,0.6120875075922158
2020-12-03,0.8298260682117522
2020-12-04,1.0
2020-12-07,0.39482118824886886
2020-12-08,0.491377525222125
2020-12-09,0.4821428571428574
2020-12-10,0.537234042553191
2020-12-11,0.4321766561514217
2020-12-14,0.8562500000000065
2020-12-15,0.2996108949416335
2020-12-16,0.2682926829268313
2020-12-17,0.1964285714285694
2020-12-18,0.18181818181817855
2020-12-21,0.6732851985559536
2020-12-22,0.9575221238938038
2020-12-23,0.9610389610389597
2020-12-24,0.8879999999999992
2020-12-25,0.9255663430420717
2020-12-28,0.548532731376979
2020-12-29,0.20491803278688986
2020-12-30,0.04106280193236968
2020-12-31,0.042288557213932806
2021-01-04,0.0
2021-01-05,0.0
2021-01-06,0.0
2021-01-07,0.23279292349320127
2021-01-08,0.24440702345854495
2021-01-11,0.6755048445481822
2021-01-12,0.8094855631659615
2021-01-13,0.964617050124417
2021-01-14,0.8152581791469291
2021-01-15,0.8601114045291556
2021-01-18,0.2520542871887397
2021-01-19,0.14406779661016786
2021-01-20,0.11558669001751513
2021-01-21,0.2888513513513547
2021-01-22,0.20292504570384212
2021-01-25,0.458677685950414
2021-01-26,0.8456375838926109
2021-01-27,0.7407407407407347
2021-01-28,0.1415094339622606
2021-01-29,0.6846473029045572
2021-02-01,0.8631790744466772
2021-02-02,0.893081761006287
2021-02-03,0.9374999999999982
2021-02-04,1.0
2021-02-05,0.8158940397350993
2021-02-08,0.4718498659517428
2021-02-09,0.25680933852140064
2021-02-10,0.04335664335664409
2021-02-18,0.0
2021-02-19,0.03288490284006065
2021-02-22,0.14223194748359025
2021-02-23,0.4648241206030181
2021-02-24,0.6401384083044995
2021-02-25,0.9935897435897415
2021-02-26,0.9953917050691229
2021-03-01,0.8683035714285687
2021-03-02,0.8264705882352896
2021-03-03,0.7513368983957194
2021-03-04,0.4799999999999981
2021-03-05,0.05357142857142225
2021-03-08,0.40154440154440035
2021-03-09,0.2541436464088425
2021-03-10,0.32369942196531926
2021-03-11,0.4014336917562757
2021-03-12,0.31284916201117524
2021-03-15,0.060790273556229166
2021-03-16,0.07812499999999722
2021-03-17,0.0
2021-03-18,0.15757575757575504
2021-03-19,0.20472440944881537
2021-03-22,0.25365853658536125
2021-03-23,0.3231707317073164
2021-03-24,0.6685082872928149
2021-03-25,0.29741379310345156
2021-03-26,0.5698529411764729
2021-03-29,0.4341736694677912
2021-03-30,0.46701846965699395
2021-03-31,0.3132183908045985
2021-04-01,0.5177304964539022
2021-04-02,0.2352941176470591
2021-04-06,0.5126903553299503
2021-04-07,0.3714285714285725
2021-04-08,0.4333333333333335
2021-04-09,0.25308641975308754
2021-04-12,0.2530864197530856
2021-04-13,0.024193548387090244
2021-04-14,0.18269230769229863
2021-04-15,0.18627450980391458
2021-04-16,0.2888888888888708
2021-04-19,0.94565217391305
2021-04-20,0.6315789473684252
2021-04-21,0.5916666666666685
2021-04-22,0.6615384615384595
2021-04-23,0.5524475524475582
2021-04-26,0.23809523809523117
2021-04-27,0.3333333333333264
2021-04-28,0.5918367346938875
2021-04-29,0.583333333333346
2021-04-30,0.8518518518518536
2021-05-06,0.8795180722891579
2021-05-07,1.0
2021-05-10,1.0
2021-05-11,1.0
2021-05-12,0.833333333333333
2021-05-13,0.8270042194092828
2021-05-14,0.4406779661016919
2021-05-17,0.34437086092715846
2021-05-18,0.6346863468634735
2021-05-19,0.8181818181818187
2021-05-20,0.8170891494786021
2021-05-21,1.0
2021-05-24,1.0
2021-05-25,0.4488384232588702
2021-05-26,0.2377541796469677
2021-05-27,0.1339969484823373
2021-05-28,0.11951534412553408
2021-05-31,0.0
2021-06-01,0.041840764285560925
2021-06-02,0.25190839694656103
2021-06-03,0.25384615384614606
2021-06-04,0.46323529411763575
2021-06-07,0.25609756097560454
2021-06-08,0.22307692307691737
2021-06-09,0.08333333333333173
2021-06-10,0.1003344481605334
2021-06-11,0.07876712328767024
2021-06-15,0.2537313432835862
2021-06-16,0.2500000000000054
2021-06-17,0.8663101604278086
2021-06-18,0.8842105263157924
2021-06-21,0.7591623036649332
2021-06-22,0.6062176165803165
2021-06-23,0.6647727272727344
2021-06-24,0.041095890410970747
2021-06-25,0.0
2021-06-28,0.0
2021-06-29,0.0
2021-06-30,0.0
2021-07-01,0.18367346938775045
2021-07-02,0.4736842105263117
2021-07-05,0.22499999999999964
2021-07-06,0.6402439024390192
2021-07-07,0.8009478672985739
2021-07-08,0.7373271889400856
2021-07-09,0.7373271889400858
2021-07-12,0.9180327868852421
2021-07-13,0.4792899408283974
2021-07-14,0.0977011494252855
2021-07-15,0.09139784946236464
2021-07-16,0.04040404040403856
2021-07-19,0.3379790940766588
2021-07-20,0.44907407407408023
2021-07-21,0.7354497354497437
2021-07-22,0.8527607361963258
2021-07-23,0.9813664596273316
2021-07-26,0.38364779874213395
2021-07-27,0.35057471264367385
2021-07-28,0.23648648648648685
2021-07-29,0.47417840375586884
2021-07-30,0.3660714285714339
2021-08-02,0.5359477124183106
2021-08-03,0.6301369863013799
2021-08-04,0.39583333333333715
2021-08-05,0.07352941176470675
2021-08-06,0.3191489361702102
2021-08-09,0.6619718309859121
2021-08-10,0.7209302325581356
2021-08-11,0.9521531100478435
2021-08-12,0.7056737588652466
2021-08-13,0.6142322097378246
2021-08-16,0.2537313432835799
2021-08-17,0.045454545454546316
2021-08-18,0.0
2021-08-19,0.30584192439862606
2021-08-20,0.3284132841328444
2021-08-23,0.6153846153846173
2021-08-24,0.9189189189189175
2021-08-25,0.9999999999999953
2021-08-26,0.40517241379311136
2021-08-27,0.4732824427480951
2021-08-30,0.5399999999999974
2021-08-31,0.5687499999999941
2021-09-01,0.6079545454545425
2021-09-02,0.8045112781954824
2021-09-03,0.5897435897435789
2021-09-06,0.16149068322980908
2021-09-07,0.16149068322982232
2021-09-08,0.06451612903226937
2021-09-09,0.35326086956522273
2021-09-10,0.4873417721519103
2021-09-13,0.8876404494382102
2021-09-14,0.9065420560747703
2021-09-15,1.0
2021-09-16,0.8103448275862212
2021-09-17,0.8735632183908145
2021-09-22,0.8720930232558259
2021-09-23,0.8921568627451092
2021-09-24,0.7747747747747872
2021-09-27,0.9078947368421073
2021-09-28,0.8939393939393957
2021-09-29,0.8602941176470597
2021-09-30,0.7448979591836737
2021-10-08,0.8952380952380947
2021-10-11,0.5454545454545446
2021-10-12,0.20588235294117826
2021-10-13,0.16800000000000148
2021-10-14,0.1567164179104489
2021-10-15,0.008771929824560102
2021-10-18,0.007518796992480065
2021-10-19,0.3008130081300782
2021-10-20,0.5944055944055944
2021-10-21,0.5629139072847692
2021-10-22,0.5629139072847729
2021-10-25,0.8685714285714302
2021-10-26,0.6170212765957463
2021-10-27,0.4533333333333348
2021-10-28,0.4121212121212121
2021-10-29,0.5358851674641092
2021-11-01,0.210280373831771
2021-11-02,0.2513966480446883
2021-11-03,0.2380952380952338
2021-11-04,0.5203619909502253
2021-11-05,0.27237354085603266
2021-11-08,0.5676691729323332
2021-11-09,0.5944881889763802
2021-11-10,0.5921568627450989
2021-11-11,0.6245487364620936
2021-11-12,0.9087301587301573
2021-11-15,0.7830687830687791
2021-11-16,0.8078817733990099
2021-11-17,0.9154929577464772
2021-11-18,0.40077821011673237
2021-11-19,0.2165898617511554
2021-11-22,0.19583333333333702
2021-11-23,0.43401759530792094
2021-11-24,0.33620689655172503
2021-11-25,0.5462460987087058
2021-11-26,0.4860402531933431
2021-11-29,0.6675077198412727
2021-11-30,0.2523247848811541
2021-12-01,0.5319632282383352
2021-12-02,0.5965911078666177
2021-12-03,0.7377214416615746
2021-12-06,0.5875829056371608
2021-12-07,0.5945357490037355
2021-12-08,0.25581395348837266
2021-12-09,0.08433734939759073
2021-12-10,0.11284046692607044
2021-12-13,0.1260869565217396
2021-12-14,0.1526315789473688
2021-12-15,0.22480620155038564
2021-12-16,0.7777777777777735
2021-12-17,0.7094017094017036
2021-12-20,0.5928571428571386
2021-12-21,0.7631578947368367
2021-12-22,0.829931972789116
2021-12-23,0.286764705882359
2021-12-24,0.24840764331210888
2021-12-27,0.3115942028985598
2021-12-28,0.17391304347826905
2021-12-29,0.24603174603174702
2021-12-30,0.4626865671641852
2021-12-31,0.7796610169491528
2022-01-04,0.7833333333333292
2022-01-05,0.5781249999999933
2022-01-06,0.7545454545454492
2022-01-07,0.8833333333333309
2022-01-10,0.7647058823529371
2022-01-11,0.728813559322033
2022-01-12,0.747826086956523
2022-01-13,0.20909090909091346
2022-01-14,0.0
2022-01-17,0.0
2022-01-18,0.0
2022-01-19,0.45769230769230856
2022-01-20,0.6261261261261245
2022-01-21,0.8067796610169498
2022-01-24,0.8672316384180784
2022-01-25,1.0
2022-01-26,0.6996904024767808
2022-01-27,0.7473958333333335
2022-01-28,0.546511627906975
2022-02-07,0.34795321637426907
2022-02-08,0.24846625766871014
2022-02-09,0.39837398373983635
2022-02-10,0.05666666666666723
2022-02-11,0.3170731707317079
2022-02-14,0.5857519788918197
2022-02-15,0.6260387811634337
2022-02-16,0.5471204188481658
2022-02-17,0.8532818532818524
2022-02-18,0.5193798449612395
2022-02-21,0.0689655172413804
2022-02-22,0.2340425531914915
2022-02-23,0.2936507936507962
2022-02-24,0.53766233766234
2022-02-25,0.7995642701525065
2022-02-28,1.0
2022-03-01,0.888324873096447
2022-03-02,0.9045553145336228
2022-03-03,0.5951859956236315
2022-03-04,0.25629290617848993
2022-03-07,0.34077079107505054
2022-03-08,0.5656877897990724
2022-03-09,0.5780780780780777
2022-03-10,0.7865853658536591
2022-03-11,0.9520295202952033
2022-03-14,0.7761467889908259
2022-03-15,0.42694497153700156
2022-03-16,0.22165820642977982
2022-03-17,0.0
2022-03-18,0.0
2022-03-21,0.0
2022-03-22,0.13636363636363583
2022-03-23,0.23560209424083733
2022-03-24,0.16981132075471725
2022-03-25,0.29893238434164005
2022-03-28,0.5468164794007532
2022-03-29,0.3389261744966484
2022-03-30,0.48554913294797836
2022-03-31,0.7216117216117238
2022-04-01,0.5787545787545796
2022-04-06,0.41739130434782706
2022-04-07,0.6114649681528656
2022-04-08,0.22307692307692617
2022-04-11,0.06481481481480876
2022-04-12,0.3737373737373689
2022-04-13,0.3814432989690653
2022-04-14,0.3999999999999948
2022-04-15,0.44186046511627725
2022-04-18,0.38271604938272075
2022-04-19,0.01754385964912453
2022-04-20,0.628571428571431
2022-04-21,0.5038759689922484
2022-04-22,0.6857142857142815
2022-04-25,0.7459016393442555
2022-04-26,0.7165354330708608
2022-04-27,0.20799999999999236
2022-04-28,0.5934065934065893
2022-04-29,0.6063829787234026
2022-05-05,0.4481132075471701
2022-05-06,0.6430976430976434
2022-05-09,0.7795918367346979
2022-05-10,0.5093457943925271
2022-05-11,0.6082089552238833
2022-05-12,0.7372881355932231
2022-05-13,0.3482142857142871
2022-05-16,0.5360824742268029
2022-05-17,0.6781609195402294
2022-05-18,0.39711191335739826
2022-05-19,0.32781456953642196
2022-05-20,0.377862595419844
2022-05-23,0.07939782644349849
2022-05-24,0.0
2022-05-25,0.0
2022-05-26,0.0
2022-05-27,0.2151736325300597
2022-05-30,0.5092437399455921
2022-05-31,0.7788867985982195
2022-06-01,0.8501434476677505
2022-06-02,1.0
2022-06-06,1.0
2022-06-07,1.0
2022-06-08,0.5894039735099368
2022-06-09,0.4729729729729738
2022-06-10,0.52727272727273
2022-06-13,0.546511627906984
2022-06-14,0.5094339622641579
2022-06-15,0.8688524590163941
2022-06-16,1.0
2022-06-17,0.8762886597938113
2022-06-20,0.6708860759493532
2022-06-21,0.3981481481481436
2022-06-22,0.5075757575757542
2022-06-23,0.4188034188034133
2022-06-24,0.7241379310344807
2022-06-27,0.8415094339622649
2022-06-28,0.9884615384615375
2022-06-29,0.9203539823008866
2022-06-30,0.937238493723852
2022-07-01,0.857142857142858
2022-07-04,0.2777777777777814
2022-07-05,0.18238993710692322
2022-07-06,0.5085470085470088
2022-07-07,0.5228215767634825
2022-07-08,0.37724550898203446
2022-07-11,0.5294117647058817
2022-07-12,0.49999999999999734
2022-07-13,0.08424908424908122
2022-07-14,0.04942965779467798
2022-07-15,0.10119047619047883
2022-07-18,0.18823529411764928
2022-07-19,0.1649484536082498
2022-07-20,0.41025641025641396
2022-07-21,0.26760563380281926
2022-07-22,0.18072289156626428
2022-07-25,0.2688172043010745
2022-07-26,0.27472527472527325
2022-07-27,0.49438202247190727
2022-07-28,0.7399999999999949
2022-07-29,0.8878048780487794
2022-08-01,0.7370892018779325
2022-08-02,0.841346153846153
2022-08-03,0.8735632183908038
2022-08-04,0.5127388535031862
2022-08-05,0.2848101265822786
2022-08-08,0.3228070175438594
2022-08-09,0.3204225352112678
2022-08-10,0.06985294117647112
2022-08-11,0.168750000000005
2022-08-12,0.38775510204082597
2022-08-15,0.552238805970154
2022-08-16,0.35849056603774054
2022-08-17,0.5135135135135204
2022-08-18,0.5537190082644642
2022-08-19,0.6275862068965503
2022-08-22,0.32716049382715856
2022-08-23,0.5677419354838696
2022-08-24,0.6745562130177506
2022-08-25,0.542372881355931
2022-08-26,0.27232142857142816
2022-08-29,0.5591836734693862
2022-08-30,0.39843749999999917
2022-08-31,0.3015873015872993
2022-09-01,0.39271255060728416
2022-09-02,0.6633663366336605
2022-09-05,0.2697674418604644
2022-09-06,0.3833333333333324
2022-09-07,0.5027932960893869
2022-09-08,0.4472049689441035
2022-09-09,0.4573170731707345
2022-09-13,1.0
2022-09-14,1.0
2022-09-15,0.8253968253968257
2022-09-16,0.8370370370370375
2022-09-19,0.7019230769230813
2022-09-20,0.6836734693877579
2022-09-21,0.34920634920635435
2022-09-22,0.6779661016949287
2022-09-23,0.3373493975903638
2022-09-26,0.5779816513761492
2022-09-27,0.6567164179104537
2022-09-28,0.7391304347826101
2022-09-29,0.7749999999999998
2022-09-30,1.0
2022-10-10,0.668604651162788
2022-10-11,0.43010752688171544
2022-10-12,0.34374999999999634
2022-10-13,0.11981566820276468
2022-10-14,0.0
2022-10-17,0.013513513513512074
2022-10-18,0.016806722689073888
2022-10-19,0.014925373134326864
2022-10-20,0.026315789473681492
2022-10-21,0.02857142857142559
2022-10-24,0.5952380952380966
2022-10-25,0.6942675159235687
2022-10-26,0.928571428571427
2022-10-27,0.9548022598870077
2022-10-28,0.8243902439024391
2022-10-31,0.3502538071065979
2022-11-01,0.5586206896551719
2022-11-02,0.3984375000000003
2022-11-03,0.5657142857142848
2022-11-04,0.7100737100737095
2022-11-07,0.8919753086419765
2022-11-08,0.6799999999999992
2022-11-09,0.8228571428571423
2022-11-10,0.6643598615916942
2022-11-11,0.4926829268292677
2022-11-14,0.6008403361344511
2022-11-15,0.7566137566137551
2022-11-16,0.2763157894736812
2022-11-17,0.3902439024390245
2022-11-18,0.2926829268292679
2022-11-21,0.03921568627451316
2022-11-22,0.03658536585366169
2022-11-23,0.03592814371257788
2022-11-24,0.10555555555555703
2022-11-25,0.1165644171779156
2022-11-28,0.11857351570568585
2022-11-29,0.26519512252425864
2022-11-30,0.4179975003471744
2022-12-01,0.5345505430798945
2022-12-02,0.8536627560241631
2022-12-05,0.9880667573134149
2022-12-06,0.9881116023330989
2022-12-07,1.0
2022-12-08,0.7761370697374422
2022-12-09,0.6279069767441884
2022-12-12,0.19655172413793126
2022-12-13,0.09415584415584335
2022-12-14,0.1696428571428573
2022-12-15,0.46956521739130636
2022-12-16,0.5339506172839507
2022-12-19,0.7424892703862634
2022-12-20,0.9010416666666614
2022-12-21,0.8724832214765037
2022-12-22,0.1968503937007802
2022-12-23,0.09722222222222165
2022-12-26,0.08269121218481126
2022-12-27,0.14019397177536339
2022-12-28,0.04411670680505418
2022-12-29,0.07650432584815726
2022-12-30,0.06888603606232069
2023-01-03,0.29679089930464825
2023-01-04,0.2694574580625744
2023-01-05,0.7687985499741108
2023-01-06,0.6958744585670743
2023-01-09,0.9159663865546265
2023-01-10,0.8994974874371913
2023-01-11,0.897435897435899
2023-01-12,0.4451612903225797
2023-01-13,0.5629139072847623
2023-01-16,0.5182481751824765
2023-01-17,0.48275862068964676
2023-01-18,0.39325842696628804
2023-01-19,0.7961165048543639
2023-01-20,0.8526315789473645
2023-01-30,0.5279329608938516
2023-01-31,0.5264623955431742
2023-02-01,0.6129943502824856
2023-02-02,0.4330985915492989
2023-02-03,0.23333333333333897
2023-02-06,0.8482142857142932
2023-02-07,0.7723577235772413
2023-02-08,0.6377952755905549
2023-02-09,0.4462809917355356
2023-02-10,0.34223300970873605
2023-02-13,0.0
2023-02-14,0.0
2023-02-15,0.032967032967030546
2023-02-16,0.12048192771083888
2023-02-17,0.1162790697674376
2023-02-20,0.466257668711657
2023-02-21,0.4662576687116569
2023-02-22,0.36781609195402726
2023-02-23,0.28930817610063525
2023-02-24,0.46464646464647213
2023-02-27,0.0
2023-02-28,0.0
2023-03-01,0.4324324324324263
2023-03-02,0.37647058823528745
2023-03-03,0.5903614457831218
2023-03-06,0.5833333333333318
2023-03-07,0.6249999999999981
2023-03-08,0.7843137254901944
2023-03-09,0.8108108108108159
2023-03-10,0.798561151079143
2023-03-13,0.9526315789473724
2023-03-14,0.9579439252336485
2023-03-15,0.42187500000000266
2023-03-16,0.5683229813664594
2023-03-17,0.6095505617977519
2023-03-20,0.4867549668874154
2023-03-21,0.4816053511705667
2023-03-22,0.9148936170212749
2023-03-23,0.8644067796610171
2023-03-24,0.5882352941176527
2023-03-27,0.72631578947369
2023-03-28,0.3716814159292176
2023-03-29,0.19318181818183905
2023-03-30,0.09523809523809688
2023-03-31,0.12000000000000195
2023-04-03,0.023809523809522865
2023-04-04,0.13333333333333644
2023-04-06,0.2710280373831815
2023-04-07,0.6315789473684287
2023-04-10,0.550458715596335
2023-04-11,0.7228915662650498
2023-04-12,0.8525641025640943
2023-04-13,0.8516129032257976
2023-04-14,0.7481481481481359
2023-04-17,0.8974358974358898
2023-04-18,0.9463414634146319
2023-04-19,0.6829268292682883
2023-04-20,0.5344827586206851
2023-04-21,0.5375722543352535
2023-04-24,0.14393939393939378
2023-04-25,0.0
2023-04-26,0.0
2023-04-27,0.0
2023-04-28,0.09433962264153178
2023-05-04,0.07352941176472236
2023-05-05,0.18421052631580762
2023-05-08,0.16666666666668759
2023-05-09,0.1414141414141586
2023-05-10,0.0782608695652228
2023-05-11,0.632911392405076
2023-05-12,0.781132075471705
2023-05-15,0.832669322709165
2023-05-16,0.9259593364835342
2023-05-17,0.9841250573501835
2023-05-18,0.6401784464779997
2023-05-19,0.19089209968685922
2023-05-22,0.24443035591648876
2023-05-23,0.07828192575827177
2023-05-24,0.13959612747994957
2023-05-25,0.3823370799650387
2023-05-26,0.6578066028842633
2023-05-29,0.4940476190476204
2023-05-30,0.5424836601307237
2023-05-31,0.5953757225433604
2023-06-01,0.27027027027027445
2023-06-02,0.47169811320754673
2023-06-05,0.6493506493506478
2023-06-06,0.7323943661971795
2023-06-07,0.3742690058479518
2023-06-08,0.5140845070422527
2023-06-09,0.5399999999999975
2023-06-12,0.4374999999999937
2023-06-13,0.5231788079470093
2023-06-14,0.9749999999999968
2023-06-15,0.9826589595375703
2023-06-16,0.7426900584795314
2023-06-19,0.6580310880829019
2023-06-20,0.46511627906977
2023-06-21,0.36813186813188187
2023-06-26,0.0232558139534966
2023-06-27,0.023923444976085003
2023-06-28,0.026737967914447942
2023-06-29,0.10738255033557614
2023-06-30,0.06432748538011202
2023-07-03,0.3925233644859756
2023-07-04,0.3962264150943295
2023-07-05,0.35810105896797917
2023-07-06,0.4157593548585848
2023-07-07,0.4181145703050181
2023-07-10,0.18273707523093388
2023-07-11,0.5594262441074884
2023-07-12,0.5571142237174337
2023-07-13,0.652801262227365
2023-07-14,0.7917714468818599
2023-07-17,0.8107584990609348
2023-07-18,0.6351423834601102
2023-07-19,0.8189366278197369
2023-07-20,0.49991755976916724
2023-07-21,0.4489785154189676
2023-07-24,0.47858244991535487
2023-07-25,0.4568826707696719
2023-07-26,0.047454000307520054
2023-07-27,0.31612903225806965
2023-07-28,0.4646464646464698
2023-07-31,0.49479166666667035
2023-08-01,0.6111111111111164
2023-08-02,1.0
2023-08-03,1.0
2023-08-04,0.422222222222217
2023-08-07,0.4583333333333363
2023-08-08,0.43884892086330857
2023-08-09,0.39436619718309535
2023-08-10,0.11827956989247404
2023-08-11,0.19642857142857056
2023-08-14,0.1818181818181728
2023-08-15,0.0854700854700835
2023-08-16,0.09009009009008967
2023-08-17,0.361111111111133
2023-08-18,0.7323943661971933
2023-08-21,0.5753424657534368
2023-08-22,0.7666666666666817
2023-08-23,0.9055118110236231
2023-08-24,0.9220779220779224
2023-08-25,0.6688311688311728
2023-08-28,0.7592592592592636
2023-08-29,0.7300613496932574
2023-08-30,0.4385964912280762
2023-08-31,0.32631578947368933
2023-09-01,0.49999999999999506
2023-09-04,0.666666666666662
2023-09-05,0.666666666666662
2023-09-06,0.5254237288135548
2023-09-07,0.3187499999999969
2023-09-08,0.4080459770114973
2023-09-11,0.12121212121212785
2023-09-12,0.14110429447853276
2023-09-13,0.19327731092437564
2023-09-14,0.7013888888888893
2023-09-15,0.7942583732057389
2023-09-18,0.9950382744964271
2023-09-19,0.9956179139912245
2023-09-20,1.0
2023-09-21,0.8854886652918492
2023-09-22,0.6405104389828484
2023-09-25,0.2802139838652517
2023-09-26,0.20661620181609788
2023-09-27,0.2664293599477303
2023-09-28,0.2255488049096264
2023-10-09,0.20930232558139383
2023-10-10,0.4179104477611867
2023-10-11,0.23780487804877323
2023-10-12,0.1242236024844662
2023-10-13,0.1666666666666583
2023-10-16,0.16949152542371956
2023-10-17,0.0
2023-10-18,0.13186813186813431
2023-10-19,0.33684210526316044
2023-10-20,0.4271844660194283
2023-10-23,0.6989247311828074
2023-10-24,0.9285714285714164
2023-10-25,0.588888888888891
2023-10-26,0.3837209302325617
2023-10-27,0.26582278481012134
2023-10-30,0.0
2023-10-31,0.3465346534653581
2023-11-01,0.8011695906432743
2023-11-02,0.8888888888888884
2023-11-03,0.8181818181818218
2023-11-06,0.7700534759358286
2023-11-07,0.6300578034682014
2023-11-08,0.04895104895105272
2023-11-09,0.04225352112675499
2023-11-10,0.21999999999999212
2023-11-13,0.48333333333333206
2023-11-14,0.6129032258064541
2023-11-15,1.0
2023-11-16,0.9069767441860431
2023-11-17,0.8275862068965527
2023-11-20,0.633333333333338
2023-11-21,0.486033519553077
2023-11-22,0.0
2023-11-23,0.017751479289942022
2023-11-24,0.01639344262295189
2023-11-27,0.6921487603305773
2023-11-28,0.755467196819084
2023-11-29,0.939958592132506
2023-11-30,0.9418837675350711
2023-12-01,1.0
2023-12-04,0.49397590361445504
2023-12-05,0.5766129032258049
2023-12-06,0.4482029598308664
2023-12-07,0.44936708860759383
2023-12-08,0.33796296296296374
2023-12-11,0.58634538152611
2023-12-12,0.06802721088435483
2023-12-13,0.11155378486056093
2023-12-14,0.3907103825136633
2023-12-15,0.38964577656676025
2023-12-18,0.3287356321839082
2023-12-19,0.4914089347079042
2023-12-20,0.40298507462686517
2023-12-21,0.0
2023-12-22,0.09972299168974755
2023-12-25,0.1726618705035967
2023-12-26,0.25912408759123984
2023-12-27,0.37083333333333274
2023-12-28,0.8899999999999977
2023-12-29,0.8981481481481478
2024-01-02,0.801886792452824
2024-01-03,0.7741935483870893
2024-01-04,0.7961165048543621
2024-01-05,0.9107142857142789
2024-01-08,0.6444444444444304
2024-01-09,0.5463397065900883
2024-01-10,0.4880485488998088
2024-01-11,0.17026633099244196
2024-01-12,0.19538097978202296
2024-01-15,0.18438405744571987
2024-01-16,0.19536706389386116
2024-01-17,0.24930723553992185
2024-01-18,0.5401074096507178
2024-01-19,0.2318903819535049
2024-01-22,0.6313364055299484
2024-01-23,0.7426160337552713
2024-01-24,0.6719999999999984
2024-01-25,0.5909090909090886
2024-01-26,0.7606382978723389
2024-01-29,0.18840579710144703
2024-01-30,0.0
2024-01-31,0.0
2024-02-01,0.11320754716980592
2024-02-02,0.35576923076922506
2024-02-05,0.9185185185185157
2024-02-06,0.7701863354037201
2024-02-07,0.8333333333333319
2024-02-08,0.7674418604651175
2024-02-19,0.48101265822785183
2024-02-20,0.13903743315508363
2024-02-21,0.1502890173410445
2024-02-22,0.0
2024-02-23,0.08379888268156967
2024-02-26,0.10791366906475436
2024-02-27,0.2419354838709757
2024-02-28,0.5571428571428522
2024-02-29,0.6964285714285632
2024-03-01,0.6666666666666494
2024-03-04,0.8469387755102019
2024-03-05,0.935960591133007
2024-03-06,0.9432314410480366
2024-03-07,1.0
2024-03-08,0.9080882352941184
2024-03-11,0.7734375000000003
2024-03-12,0.36546184738955734
2024-03-13,0.1666666666666677
2024-03-14,0.34920634920634885
2024-03-15,0.5199999999999997
2024-03-18,0.619170984455958
2024-03-19,0.8625730994152029
2024-03-20,1.0
2024-03-21,1.0
2024-03-22,1.0
2024-03-25,0.8060606060606117
2024-03-26,0.5167785234899485
2024-03-27,0.5471698113207656
2024-03-28,0.20422535211267884
2024-03-29,0.09824561403508879
2024-04-01,0.11764705882353033
2024-04-02,0.4218749999999973
2024-04-03,0.5888888888888844
2024-04-08,0.9450354609929059
2024-04-09,1.0
2024-04-10,1.0
2024-04-11,1.0
2024-04-12,1.0
2024-04-15,1.0
2024-04-16,0.7712082262210805
2024-04-17,0.7055555555555537
2024-04-18,0.7030812324929959
2024-04-19,0.43532338308457746
2024-04-22,0.03381642512077368
2024-04-23,0.0604229607250731
2024-04-24,0.14285714285714107
2024-04-25,0.08728179551121945
2024-04-26,0.09562841530054306
2024-04-29,0.09695290858725404
2024-04-30,0.07073170731707287
2024-05-06,0.0
2024-05-07,0.0
2024-05-08,0.0
2024-05-09,0.0
2024-05-10,0.5879629629629658
2024-05-13,0.5669642857142877
2024-05-14,0.6824644549763019
2024-05-15,0.6985085652743452
2024-05-16,0.9059618024133023
2024-05-17,0.4837261946749608
2024-05-20,0.7263290009109654
2024-05-21,0.841759341592755
2024-05-22,0.8779576501074015
2024-05-23,0.8776322156762917
2024-05-24,1.0
2024-05-27,0.8185752270934582
2024-05-28,0.4827264239028947
2024-05-29,0.35617977528089984
2024-05-30,0.17119244391971808
2024-05-31,0.038356164383562284
2024-06-03,0.43817527010804397
2024-06-04,0.55895865237366
2024-06-05,0.5289855072463773
2024-06-06,0.6381118881118882
2024-06-07,0.6795665634674912
2024-06-11,0.15044247787610407
2024-06-12,0.16859504132231215
2024-06-13,0.3991935483870962
2024-06-14,0.3473684210526308
2024-06-17,0.2002053388090353
2024-06-18,0.2954545454545458
2024-06-19,0.3800623052959512
2024-06-20,0.08892921960072767
2024-06-21,0.11421911421911632
2024-06-24,0.5152439024390255
2024-06-25,0.5748299319727895
2024-06-26,0.5954692556634288
2024-06-27,0.461152882205512
2024-06-28,0.39569892473118123
2024-07-01,0.14814814814814692
2024-07-02,0.14190687361418994
2024-07-03,0.0
2024-07-04,0.16503365677783227
2024-07-05,0.19445912654696695
2024-07-08,0.43681874537812143
2024-07-09,0.7350710478643727
2024-07-10,0.7417123554714006
2024-07-11,0.6292754393702268
2024-07-12,0.8431358846261635
2024-07-15,0.6811074105917695
2024-07-16,0.4537815126050406
2024-07-17,0.5580736543909334
2024-07-18,0.6976241900647933
2024-07-19,0.579579579579579
2024-07-22,0.7174721189591117
2024-07-23,0.989051094890515
2024-07-24,0.7972972972973009
2024-07-25,0.8720682302771875
2024-07-26,0.6545138888888903
2024-07-29,0.6422487223168659
2024-07-30,0.6060037523452162
2024-07-31,0.750407830342578
2024-08-01,0.2187500000000003
2024-08-02,0.3597650513950075
2024-08-05,0.5242390078917696
2024-08-06,0.547210300429184
2024-08-07,0.4023732470334409
2024-08-08,0.7270955165692002
2024-08-09,0.6365638766519829
2024-08-12,0.17079207920792128
2024-08-13,0.0
2024-08-14,0.03937007874015683
2024-08-15,0.25416666666666626
2024-08-16,0.25311203319501957
2024-08-19,0.45714285714285424
2024-08-20,0.8836206896551709
2024-08-21,0.8794642857142839
2024-08-22,0.3982300884955775
2024-08-23,0.4205607476635553
2024-08-26,0.2954545454545483
2024-08-27,0.033492822966502786
2024-08-28,0.11013215859030888
2024-08-29,0.26771653543307133
2024-08-30,0.17525773195876418
2024-09-02,0.3798449612403109
2024-09-03,0.5751295336787575
2024-09-04,0.4673913043478274
2024-09-05,0.36320754716981135
2024-09-06,0.6267605633802854
2024-09-09,0.6954022988505769
2024-09-10,0.7039106145251424
2024-09-11,0.8451882845188294
2024-09-12,1.0
2024-09-13,1.0
2024-09-18,0.5346715328467143
2024-09-19,0.6255506607929512
2024-09-20,0.49857549857549754
2024-09-23,0.44391785150078905
2024-09-24,0.2892249527410219
2024-09-25,0.7779816513761479
2024-09-26,0.5180265654648969
2024-09-27,0.6526548672566391
2024-09-30,0.7003816793893145
2024-10-08,0.7417475728155342
2024-10-09,0.31092436974789767
2024-10-10,0.5480000000000003
2024-10-11,0.5767790262172281
2024-10-14,0.32921810699588777
2024-10-15,0.21241830065359987
2024-10-16,0.258964143426302
2024-10-17,0.4000000000000008
2024-10-18,0.4132492113564688
2024-10-21,0.7404580152671769
2024-10-22,0.8853754940711458
2024-10-23,0.8342644320297953
2024-10-24,0.7363083164300178
2024-10-25,0.6302186878727608
2024-10-28,0.11152416356877094
2024-10-29,0.0
2024-10-30,0.0
2024-10-31,0.0
2024-11-01,0.0
2024-11-04,0.10666666666667537
2024-11-05,0.12121212121212997
2024-11-06,0.7067448680351934
2024-11-07,0.7554858934169284
2024-11-08,0.6925287356321831
2024-11-11,0.6249999999999972
2024-11-12,0.79432624113475
2024-11-13,0.25934579439252237
2024-11-14,0.45638227150389843
2024-11-15,0.518981125557544
2024-11-18,0.5427562488267395
2024-11-19,0.35654302354830525
2024-11-20,0.6998065954362612
2024-11-21,0.078604953987584
2024-11-22,0.0019837414680325036
2024-11-25,0.30527479784336603
2024-11-26,0.3435036081368833
2024-11-27,0.32133676092544866
2024-11-28,0.745033112582781
2024-11-29,0.861445783132533
2024-12-02,0.5420875420875432
2024-12-03,0.6705202312138726
2024-12-04,0.7030303030302989
2024-12-05,0.5136186770427976
2024-12-06,0.3034188034188005
2024-12-09,0.39444444444444565
2024-12-10,0.0
2024-12-11,0.1095890410958933
2024-12-12,0.10084033613445682
2024-12-13,0.34572490706319925
2024-12-16,0.35769230769230825
2024-12-17,0.4626865671641779
2024-12-18,0.3520408163265272
2024-12-19,0.6920152091254709
2024-12-20,0.3937282229965129
2024-12-23,0.5689149560117268
2024-12-24,0.6410256410256393
2024-12-25,0.6644518272425244
2024-12-26,0.2620481927710838
2024-12-27,0.31868131868132094
2024-12-30,0.020547945205480905
2024-12-31,0.15634218289085822
