date,FCT_Cr_Atr_Dfive
2012-05-10,
2012-05-11,
2012-05-14,
2012-05-15,
2012-05-16,
2012-05-17,
2012-05-18,
2012-05-21,
2012-05-22,
2012-05-23,
2012-05-24,-0.0362214530633372
2012-05-25,-0.011029509710764053
2012-05-28,0.08083929733246582
2012-05-29,0.2797898773834604
2012-05-30,0.17687924801156893
2012-05-31,0.010041174504519391
2012-06-01,-0.09631728045325776
2012-06-04,0.023775532615857728
2012-06-05,-0.021117552732206862
2012-06-06,0.13512684365781716
2012-06-07,0.032731574489531706
2012-06-08,0.2411482530689329
2012-06-11,-0.1352752073068141
2012-06-12,-0.02206688078594362
2012-06-13,-0.2781311062324122
2012-06-14,0.08995679752859916
2012-06-15,-0.313250936329588
2012-06-18,0.15087045321921796
2012-06-19,-0.06923849708659838
2012-06-20,0.1345444924596527
2012-06-21,-0.19144669144669157
2012-06-25,0.1746161421728814
2012-06-26,-0.2631971183703887
2012-06-27,0.13328664799253043
2012-06-28,0.06030473135525256
2012-06-29,0.5668220668220668
2012-07-02,0.004891204413116832
2012-07-03,0.35973523724527756
2012-07-04,-0.051303767580330784
2012-07-05,-0.04128969579209416
2012-07-06,-0.6106782106782106
2012-07-09,0.0030769230769231207
2012-07-10,-0.3846198223145265
2012-07-11,-0.06928446771378691
2012-07-12,-0.005221932114882581
2012-07-13,0.15783040488922842
2012-07-16,-0.01271186440677969
2012-07-17,0.317195459468132
2012-07-18,0.17477477477477477
2012-07-19,-0.06968641114982578
2012-07-20,-0.14890000944197904
2012-07-23,0.039378531073446424
2012-07-24,-0.26310313434776944
2012-07-25,-0.012728827642038351
2012-07-26,0.23148855739654867
2012-07-27,0.34060809238080203
2012-07-30,-0.07799858684793777
2012-07-31,0.3004924626969556
2012-08-01,-0.20064243836080436
2012-08-02,-0.2863696202951636
2012-08-03,-0.3572177650725421
2012-08-06,0.017839097214763483
2012-08-07,-0.4163040438550694
2012-08-08,0.12553342816499716
2012-08-09,0.20403767272393164
2012-08-10,0.2904774606561672
2012-08-13,0.07195436142804187
2012-08-14,0.3625648279113648
2012-08-15,-0.15070505287895902
2012-08-16,-0.129470198675493
2012-08-17,-0.18089190255802517
2012-08-20,-0.03846153846153433
2012-08-21,0.07976190476189361
2012-08-22,0.3697964847363624
2012-08-23,0.9040772532188883
2012-08-24,0.19164230019492756
2012-08-27,0.1745379876796736
2012-08-28,-0.18374125874125025
2012-08-29,-0.23936170212766594
2012-08-30,-1.1539008863758522
2012-08-31,-0.2482216158223663
2012-09-03,-0.1859993057312532
2012-09-04,0.11308908482821237
2012-09-05,-0.039370078740157466
2012-09-06,0.6304247260531395
2012-09-07,0.4556090597344524
2012-09-10,-0.022384835794573118
2012-09-11,-0.12823317640542653
2012-09-12,0.04915800696201664
2012-09-13,-0.5099225791643474
2012-09-14,-0.4410014713253246
2012-09-17,-0.0410437139952578
2012-09-18,0.011980588413709529
2012-09-19,0.19021207177814248
2012-09-20,0.2797230926938764
2012-09-21,-0.06705845163515059
2012-09-24,0.2890179031614989
2012-09-25,0.05190476190476209
2012-09-26,-0.31013986013986294
2012-09-27,-0.20452734316440557
2012-09-28,0.2610769624791903
2012-10-08,-0.07501513209427957
2012-10-09,-0.09663716814159336
2012-10-10,0.09888282449258252
2012-10-11,0.14966653370265026
2012-10-12,-0.11857229280096634
2012-10-15,-0.4574649631509023
2012-10-16,0.05938442088884464
2012-10-17,-0.05175666298285982
2012-10-18,-0.09524839930312898
2012-10-19,0.06777607147842701
2012-10-22,0.39847075428710893
2012-10-23,-0.0027472527472490226
2012-10-24,0.13169501731145722
2012-10-25,0.1628181421849385
2012-10-26,0.19402380529401556
2012-10-29,-0.12327066434325172
2012-10-30,-0.0235294117647088
2012-10-31,-0.11486605763713953
2012-11-01,-0.1741631714247048
2012-11-02,-0.30865838695557163
2012-11-05,0.15699153381674902
2012-11-06,0.000688343345464585
2012-11-07,0.24174329265776345
2012-11-08,-0.0035940565627701065
2012-11-09,-0.10805924624966125
2012-11-12,-0.18180072888405524
2012-11-13,0.04627856841924094
2012-11-14,-0.41438807024138224
2012-11-15,0.01904408227852531
2012-11-16,0.2915727987697105
2012-11-19,0.00931918973990125
2012-11-20,-0.020158811475408215
2012-11-21,0.2580452028139484
2012-11-22,0.08019380083174707
2012-11-23,-0.15443426662655202
2012-11-26,0.05544708712972663
2012-11-27,-0.006483816729720126
2012-11-28,0.015446693146713722
2012-11-29,0.011140512348517491
2012-11-30,-0.03300043421623893
2012-12-03,0.04446472944875573
2012-12-04,0.1647904940587876
2012-12-05,-0.04941303558920238
2012-12-06,0.01693147806151893
2012-12-07,0.08408965551822623
2012-12-10,-0.1172502334267046
2012-12-11,-0.32869411916930846
2012-12-12,-0.11671431198488506
2012-12-13,0.09145867842069223
2012-12-14,0.07518274909579355
2012-12-17,0.2027815448946188
2012-12-18,0.24683285534584168
2012-12-19,0.1324751462352442
2012-12-20,-0.3221423533517643
2012-12-21,-0.06124816980525975
2012-12-24,-0.15162507032560296
2012-12-25,-0.07701407492991855
2012-12-26,-0.06425342132562419
2012-12-27,0.20191879463722306
2012-12-28,-0.10928775661092532
2012-12-31,0.006751628431218751
2013-01-04,0.10771942075248454
2013-01-07,0.23661340898910532
2013-01-08,-0.07093534212177863
2013-01-09,0.05683848255569616
2013-01-10,-0.05175314725234982
2013-01-11,-0.26324446125758055
2013-01-14,-0.285142317644598
2013-01-15,0.12066073041682879
2013-01-16,0.07142746722730603
2013-01-17,0.09467015690587438
2013-01-18,0.11948168007148713
2013-01-21,-0.011676123963329982
2013-01-22,-0.2374698472259471
2013-01-23,-0.06429539475432289
2013-01-24,0.01770847099247012
2013-01-25,0.04149659863945671
2013-01-28,0.030573781934944436
2013-01-29,0.19751427611689745
2013-01-30,-0.05475638853349151
2013-01-31,-0.1475760225395958
2013-02-01,-0.08979591836734452
2013-02-04,0.18398560503822897
2013-02-05,-0.08866812227073867
2013-02-06,0.17268724397029306
2013-02-07,0.07136898489638105
2013-02-08,0.27068737942938575
2013-02-18,-0.1111111111111017
2013-02-19,-0.01776150627615422
2013-02-20,-0.06668380703066372
2013-02-21,0.46596825663420294
2013-02-22,-0.28661570197791963
2013-02-25,0.07432432432431885
2013-02-26,0.20112628615036493
2013-02-27,-0.011271704814522032
2013-02-28,-0.74652206075358
2013-03-01,0.15333786804003707
2013-03-04,-0.17621111677715515
2013-03-05,-0.10895301516833346
2013-03-06,-0.002886458450781731
2013-03-07,0.39922789318820506
2013-03-08,-0.08189629541535294
2013-03-11,0.06740403383214191
2013-03-12,-0.18020541549953328
2013-03-13,-0.09694831203509807
2013-03-14,0.25856950067476897
2013-03-15,0.04520337245072222
2013-03-18,0.2929097249128264
2013-03-19,0.1210317460317477
2013-03-20,0.1317298320050473
2013-03-21,-0.5024132730015133
2013-03-22,-0.09600704638872462
2013-03-25,-0.48191181477698497
2013-03-26,0.049274099883856906
2013-03-27,0.4738016262071762
2013-03-28,0.15566895527927066
2013-03-29,0.23831548198636673
2013-04-01,0.38697258690447084
2013-04-02,0.024984291997486203
2013-04-03,-0.6916343038599329
2013-04-08,-0.010432382389242035
2013-04-09,-0.2247532866059919
2013-04-10,-0.37819362077256413
2013-04-11,-0.07445903393591924
2013-04-12,0.001142718631511913
2013-04-15,-0.2153850060950865
2013-04-16,-0.27603305785123744
2013-04-17,1.3431462493254207
2013-04-18,0.7799625468164799
2013-04-19,0.48901610970576226
2013-04-22,0.3675487416430403
2013-04-23,0.6814992025518327
2013-04-24,-1.146822719913655
2013-04-25,-0.9260299625468149
2013-04-26,-0.3137557844454419
2013-05-02,-0.12798676389762476
2013-05-03,-0.49330286794831474
2013-05-06,0.020146021371511183
2013-05-07,0.24997362451864624
2013-05-08,-0.14297328712804325
2013-05-09,0.035396676764151785
2013-05-10,0.11722165793909031
2013-05-13,-0.11613307988207175
2013-05-14,-0.2231589939904953
2013-05-15,0.27200000753407505
2013-05-16,-0.13531131062912918
2013-05-17,-0.011478598603215207
2013-05-20,0.28228921095048226
2013-05-21,0.2887003105594376
2013-05-22,-0.2529524180605414
2013-05-23,0.09790830972350878
2013-05-24,0.03907156673114081
2013-05-27,-0.2921168016400737
2013-05-28,-0.3301940249955429
2013-05-29,0.16168547061066152
2013-05-30,0.008858169477995361
2013-05-31,-0.05647416413373808
2013-06-03,-0.028242022248915116
2013-06-04,0.22308314717419842
2013-06-05,-0.11244565617861915
2013-06-06,-0.13022381535233798
2013-06-07,0.033196125907991106
2013-06-13,0.17863989775268901
2013-06-14,-0.05790601561304534
2013-06-17,-0.049100010650760334
2013-06-18,0.0680058354842334
2013-06-19,0.07653601694915162
2013-06-20,0.46136131569228234
2013-06-21,0.01884295168291197
2013-06-24,0.5330451531324875
2013-06-25,0.10921526021444053
2013-06-26,0.3253223094170379
2013-06-27,-0.6003072870939445
2013-06-28,0.21847533521807327
2013-07-01,-0.46852517065282856
2013-07-02,-0.08056817306952088
2013-07-03,-0.6443284569580217
2013-07-04,0.013645998940118143
2013-07-05,-0.30928637200736914
2013-07-08,-0.0696730628362642
2013-07-09,0.20343061955965464
2013-07-10,0.3202594897869721
2013-07-11,0.6475684868542002
2013-07-12,0.044781713344317776
2013-07-15,0.15872817054077049
2013-07-16,-0.2867956851093453
2013-07-17,-0.08745418494261831
2013-07-18,-0.6868709472092929
2013-07-19,0.0436685129000267
2013-07-22,0.07600158824697052
2013-07-23,0.10155595347786085
2013-07-24,0.05784436121515037
2013-07-25,-0.1302853092326763
2013-07-26,-0.11525961850953627
2013-07-29,-0.2650346426976626
2013-07-30,-0.02827908413452843
2013-07-31,0.05840455840455455
2013-08-01,0.347258297258294
2013-08-02,0.3395411803446623
2013-08-05,0.10595758945839232
2013-08-06,-0.005391966937873506
2013-08-07,-0.13330289888153055
2013-08-08,0.04721473495058627
2013-08-09,-0.22361167634762455
2013-08-12,0.541911962236634
2013-08-13,0.21497403472176652
2013-08-14,0.09312103601596185
2013-08-15,-0.06415288154974755
2013-08-16,0.26237117999529425
2013-08-19,-0.5862056598852362
2013-08-20,-0.07837124136812301
2013-08-21,-0.012407494474655709
2013-08-22,-0.11932558966457313
2013-08-23,-0.4880849291821199
2013-08-26,0.2982591721815863
2013-08-27,-0.21190363706477555
2013-08-28,0.02384146289889994
2013-08-29,0.4086672380544249
2013-08-30,0.2887328127127126
2013-09-02,-0.22858731924360481
2013-09-03,0.04566505919375131
2013-09-04,-0.007533471251803335
2013-09-05,-0.5883850023045626
2013-09-06,-0.12606774668630322
2013-09-09,-0.25372314842795707
2013-09-10,0.15197078637129005
2013-09-11,-0.15524429903031725
2013-09-12,0.17477959177543229
2013-09-13,0.13824371619471895
2013-09-16,0.4366923107223293
2013-09-17,-0.16473302666821765
2013-09-18,0.11070395232278625
2013-09-23,0.3033349811454848
2013-09-24,-0.10467003435605404
2013-09-25,-0.17624833156508177
2013-09-26,0.052268089781822624
2013-09-27,-0.04909281751386957
2013-09-30,-0.542148544299772
2013-10-08,0.009431116980087244
2013-10-09,-0.1771363794907548
2013-10-10,-0.047797293406275684
2013-10-11,0.10637223590960325
2013-10-14,0.3757683676456246
2013-10-15,0.11961874116327884
2013-10-16,0.31784597461524156
2013-10-17,0.22377806908527542
2013-10-18,-0.1357861281297328
2013-10-21,-0.003935974809761628
2013-10-22,-0.1932357848799906
2013-10-23,-0.11346170640118394
2013-10-24,-0.29459252243720024
2013-10-25,0.22234703617368234
2013-10-28,-0.1087515208700617
2013-10-29,0.059487624837169455
2013-10-30,-0.03813131313131687
2013-10-31,0.5185743728949922
2013-11-01,-0.24389179491220364
2013-11-04,-0.03820295393452146
2013-11-05,0.0978295733989088
2013-11-06,-0.08849206349206178
2013-11-07,-0.74038565786417
2013-11-08,0.4302212903907842
2013-11-11,0.2714543042037575
2013-11-12,-0.03655980436944105
2013-11-13,0.3158980127484078
2013-11-14,0.43233760075865185
2013-11-15,-0.49840233398166434
2013-11-18,-0.3854822383196775
2013-11-19,-0.0003679536868936538
2013-11-20,-0.36802156487196314
2013-11-21,0.002288329519451973
2013-11-22,0.13834736375720266
2013-11-25,0.33744720625908686
2013-11-26,0.012139181024835407
2013-11-27,0.12628831398796855
2013-11-28,-0.1910889026660429
2013-11-29,0.01919726830018137
2013-12-02,-0.2297774059016529
2013-12-03,-0.012796854458188466
2013-12-04,0.052487419920850265
2013-12-05,0.22428551190859072
2013-12-06,0.1442793482481015
2013-12-09,0.22793936478868682
2013-12-10,-0.03352208498450429
2013-12-11,0.019205088736884784
2013-12-12,-0.21009901965614097
2013-12-13,0.01899521388273223
2013-12-16,-0.29222322756759045
2013-12-17,0.20035494408845522
2013-12-18,0.0963059264149172
2013-12-19,0.3102551971074939
2013-12-20,-0.28412403922608465
2013-12-23,0.2223154179647498
2013-12-24,-0.35618049615055936
2013-12-25,-0.24841678270872383
2013-12-26,-0.49782757409359113
2013-12-27,0.3494437746800201
2013-12-30,-0.04626114229118626
2013-12-31,0.28069095453952214
2014-01-02,0.3106944632462456
2014-01-03,0.3631010666771134
2014-01-06,-0.2848042422781598
2014-01-07,-0.10027472527472502
2014-01-08,-0.0782650371435422
2014-01-09,-0.19036838280507956
2014-01-10,-0.0010900473933652122
2014-01-13,0.2577123480274591
2014-01-14,0.17969628796400544
2014-01-15,-0.06629320945484148
2014-01-16,-0.08710590692943904
2014-01-17,-0.16736308316429926
2014-01-20,-0.42736532605271693
2014-01-21,-0.2798653496715283
2014-01-22,-0.11804744988582169
2014-01-23,0.0836422127421466
2014-01-24,0.09736308316429701
2014-01-27,0.4234281616065074
2014-01-28,0.12483504320803543
2014-01-29,0.13470350404312992
2014-01-30,0.07382343395002358
2014-02-07,0.03610108303249504
2014-02-10,-0.22479057009415493
2014-02-11,0.10494440810987875
2014-02-12,0.06010503793036449
2014-02-13,-0.21059913683676795
2014-02-14,0.203281156349746
2014-02-17,0.2972635600855363
2014-02-18,0.053480712835550635
2014-02-19,0.032423600883650934
2014-02-20,0.31361368985131644
2014-02-21,-0.3550406023715624
2014-02-24,-0.3822122767759223
2014-02-25,-0.21074087203119635
2014-02-26,-0.07110316952867929
2014-02-27,-0.09952161737876103
2014-02-28,0.12281826752392815
2014-03-03,0.08647620319070803
2014-03-04,0.14846105706320945
2014-03-05,-0.10373401534526984
2014-03-06,-0.3254220536382091
2014-03-07,0.08438939124004496
2014-03-10,0.39189726341538184
2014-03-11,-0.08995550841215108
2014-03-12,0.2852560725782857
2014-03-13,0.36158651942452363
2014-03-14,-0.1542869383602011
2014-03-17,-0.48345874501079844
2014-03-18,0.10599335311043279
2014-03-19,-0.27399188269180325
2014-03-20,-0.11709020957780662
2014-03-21,0.0968839840489643
2014-03-24,-0.012022082743310292
2014-03-25,-0.18663268195978727
2014-03-26,-0.02294038387505065
2014-03-27,-0.09395887436672383
2014-03-28,-0.14481827822230453
2014-03-31,0.05053459119496592
2014-04-01,0.18003565062388782
2014-04-02,0.0202600719842133
2014-04-03,-0.021543953270355465
2014-04-04,0.005408778864154945
2014-04-08,0.17176470588235881
2014-04-09,-0.23458110516933955
2014-04-10,0.4749455337690578
2014-04-11,0.15946591402518134
2014-04-14,0.16196418882257094
2014-04-15,-0.02477283596365875
2014-04-16,0.24520202020201662
2014-04-17,-0.5468551056786323
2014-04-18,-0.07336567081909001
2014-04-21,0.27843410420730136
2014-04-22,-0.1184358645205893
2014-04-23,-0.07810245310245185
2014-04-24,0.125200854458498
2014-04-25,0.7596325953838967
2014-04-28,-0.4568282568282574
2014-04-29,0.06176527974245224
2014-04-30,-0.0004054354507503615
2014-05-05,0.08198423687293634
2014-05-06,-1.1509303561935202
2014-05-07,-0.012327496863576273
2014-05-08,0.05658347676420473
2014-05-09,-0.007885708433615342
2014-05-12,-0.00820016820858347
2014-05-13,0.5221330696021105
2014-05-14,0.18523655168037517
2014-05-15,-0.10659401189000034
2014-05-16,0.05829260441360527
2014-05-19,-0.019327571384371148
2014-05-20,-0.11365637625061335
2014-05-21,0.07316217632905928
2014-05-22,0.04417302579644154
2014-05-23,-0.04580773758551163
2014-05-26,-0.14520003028564393
2014-05-27,-0.006655990391345016
2014-05-28,-0.23076108817613772
2014-05-29,0.11599241466498547
2014-05-30,-0.027793778801847503
2014-06-03,0.3522670652715554
2014-06-04,-0.041799437675730355
2014-06-05,0.05736337088026464
2014-06-06,-0.25662739322533223
2014-06-09,0.08074291300097983
2014-06-10,-0.4534360950545926
2014-06-11,0.06520847573480036
2014-06-12,0.10962566844919572
2014-06-13,0.4637702503681759
2014-06-16,0.14716732542818947
2014-06-17,0.35394114555963546
2014-06-18,0.04800462695198747
2014-06-19,0.032779153401722355
2014-06-20,0.07005592272497313
2014-06-23,-0.23164189113669184
2014-06-24,-0.14139393939393397
2014-06-25,0.09538373525787897
2014-06-26,-0.09816990300299663
2014-06-27,-0.6944377908568291
2014-06-30,0.03598971722365314
2014-07-01,0.09880603948896363
2014-07-02,-0.28103085553997464
2014-07-03,0.019879028617854743
2014-07-04,0.23574671146697324
2014-07-07,0.12851405622489634
2014-07-08,-0.1619899066301267
2014-07-09,0.15678919729932583
2014-07-10,0.01555700137352886
2014-07-11,0.16356877323419364
2014-07-14,-0.20701234974025762
2014-07-15,0.06333201528930811
2014-07-16,0.06761737604212362
2014-07-17,-0.1390429493877762
2014-07-18,-0.03823893869814963
2014-07-21,-0.03344200499210252
2014-07-22,-0.006691565515093076
2014-07-23,-0.1913142485361083
2014-07-24,0.20062461810034507
2014-07-25,-0.015424836601311227
2014-07-28,0.2364038178207664
2014-07-29,-0.0015074732182950752
2014-07-30,0.1355983772819445
2014-07-31,-0.1497042740765512
2014-08-01,-0.21848238482384308
2014-08-04,-0.29859287254713635
2014-08-05,0.2194886415892595
2014-08-06,0.026975638740346378
2014-08-07,0.023817418213965817
2014-08-08,0.24262832180560076
2014-08-11,0.10370681802256676
2014-08-12,-0.38469027625654706
2014-08-13,-0.16300505050505018
2014-08-14,0.16745666305526025
2014-08-15,-0.19634745527022973
2014-08-18,0.44452325463572107
2014-08-19,0.22333280448464596
2014-08-20,0.16326142131979673
2014-08-21,-0.11447914540382761
2014-08-22,0.24091136557652265
2014-08-25,-0.5801093031154416
2014-08-26,0.11453233338049484
2014-08-27,-0.06491236471602305
2014-08-28,0.04287728544021188
2014-08-29,-0.15831945689765975
2014-09-01,0.2441038217862261
2014-09-02,-0.1964046615422749
2014-09-03,-0.08246741409169589
2014-09-04,-0.3135378553335169
2014-09-05,0.21119691119691558
2014-09-09,-0.08747795414462856
2014-09-10,0.17383533897294984
2014-09-11,0.12552009159196847
2014-09-12,0.5434717298563976
2014-09-15,-0.2267080745341638
2014-09-16,0.17087804315219635
2014-09-17,-0.24004329004328573
2014-09-18,0.14090958665067177
2014-09-19,-0.3042316056542232
2014-09-22,0.9511978704525259
2014-09-23,-0.07594218176658275
2014-09-24,0.16438450899031684
2014-09-25,-0.13218755837848073
2014-09-26,0.13805097266682786
2014-09-29,-1.1968868903493577
2014-09-30,-0.12971156117780885
2014-10-08,0.011741617135809387
2014-10-09,-0.06823600727419633
2014-10-10,-0.2627963037364396
2014-10-13,0.32744935923935387
2014-10-14,0.06307407849218616
2014-10-15,-0.07484407484407568
2014-10-16,0.021237244897957634
2014-10-17,0.042204881288395085
2014-10-20,-0.15853658536585294
2014-10-21,-0.01973198918121464
2014-10-22,-0.12504091653027774
2014-10-23,-0.16884282178217602
2014-10-24,-0.043916992892709034
2014-10-27,0.14634146341463855
2014-10-28,0.11773940345368497
2014-10-29,0.12094501243437047
2014-10-30,0.6815290800603264
2014-10-31,0.4865718380128478
2014-11-03,0.17320261437908246
2014-11-04,-0.04349689307906052
2014-11-05,0.3267581475128701
2014-11-06,-0.5640650434452759
2014-11-07,-0.35003824778809883
2014-11-10,-0.07082146814251049
2014-11-11,-0.037720308492654384
2014-11-12,-0.4915442946990148
2014-11-13,-0.016940450421846172
2014-11-14,0.08082497446880876
2014-11-17,0.1621024809674541
2014-11-18,0.03616663460880154
2014-11-19,0.16110064350064499
2014-11-20,0.25358356365221424
2014-11-21,-0.23846821337230473
2014-11-24,-0.5944836272040299
2014-11-25,-0.09754415175120547
2014-11-26,0.04553024041841744
2014-11-27,-0.3758893280632417
2014-11-28,0.27294511554622175
2014-12-01,0.642280701754387
2014-12-02,0.6779711070316898
2014-12-03,0.04562914924843345
2014-12-04,0.16583850931677174
2014-12-05,-0.07791147508038962
2014-12-08,-0.4070011986487963
2014-12-09,-0.9587831702149163
2014-12-10,-0.025998615844658964
2014-12-11,0.16262496675375682
2014-12-12,-0.10903048920532676
2014-12-15,0.09953977400284392
2014-12-16,0.5790976138471742
2014-12-17,0.12142937385744929
2014-12-18,-0.07495177038490874
2014-12-19,0.09270833333333348
2014-12-22,-0.0951619562361602
2014-12-23,-0.3370659636674221
2014-12-24,-0.3163877956417268
2014-12-25,-0.2882746853695925
2014-12-26,-0.06624525916561569
2014-12-29,0.12130243144970831
2014-12-30,-0.0006530503105846019
2014-12-31,0.2368562885777742
2015-01-05,0.2688187072381534
2015-01-06,0.20588027484853516
2015-01-07,0.015551875584994032
2015-01-08,0.048314981648315256
2015-01-09,-0.3221125127376258
2015-01-12,0.14120200440458258
2015-01-13,-0.24640193297615456
2015-01-14,0.04323196183661263
2015-01-15,0.18914306463326078
2015-01-16,0.2512069082749736
2015-01-19,-0.018847475548505493
2015-01-20,0.04559069514140287
2015-01-21,-0.001780626780626085
2015-01-22,-0.025969962453068957
2015-01-23,0.019705294705294564
2015-01-26,-0.29793725827245554
2015-01-27,0.09202014323436383
2015-01-28,-0.26978114478114423
2015-01-29,-0.2730496453900695
2015-01-30,0.24912587412587206
2015-02-02,0.2502740467794565
2015-02-03,-0.049891540130150486
2015-02-04,0.22232990889707105
2015-02-05,0.14822404371584957
2015-02-06,-0.5072879104194328
2015-02-09,-0.10605162712750107
2015-02-10,-0.1102150537634422
2015-02-11,-0.0858289476226941
2015-02-12,0.02793629383689248
2015-02-13,0.28503085712789566
2015-02-16,-0.12399719293768535
2015-02-17,0.1203160638644502
2015-02-25,0.021983887210468886
2015-02-26,-0.11188274938436864
2015-02-27,-0.1736295695912808
2015-03-02,0.0655077837316193
2015-03-03,0.4671717171717175
2015-03-04,0.08179487179487484
2015-03-05,0.1576216366378282
2015-03-06,0.13886182949438908
2015-03-09,0.13643915270663165
2015-03-10,-0.7235413839891432
2015-03-11,-0.16407209951764584
2015-03-12,0.06284862267227481
2015-03-13,-0.031394048495759254
2015-03-16,-0.1969242310577659
2015-03-17,0.23874985972393642
2015-03-18,0.22682268226822871
2015-03-19,0.02381071108008316
2015-03-20,0.003642080184352324
2015-03-23,0.32399420329860107
2015-03-24,0.029631819105501066
2015-03-25,-0.12361596736596814
2015-03-26,-0.3057473135786392
2015-03-27,-0.008568797639960192
2015-03-30,-0.40596586239413185
2015-03-31,0.028796068796069853
2015-04-01,-0.018357399520893977
2015-04-02,0.14972114606837217
2015-04-03,0.025864295084339493
2015-04-07,0.10991150624813269
2015-04-08,-0.20982381959125818
2015-04-09,0.36177507055953073
2015-04-10,-0.02022998555000949
2015-04-13,0.003456676743326963
2015-04-14,0.17575181002742868
2015-04-15,0.24573144893940146
2015-04-16,-0.5421972568374531
2015-04-17,0.0899198167239386
2015-04-20,-0.05639008553412017
2015-04-21,-0.12755857281404795
2015-04-22,-0.14765322215837481
2015-04-23,0.18498909996885643
2015-04-24,-0.15020576131687033
2015-04-27,0.12496012759170429
2015-04-28,0.35813761720062337
2015-04-29,0.16877300983764562
2015-04-30,0.021924991009593116
2015-05-04,0.1658752769863861
2015-05-05,-0.0012572533849121992
2015-05-06,-0.5459328082697508
2015-05-07,-0.1300361283927373
2015-05-08,-0.011665844136875558
2015-05-11,-0.1096114737711036
2015-05-12,-0.10296028681097653
2015-05-13,0.3589607670432452
2015-05-14,0.031135765034545734
2015-05-15,-0.0030200387695071525
2015-05-18,0.17694061941350225
2015-05-19,-0.0033101173317680935
2015-05-20,0.020331760778694474
2015-05-21,-0.06537417274732724
2015-05-22,0.011442786069648077
2015-05-25,-0.26262369577565714
2015-05-26,0.0608240778212428
2015-05-27,-0.3475366374548947
2015-05-28,0.046168536643590545
2015-05-29,-0.03673413753151683
2015-06-01,0.07797018812804674
2015-06-02,-0.06568236148993147
2015-06-03,0.12748299602720659
2015-06-04,0.07164490136148993
2015-06-05,0.07671761781350697
2015-06-08,0.08684003152088252
2015-06-09,-0.1768246702562584
2015-06-10,0.028523718647765657
2015-06-11,-0.13589401448722593
2015-06-12,-0.042471042471042844
2015-06-15,-0.12114275079099343
2015-06-16,0.3066721117009889
2015-06-17,0.10453500707213431
2015-06-18,0.19069767441859975
2015-06-19,0.04583333333333585
2015-06-23,0.11227452001041242
2015-06-24,-0.011161043947927898
2015-06-25,-0.12442710702165535
2015-06-26,-0.16139185172232987
2015-06-29,-0.018274278215227455
2015-06-30,0.21716963563371
2015-07-01,-0.05278679205059409
2015-07-02,0.12201757403295913
2015-07-03,0.011779448621556977
2015-07-06,-0.09077744592270516
2015-07-07,-0.3564041087840556
2015-07-08,0.30032888495351184
2015-07-09,0.39702745631949093
2015-07-10,0.05793790275336788
2015-07-13,0.08037104946668858
2015-07-14,0.19505167651227778
2015-07-15,-0.5619116119235992
2015-07-16,-0.8016038410460709
2015-07-17,0.05721361239814658
2015-07-20,0.06968207523146565
2015-07-21,-0.18047321847673195
2015-07-22,0.3211372445384076
2015-07-23,0.30645377147739594
2015-07-24,-0.08986107726053952
2015-07-27,-0.08413203119085573
2015-07-28,-0.02851029538444269
2015-07-29,-0.22826617401004115
2015-07-30,0.11364049932671172
2015-07-31,-0.125944032662219
2015-08-03,-0.14232534421213394
2015-08-04,0.2791885373811912
2015-08-05,0.12504647704034336
2015-08-06,-0.18773094842821153
2015-08-07,0.18099547511312203
2015-08-10,0.1641124374277991
2015-08-11,0.07318096036904254
2015-08-12,0.4698072962636105
2015-08-13,0.20518889700265913
2015-08-14,-0.08128274055693138
2015-08-17,0.06528055898768798
2015-08-18,-0.420730869624944
2015-08-19,-0.7402510959627298
2015-08-20,-0.04280547346319493
2015-08-21,0.10548162388894307
2015-08-24,-0.12734260924131624
2015-08-25,0.387853370611992
2015-08-26,0.36696350806093453
2015-08-27,-0.13697964916474742
2015-08-28,0.0691434468524247
2015-08-31,-0.028361811598806422
2015-09-01,-0.2923158452570226
2015-09-02,-0.2200045568466638
2015-09-07,0.0015290519877643183
2015-09-08,-0.4000911369332416
2015-09-09,0.09224985540775602
2015-09-10,-0.012719959778784207
2015-09-11,0.07942583732057712
2015-09-14,0.2290619765494169
2015-09-15,0.21588061061745314
2015-09-16,-0.1501690004828621
2015-09-17,0.15919362778001586
2015-09-18,0.32645385512627795
2015-09-21,-0.12627339029779272
2015-09-22,0.05531003080219581
2015-09-23,0.09366453176389025
2015-09-24,-0.10293967852995634
2015-09-25,-0.4138528668134726
2015-09-28,-0.09054530031165482
2015-09-29,0.1416108428104067
2015-09-30,-0.0007847720821502063
2015-10-08,0.38848320096654576
2015-10-09,0.12159402450623932
2015-10-12,0.06070942455599583
2015-10-13,-0.10061367204224247
2015-10-14,0.09077411577926142
2015-10-15,-0.5604700762943591
2015-10-16,-0.07505780028624776
2015-10-19,0.019230180359493136
2015-10-20,-0.1533247454300088
2015-10-21,-0.07931285957377922
2015-10-22,0.21759540853725143
2015-10-23,0.18370967741935287
2015-10-26,-0.004283347476460341
2015-10-27,-0.0036682615630007215
2015-10-28,0.014436052989973738
2015-10-29,0.2600771651944362
2015-10-30,-0.15191056910568845
2015-11-02,-0.12094552039049013
2015-11-03,0.1094235033259448
2015-11-04,-0.04346754718841015
2015-11-05,-0.35204081632653145
2015-11-06,0.00041339396444387
2015-11-09,0.409792483997521
2015-11-10,0.10623306233062312
2015-11-11,0.09437702265371994
2015-11-12,-0.05843971054557108
2015-11-13,0.15083679778275502
2015-11-16,-0.418413173652693
2015-11-17,0.007115489874110564
2015-11-18,-0.040012445829300886
2015-11-19,0.2311715889515138
2015-11-20,-0.08955221363889541
2015-11-23,0.5209508938718623
2015-11-24,-0.1758608950228605
2015-11-25,0.03357305188990868
2015-11-26,0.008755002060531328
2015-11-27,0.024782483470505958
2015-11-30,-0.6231049408692513
2015-12-01,0.010336996740341046
2015-12-02,-0.1386847195357839
2015-12-03,-0.15147723881453418
2015-12-04,0.502075677147127
2015-12-07,0.37591437757590007
2015-12-08,0.10245317259705701
2015-12-09,0.11747259832366172
2015-12-10,0.04237556242969262
2015-12-11,-0.8817599860962197
2015-12-14,-0.3987603305785118
2015-12-15,-0.1678319316377893
2015-12-16,-0.08696488696488977
2015-12-17,0.07568993506493811
2015-12-18,0.4852495516111101
2015-12-21,0.3690476190476183
2015-12-22,0.11267605633802963
2015-12-23,0.1283575368681813
2015-12-24,-0.17161829134720927
2015-12-25,-0.331482167098609
2015-12-28,-0.22700216450216398
2015-12-29,-0.03821656050955628
2015-12-30,-0.15891221642948095
2015-12-31,0.08371722182849192
2016-01-04,0.539858482345151
2016-01-05,0.06818181818181923
2016-01-06,-0.0032035578336350873
2016-01-07,0.44501676069005375
2016-01-08,0.16061791689152727
2016-01-11,-0.4333073687490256
2016-01-12,0.1922390949857285
2016-01-13,0.045311168926848784
2016-01-14,-0.4309503301751405
2016-01-15,-0.20859897372104147
2016-01-18,0.02961073318216266
2016-01-19,-0.38891956968344155
2016-01-20,-0.023245889293334165
2016-01-21,-0.15814973480211886
2016-01-22,0.11952837140751729
2016-01-25,0.16942888266417577
2016-01-26,0.3349380504552846
2016-01-27,0.08142380422691634
2016-01-28,0.3018626110731374
2016-01-29,-0.040917578020801065
2016-02-01,-0.19566345056541504
2016-02-02,-0.15253890253889762
2016-02-03,-0.11921182266009486
2016-02-04,0.18398268398267809
2016-02-05,0.054915457130026775
2016-02-15,0.19107091587712044
2016-02-16,0.08036984352773596
2016-02-17,0.057142857142855275
2016-02-18,-0.4578088578088524
2016-02-19,-0.11413996492905776
2016-02-22,-0.12563018376971796
2016-02-23,-0.054887218045114546
2016-02-24,-0.05147058823529637
2016-02-25,0.47119856887299133
2016-02-26,0.15177923021059808
2016-02-29,0.38461538461538514
2016-03-01,0.11190476190476621
2016-03-02,0.1630090497737583
2016-03-03,-0.30425686006277325
2016-03-04,0.11358024691358261
2016-03-07,-0.2818181818181822
2016-03-08,0.1295518207282889
2016-03-09,0.01317285485876657
2016-03-10,0.05665645893579342
2016-03-11,-0.18370672097759577
2016-03-14,-0.276206959373293
2016-03-15,-0.2700990844098823
2016-03-16,-0.3146849311729536
2016-03-17,0.09276364633566984
2016-03-18,-0.02516901866737541
2016-03-21,0.24214997158496127
2016-03-22,-0.08523621210188437
2016-03-23,0.26970783404482745
2016-03-24,-0.23020796792783868
2016-03-25,-0.25967549710414356
2016-03-28,-0.19751964813612963
2016-03-29,0.06858650608650277
2016-03-30,-0.14721888184579082
2016-03-31,0.15554655870445538
2016-04-01,0.2813717495696246
2016-04-05,0.27634073258728586
2016-04-06,-0.027259959141973863
2016-04-07,0.011234662576689411
2016-04-08,-0.06605088881142132
2016-04-11,0.1389036251105273
2016-04-12,-0.1864625180019602
2016-04-13,0.19666499677949545
2016-04-14,0.23648255813953334
2016-04-15,0.05451342446088761
2016-04-18,-0.07890860395045643
2016-04-19,0.6843146286612222
2016-04-20,0.09944467114951659
2016-04-21,0.045874667967692545
2016-04-22,0.3255258573863557
2016-04-25,0.029312125593888433
2016-04-26,-0.7840225487284279
2016-04-27,-0.19345467885525056
2016-04-28,-0.35607664506747216
2016-04-29,-0.48265919129685186
2016-05-03,-0.26196372514823946
2016-05-04,0.2669052327588897
2016-05-05,-0.14470319973555004
2016-05-06,0.1865246888831255
2016-05-09,-0.02796129291581667
2016-05-10,0.20373700233546232
2016-05-11,-0.13868747240634008
2016-05-12,0.15965478565004723
2016-05-13,-0.04749710852169406
2016-05-16,0.2483180390145856
2016-05-17,-0.1000233857412843
2016-05-18,-0.03619716833195773
2016-05-19,0.19511122341590706
2016-05-20,-0.14542179776482278
2016-05-23,-0.09462223592638011
2016-05-24,0.04203794193734061
2016-05-25,0.050424710424709404
2016-05-26,-0.4150825749915765
2016-05-27,0.2677504976775047
2016-05-30,0.05533017603431174
2016-05-31,0.00787332691802946
2016-06-01,-0.06098214285714311
2016-06-02,0.162810405991332
2016-06-03,-0.3328002888757039
2016-06-06,-0.33074507564944206
2016-06-07,-0.05628881987577754
2016-06-08,0.30479166666666413
2016-06-13,0.1548084008842997
2016-06-14,0.2794622080496394
2016-06-15,0.31465983261922825
2016-06-16,0.3943584070796445
2016-06-17,0.01918050941307109
2016-06-20,-0.14079710144927404
2016-06-21,-0.06161042432341941
2016-06-22,0.01780683245722096
2016-06-23,-0.5468843138153956
2016-06-24,-0.24914750611273653
2016-06-27,0.0796467991169988
2016-06-28,-0.0007150857241324318
2016-06-29,0.2846461325344426
2016-06-30,0.30147450486659244
2016-07-01,0.21620355583945172
2016-07-04,0.17219717251420769
2016-07-05,0.32002202623123915
2016-07-06,-0.2340698154154728
2016-07-07,-0.05864323566808101
2016-07-08,-0.33560853981611083
2016-07-11,-0.13046364857687476
2016-07-12,-0.5419827212187751
2016-07-13,-0.21394801489055365
2016-07-14,-0.030695535873164346
2016-07-15,0.06618357487922741
2016-07-18,-0.389644531963702
2016-07-19,0.14741389513552206
2016-07-20,-0.062244754259961385
2016-07-21,-0.036882553862321456
2016-07-22,0.30208386930794373
2016-07-25,0.2925555786639242
2016-07-26,0.14691876750699998
2016-07-27,0.1392333252289459
2016-07-28,0.2691305254378614
2016-07-29,-0.40600989137153964
2016-08-01,0.06015307468989035
2016-08-02,-0.16372549019608013
2016-08-03,0.055042769047149304
2016-08-04,-0.371249690057026
2016-08-05,0.10532965095780836
2016-08-08,-0.13000000000000042
2016-08-09,0.06066019222060579
2016-08-10,0.31613705443492357
2016-08-11,0.1074882221671207
2016-08-12,0.10737464230272904
2016-08-15,0.11736894908452566
2016-08-16,0.06680591301198498
2016-08-17,-0.5079795035669046
2016-08-18,0.07962980037803451
2016-08-19,-0.09312191668189221
2016-08-22,0.03756004005499081
2016-08-23,-0.1397988160947129
2016-08-24,0.13960433191924382
2016-08-25,0.07413726457219899
2016-08-26,0.024277706890266506
2016-08-29,-0.08511640547150943
2016-08-30,0.1459339774557196
2016-08-31,0.06369515332730512
2016-09-01,-0.39676831692568576
2016-09-02,0.15590656317403326
2016-09-05,-0.22585123101100218
2016-09-06,-0.15304143702796588
2016-09-07,0.16622248281008506
2016-09-08,0.33314262661825395
2016-09-09,-0.19521950656692752
2016-09-12,0.47168192219679794
2016-09-13,0.25115507861986597
2016-09-14,-0.2737269497546959
2016-09-19,0.03448785899174057
2016-09-20,-0.008467194973940752
2016-09-21,-0.358900168110694
2016-09-22,-0.18941798941799082
2016-09-23,0.09270364817591381
2016-09-26,-0.11022556390977188
2016-09-27,0.11101504641265161
2016-09-28,0.0764819009944317
2016-09-29,0.03333333333333709
2016-09-30,-0.0666166916541729
2016-10-10,-0.08493827160493954
2016-10-11,-0.02940585101035556
2016-10-12,-0.09320617534582532
2016-10-13,-0.14843750000000203
2016-10-14,-0.03087355404866536
2016-10-17,0.05443322109989018
2016-10-18,0.004035216434340044
2016-10-19,0.1530367231638407
2016-10-20,0.11782525510204328
2016-10-21,0.33384838242395265
2016-10-24,0.050505050505044204
2016-10-25,-0.03822574828705577
2016-10-26,0.07399425287356531
2016-10-27,0.014864213401892555
2016-10-28,-0.41410526315790136
2016-10-31,0.014492753623199454
2016-11-01,-0.05924132364810475
2016-11-02,-0.08967294703163992
2016-11-03,0.16959418534221726
2016-11-04,0.33200000000000884
2016-11-07,0.05064134599366238
2016-11-08,0.23446385748544013
2016-11-09,0.40788883908561047
2016-11-10,-0.1010989010988986
2016-11-11,-0.06258113062976604
2016-11-14,0.4521774371878996
2016-11-15,-0.17845441029622172
2016-11-16,-0.5790980546107688
2016-11-17,-0.14291935945222584
2016-11-18,-0.15470201175976322
2016-11-21,-1.0051587590269788
2016-11-22,0.03713018154363264
2016-11-23,0.07938790968323461
2016-11-24,0.2580553183838025
2016-11-25,0.01665814238952497
2016-11-28,0.6572283297140777
2016-11-29,-0.08101600491006061
2016-11-30,0.14916666666666512
2016-12-01,-0.12866752540432122
2016-12-02,-0.002501684636118738
2016-12-05,-0.20881772721016703
2016-12-06,0.043538993130147224
2016-12-07,-0.14034431137724449
2016-12-08,0.03870639164757026
2016-12-09,0.07023511837105927
2016-12-12,-0.11892115154268454
2016-12-13,0.09369859094485815
2016-12-14,0.23693522046815108
2016-12-15,-0.1115355233002317
2016-12-16,-0.044499738082766804
2016-12-19,0.12000968866512511
2016-12-20,0.08327098608409272
2016-12-21,-0.058295153122735144
2016-12-22,-0.02180824136883642
2016-12-23,0.05310559006211216
2016-12-26,0.1270180333347873
2016-12-27,-0.2650390028592855
2016-12-28,-0.2784607305874613
2016-12-29,0.046162427487728905
2016-12-30,-0.03259902091677678
2017-01-03,-0.18183765260227114
2017-01-04,0.14969317547883407
2017-01-05,0.1809544483035001
2017-01-06,0.028931390406802628
2017-01-09,-0.0995782873055477
2017-01-10,0.0789328264185148
2017-01-11,-0.12773848968893986
2017-01-12,0.004615664655711907
2017-01-13,-0.09810350369656512
2017-01-16,0.2283779161250602
2017-01-17,0.05182886040724392
2017-01-18,0.0721498456547899
2017-01-19,0.06562427342478469
2017-01-20,-0.01745903840988214
2017-01-23,-0.22661186331399297
2017-01-24,-0.1170918929121943
2017-01-25,0.1508563899868324
2017-01-26,-0.10952941176470735
2017-02-03,0.10833854373898533
2017-02-06,0.2053527074018901
2017-02-07,0.10532816625237292
2017-02-08,-0.29823413996076464
2017-02-09,-0.04125321888411895
2017-02-10,0.06662163466177703
2017-02-13,0.005723572639909719
2017-02-14,-0.010386242858567846
2017-02-15,0.2417184123423695
2017-02-16,0.15119688085595084
2017-02-17,-0.13480747235988796
2017-02-20,-0.321240421455939
2017-02-21,-0.01107720321693927
2017-02-22,-0.20158703918003135
2017-02-23,-0.16305257286291952
2017-02-24,0.17530292230933261
2017-02-27,0.22913295577130635
2017-02-28,0.0051118607587047485
2017-03-01,0.19216166564605586
2017-03-02,0.014547507382318928
2017-03-03,0.32119307644755646
2017-03-06,-0.011113949923355545
2017-03-07,-0.04519295870006921
2017-03-08,-0.10745957224831199
2017-03-09,0.20043552938289322
2017-03-10,-0.6674663683730219
2017-03-13,0.027002747833443586
2017-03-14,0.03957528957529804
2017-03-15,-0.00527065527064953
2017-03-16,0.13918611508973242
2017-03-17,0.09337474120083006
2017-03-20,-0.16836577077541284
2017-03-21,-0.008062684533279815
2017-03-22,0.10137942226549325
2017-03-23,-0.7192435078961288
2017-03-24,0.20632603406326
2017-03-27,0.2914704343275786
2017-03-28,0.004201680672270419
2017-03-29,-0.08831149603967334
2017-03-30,0.48430374885998206
2017-03-31,-0.12562427967729733
2017-04-05,-0.31758629377677006
2017-04-06,-0.02919708029197404
2017-04-07,0.42021720969089066
2017-04-10,1.1915011396939252
2017-04-11,0.062363939044693284
2017-04-12,0.31576677078685167
2017-04-13,0.09766181058243106
2017-04-14,-0.4861230746769818
2017-04-17,-1.5563855701194895
2017-04-18,-5.494074248462745e-05
2017-04-19,-0.23812309942646087
2017-04-20,-0.15150971298942095
2017-04-21,0.11778714050192393
2017-04-24,0.14657206657903485
2017-04-25,-0.02785923753665935
2017-04-26,-0.0668412022245895
2017-04-27,0.06142336107734536
2017-04-28,-0.15523819451683352
2017-05-02,0.15634474816085972
2017-05-03,-0.08708133971291086
2017-05-04,1.0552832244008632
2017-05-05,0.18700623700623475
2017-05-08,0.1887022956439268
2017-05-09,0.038097133757961116
2017-05-10,0.1611637790127415
2017-05-11,-1.2818340829585095
2017-05-12,-0.27854078466503357
2017-05-15,0.015955735710174723
2017-05-16,0.0034270116367085927
2017-05-17,-0.07499865990475027
2017-05-18,0.4473640630665011
2017-05-19,0.13557769394409605
2017-05-22,-0.1246929252185981
2017-05-23,-0.05134367830337366
2017-05-24,0.18818016439060758
2017-05-25,-0.08969138020521229
2017-05-26,-0.14376043679757042
2017-05-31,0.05263157894736722
2017-06-01,0.0892857142857097
2017-06-02,-0.33271848924023184
2017-06-05,0.0993532159540101
2017-06-06,0.2013389121338912
2017-06-07,-0.060185185185186486
2017-06-08,-0.10673234811165716
2017-06-09,0.36258924321751473
2017-06-12,-0.20486045187013835
2017-06-13,-0.09980198019801789
2017-06-14,0.13089225589225909
2017-06-15,0.3326982061529914
2017-06-16,-0.33228621291448207
2017-06-19,0.0708953831224598
2017-06-20,-0.02504106912933595
2017-06-21,-0.1317399345568389
2017-06-22,-0.3885849056603783
2017-06-23,0.04858757062146846
2017-06-26,0.047008547008545294
2017-06-27,0.03249737031500801
2017-06-28,0.17978286384976633
2017-06-29,-0.14756983240223592
2017-06-30,0.11504879301489108
2017-07-03,0.036764705882347246
2017-07-04,0.4591541896506467
2017-07-05,-0.09914215686274651
2017-07-06,0.3779544477868523
2017-07-07,0.10331765935214353
2017-07-10,0.5677980317602399
2017-07-11,-0.41600282343450945
2017-07-12,0.07464503042596589
2017-07-13,-0.13429217840982777
2017-07-14,-0.11006608580078149
2017-07-17,-0.8974497669312903
2017-07-18,-0.21127905998485594
2017-07-19,-0.3325200215776611
2017-07-20,0.05208291847544674
2017-07-21,-0.1107105671571429
2017-07-24,0.24263577300729813
2017-07-25,0.11169030399799769
2017-07-26,0.448494420741715
2017-07-27,0.11705938633380011
2017-07-28,0.02593147350683507
2017-07-31,-0.019313961109898782
2017-08-01,0.05009147999801951
2017-08-02,-0.3673701298701299
2017-08-03,-0.3366754197501376
2017-08-04,0.00566893424036264
2017-08-07,0.49603580562659555
2017-08-08,0.05992870218710954
2017-08-09,0.33536067892503235
2017-08-10,0.3587095855291257
2017-08-11,0.17741935483870944
2017-08-14,-0.41688592369855165
2017-08-15,0.0885097220409779
2017-08-16,-0.27625703746844893
2017-08-17,-0.05425648520277579
2017-08-18,-0.1635304659498204
2017-08-21,0.025197944158912522
2017-08-22,-0.2193826897847756
2017-08-23,0.13188536953242577
2017-08-24,-0.3918219461697719
2017-08-25,-0.04030054644808832
2017-08-28,-0.03031832298136671
2017-08-29,0.16519140989728895
2017-08-30,0.03640178003814488
2017-08-31,0.27767052767052486
2017-09-01,0.10889029003783116
2017-09-04,-0.10184256286784427
2017-09-05,-0.22493314891654947
2017-09-06,-0.19219915339649013
2017-09-07,0.05725010725011014
2017-09-08,-0.05833668948852093
2017-09-11,0.03251341228869538
2017-09-12,0.21296140838989902
2017-09-13,0.03499469777306005
2017-09-14,-0.13849206349206605
2017-09-15,0.005607160952539523
2017-09-18,-0.16692321460534
2017-09-19,0.20365756428144716
2017-09-20,0.09375924282756838
2017-09-21,0.4354890604890637
2017-09-22,0.04073182474723667
2017-09-25,0.2121802363329495
2017-09-26,-0.18724137931035012
2017-09-27,0.03949357520786077
2017-09-28,-0.5483735948337729
2017-09-29,-0.03678329663160387
2017-10-09,0.1704458319640696
2017-10-10,-0.3664077669902904
2017-10-11,-0.07350718065003978
2017-10-12,0.20425150071167802
2017-10-13,0.08392688901451717
2017-10-16,-0.24174707973590542
2017-10-17,0.47926490984743336
2017-10-18,-0.0147052833109266
2017-10-19,-0.1202360139860176
2017-10-20,-0.03409693754521932
2017-10-23,0.2133580705009226
2017-10-24,-0.28982683982684254
2017-10-25,0.03520475826869628
2017-10-26,0.11300675675676355
2017-10-27,0.15994743511522375
2017-10-30,-0.1506975671624535
2017-10-31,0.03883016208597855
2017-11-01,0.09930400198856876
2017-11-02,0.12883646358222134
2017-11-03,-0.38692443821162936
2017-11-06,0.06551566831596085
2017-11-07,0.23179222949450148
2017-11-08,-0.12320483749055369
2017-11-09,-0.26190900981266574
2017-11-10,0.2291254570520924
2017-11-13,-0.11913842577457898
2017-11-14,-0.32014950989740254
2017-11-15,0.05300030459944426
2017-11-16,0.14821359969265913
2017-11-17,-0.14440619621342674
2017-11-20,0.20283908696472125
2017-11-21,0.24721623974705695
2017-11-22,-0.10383501494630183
2017-11-23,-0.08189945170430338
2017-11-24,0.16334434510081983
2017-11-27,-0.32779260600814186
2017-11-28,-0.2260661587707105
2017-11-29,0.6471035209013795
2017-11-30,0.4987113189046793
2017-12-01,0.03165885797413192
2017-12-04,0.38524810058717873
2017-12-05,0.1006988469863332
2017-12-06,-0.6414688400247944
2017-12-07,-0.5402721774193507
2017-12-08,-0.1285435757457581
2017-12-11,-0.26061501733643516
2017-12-12,0.03957326045827089
2017-12-13,-0.0418347844552973
2017-12-14,0.2793402777777739
2017-12-15,0.07612797374897237
2017-12-18,-0.027899962297349812
2017-12-19,0.0005385443914475273
2017-12-20,0.07196177963570975
2017-12-21,-0.5607565011820265
2017-12-22,-0.07140533506831707
2017-12-25,0.3893710223985346
2017-12-26,-0.085886452737049
2017-12-27,0.02295800646054625
2017-12-28,0.5225136071251835
2017-12-29,0.06351161154117446
2018-01-02,-0.5192792792792669
2018-01-03,0.20200148257969563
2018-01-04,0.2475334742776574
2018-01-05,-0.13953488372093165
2018-01-08,-0.0077499354172084894
2018-01-09,0.22749999999999784
2018-01-10,-0.17588274483677546
2018-01-11,-0.370501565788795
2018-01-12,0.17054263565891375
2018-01-15,0.20588481850951235
2018-01-16,0.05597826086956369
2018-01-17,0.07034546413502221
2018-01-18,0.22691363835008538
2018-01-19,-0.30199803471994807
2018-01-22,-0.4942187220332904
2018-01-23,-0.09571706683971198
2018-01-24,0.044824475065612615
2018-01-25,0.11731113765302963
2018-01-26,0.22961490826348935
2018-01-29,0.3036086365695344
2018-01-30,0.20441271901362515
2018-01-31,-0.10860199078888444
2018-02-01,-0.4289215686274494
2018-02-02,-0.23828689773748649
2018-02-05,0.5868818539209564
2018-02-06,-0.03290785799760379
2018-02-07,0.06232601299102826
2018-02-08,0.3943921568627441
2018-02-09,0.21229233698863947
2018-02-12,-0.8071225071225057
2018-02-13,-0.250218435998255
2018-02-14,-0.02915637398008737
2018-02-22,-0.30620183486238617
2018-02-23,-0.15237885219692437
2018-02-26,0.22719141323792696
2018-02-27,0.046682718031035644
2018-02-28,0.09045578059781004
2018-03-01,0.14220183486238955
2018-03-02,0.17060938396930825
2018-03-05,-0.13332931678515925
2018-03-06,0.06702828361099859
2018-03-07,-0.15606500914864024
2018-03-08,0.006289308176093767
2018-03-09,-0.16539548022599682
2018-03-12,0.2808780282873603
2018-03-13,-0.01704433497536611
2018-03-14,0.016921000726667842
2018-03-15,-0.11878930817609425
2018-03-16,0.01161971830986587
2018-03-19,-0.2049888234098789
2018-03-20,0.06505494505494341
2018-03-21,0.053254437869828405
2018-03-22,0.4930970149253662
2018-03-23,0.11202893033878925
2018-03-26,-0.10115494922874445
2018-03-27,-0.019004524886877254
2018-03-28,0.04069767441859941
2018-03-29,-0.4420495288918507
2018-03-30,-0.07245817245817666
2018-04-02,0.09932109630374891
2018-04-03,-0.018014705882352468
2018-04-04,-0.06585490712300883
2018-04-09,-0.19661200216254857
2018-04-10,-0.06314699792960185
2018-04-11,-0.07084785133565419
2018-04-12,0.18519736842104711
2018-04-13,0.034085804132981505
2018-04-16,0.44390522409363176
2018-04-17,0.0944192083062922
2018-04-18,0.28042328042327674
2018-04-19,-0.0789473684210467
2018-04-20,-0.04301948051948736
2018-04-23,-0.19172306090577773
2018-04-24,0.028040272012720115
2018-04-25,-0.2708994708994673
2018-04-26,-0.2874999999999982
2018-04-27,0.05716783216783773
2018-05-02,0.013401149933657354
2018-05-03,0.0913627130619023
2018-05-04,0.04279443355758279
2018-05-07,0.17651346742215038
2018-05-08,-0.15787706962117742
2018-05-09,0.017049390963231256
2018-05-10,-0.3279739548781589
2018-05-11,0.004458313695161198
2018-05-14,0.020986532577844545
2018-05-15,0.42192885941553687
2018-05-16,-0.13226049564802267
2018-05-17,0.2959358694432694
2018-05-18,0.03846153846153928
2018-05-21,0.0923622047244084
2018-05-22,-0.4657001414427141
2018-05-23,0.10769230769231043
2018-05-24,-0.15569715142428756
2018-05-25,0.0
2018-05-28,-0.07458442694662447
2018-05-29,0.19658944658944655
2018-05-30,-0.01769911504424812
2018-05-31,0.1059146102624395
2018-06-01,0.06034482758621091
2018-06-04,-0.14159891598916585
2018-06-05,0.09207372510125034
2018-06-06,0.06728589190375342
2018-06-07,-0.09228913953323875
2018-06-08,0.12973781704189005
2018-06-11,0.40548780487805297
2018-06-12,-0.13697346354937517
2018-06-13,-0.0551116387379601
2018-06-14,0.2750218722659674
2018-06-15,-0.24438128716203858
2018-06-19,-0.33472886762360576
2018-06-20,0.006881720430103242
2018-06-21,-0.025087383019502207
2018-06-22,-0.41725146198830465
2018-06-25,-0.02362343538814206
2018-06-26,-0.30200822157827617
2018-06-27,0.06301075268817644
2018-06-28,0.07184935830001421
2018-06-29,0.22907764460656801
2018-07-02,0.09696969696969934
2018-07-03,0.4852573384230654
2018-07-04,-0.018420588753743954
2018-07-05,-0.12123711340205456
2018-07-06,-0.1526474386569104
2018-07-09,-0.058263305322124655
2018-07-10,-0.14018691588785187
2018-07-11,-0.06540649046504218
2018-07-12,0.23957446808510358
2018-07-13,0.10386916633426148
2018-07-16,0.029956427015248095
2018-07-17,0.01869158878504712
2018-07-18,0.371091555888412
2018-07-19,-0.17336757153338234
2018-07-20,0.1560274587797558
2018-07-23,0.021454381210473127
2018-07-24,-0.10302893818263578
2018-07-25,-0.619748913568327
2018-07-26,-0.10657726692209415
2018-07-27,-0.2942215679057822
2018-07-30,-0.04923215898825768
2018-07-31,0.05869632375656222
2018-08-01,0.4078947368421068
2018-08-02,0.17919389978214004
2018-08-03,0.11403508771930361
2018-08-06,0.1634738186462431
2018-08-07,0.04604918890632707
2018-08-08,-0.14842105263157665
2018-08-09,-0.08975136446331972
2018-08-10,0.0014184397163121074
2018-08-13,-0.2033598585322835
2018-08-14,0.44387755102041604
2018-08-15,0.14382113821138295
2018-08-16,0.717059221912863
2018-08-17,0.1574560191581461
2018-08-20,0.09615384615385045
2018-08-21,-0.5586253369272273
2018-08-22,-0.1846544715447165
2018-08-23,-0.9507053778927052
2018-08-24,-0.28407771090698464
2018-08-27,-0.04821627647714215
2018-08-28,0.05702618980569501
2018-08-29,0.2568798449612334
2018-08-30,0.10117529822093996
2018-08-31,0.2991615853658599
2018-09-03,0.20021838395869918
2018-09-04,0.19520816967791862
2018-09-05,-0.26685459243598153
2018-09-06,0.11944264885440423
2018-09-07,-0.19234913793103972
2018-09-10,-0.2439601494396003
2018-09-11,-0.3801169590643278
2018-09-12,0.20685850097614364
2018-09-13,0.11858290962769226
2018-09-14,0.03089080459770515
2018-09-17,0.015989684074790678
2018-09-18,0.22974101921470827
2018-09-19,-0.26784146494418126
2018-09-20,0.14276443867618516
2018-09-21,0.19940476190475903
2018-09-25,0.044616376531275
2018-09-26,0.17039531343696307
2018-09-27,0.17824937810944996
2018-09-28,-0.35306969630763035
2018-10-08,-0.24833887043189054
2018-10-09,-0.006628787878789814
2018-10-10,-0.31804149896447814
2018-10-11,-0.09571759259259333
2018-10-12,0.19867051794405433
2018-10-15,-0.019121447028427357
2018-10-16,0.09192073170731543
2018-10-17,0.2689152673229115
2018-10-18,0.2740243599303993
2018-10-19,-0.06851698786270821
2018-10-22,0.03333333333333694
2018-10-23,-0.12022955523672627
2018-10-24,-0.2584175084175111
2018-10-25,-0.3282402779761022
2018-10-26,-0.002475138121543082
2018-10-29,0.1845878136200684
2018-10-30,0.31848739495797557
2018-10-31,0.18019142738243998
2018-11-01,0.04930405431031219
2018-11-02,0.030857142857141355
2018-11-05,-0.11960051073458935
2018-11-06,-0.49379010762700914
2018-11-07,-0.03111257193856336
2018-11-08,0.06959788023032805
2018-11-09,0.0025049589275164125
2018-11-12,0.01741389025397158
2018-11-13,0.2354334316232816
2018-11-14,0.006357225798661381
2018-11-15,0.10149148175803419
2018-11-16,-0.042407556330113574
2018-11-19,-0.06152771850875353
2018-11-20,-0.05498806308951129
2018-11-21,0.07419354838708914
2018-11-22,-0.2091909662664398
2018-11-23,-0.07156214039125366
2018-11-26,-0.06254014129736728
2018-11-27,0.126531552280061
2018-11-28,-0.24184397163120158
2018-11-29,0.2923553719008266
2018-11-30,0.05388537271448412
2018-12-03,0.262689848121508
2018-12-04,-0.05992402659070029
2018-12-05,0.12979577886012642
2018-12-06,-0.38520459584760935
2018-12-07,0.06502525252525329
2018-12-10,-0.1213499788404625
2018-12-11,-0.08102938619369762
2018-12-12,0.004585506203909618
2018-12-13,0.2402347331743966
2018-12-14,-0.030303030303030137
2018-12-17,-0.2527507405840024
2018-12-18,0.019974391805373387
2018-12-19,-0.05857504928188586
2018-12-20,0.2579175210754271
2018-12-21,0.0
2018-12-24,0.22413696949417566
2018-12-25,0.0287300485773757
2018-12-26,0.15065312046444723
2018-12-27,-0.23210831721471226
2018-12-28,0.23841059602648762
2019-01-02,0.03262446627699522
2019-01-03,0.26273562860258337
2019-01-04,0.061726078799236805
2019-01-07,-0.12411347517730142
2019-01-08,-0.18223082074558716
2019-01-09,-0.055220540827550964
2019-01-10,-0.3729591836734638
2019-01-11,-0.24350745531746218
2019-01-14,-0.009588779696595363
2019-01-15,-0.3145529810225305
2019-01-16,0.09096316632349762
2019-01-17,0.07023809523809009
2019-01-18,0.02841599190283421
2019-01-21,0.19029704758178634
2019-01-22,0.2881351105035357
2019-01-23,-0.22259929144135865
2019-01-24,0.05433045701502907
2019-01-25,-0.011250000000000607
2019-01-28,0.1550919171286872
2019-01-29,0.0719330104923328
2019-01-30,0.22590781087890688
2019-01-31,0.049892364188924766
2019-02-01,0.15589285714286008
2019-02-11,-0.5896626375608904
2019-02-12,-0.21546737034406122
2019-02-13,-0.10744975744974995
2019-02-14,-0.00143135979179565
2019-02-15,-0.11510854341737525
2019-02-18,0.5179382956502128
2019-02-19,0.1530982977864542
2019-02-20,0.0959459459459389
2019-02-21,-0.030046785652406004
2019-02-22,0.03431372549020365
2019-02-25,-0.3044804128548011
2019-02-26,-0.017586712261848953
2019-02-27,-0.20333525014375822
2019-02-28,-0.03122318911631172
2019-03-01,0.0846565620113024
2019-03-04,0.4060960591133046
2019-03-05,-0.026068134763787533
2019-03-06,0.1798334875115604
2019-03-07,-0.10547268695827074
2019-03-08,-0.08440576401768939
2019-03-11,-0.4947429906542071
2019-03-12,0.021471861471864633
2019-03-13,-0.13082559843673222
2019-03-14,0.20303366256802619
2019-03-15,0.04934390022086897
2019-03-18,0.10737668049377912
2019-03-19,-0.1327497935590467
2019-03-20,0.13093926709260623
2019-03-21,0.07002726859566875
2019-03-22,-0.18907776416813912
2019-03-25,-0.0063836898395780994
2019-03-26,0.19043686838897864
2019-03-27,-0.058616695623401174
2019-03-28,-0.3334652055228086
2019-03-29,0.39053887289181766
2019-04-01,0.11211419753086845
2019-04-02,-0.10477005173327111
2019-04-03,0.11744022503515972
2019-04-04,0.0886411889596598
2019-04-08,-0.482517482517487
2019-04-09,-0.02292768959436036
2019-04-10,0.10080626149276432
2019-04-11,-0.27287581699345914
2019-04-12,0.20614035087719704
2019-04-15,0.41605113636364055
2019-04-16,0.0317985914012455
2019-04-17,-0.09634384873865394
2019-04-18,0.1879084967320238
2019-04-19,-0.26293440607889434
2019-04-22,-0.2611689814814867
2019-04-23,-0.05586413159581205
2019-04-24,0.15662524798997488
2019-04-25,0.024580846831485075
2019-04-26,0.18840325060400076
2019-04-29,0.035428849902534185
2019-04-30,-0.03904338153504498
2019-05-06,-0.28443221251645323
2019-05-07,-0.09382808595702145
2019-05-08,-0.057284871077978555
2019-05-09,0.21293268803483967
2019-05-10,0.10645075446652594
2019-05-13,0.12890740638874185
2019-05-14,0.1293690555403382
2019-05-15,0.09609120580907614
2019-05-16,-0.33143701848120616
2019-05-17,0.13053984114475847
2019-05-20,0.030787521554362193
2019-05-21,-0.23276242255109947
2019-05-22,-0.21394786844185754
2019-05-23,0.1731039705723199
2019-05-24,-0.44453004622495457
2019-05-27,-0.006410256410263149
2019-05-28,0.16948532103374472
2019-05-29,0.2392252222035916
2019-05-30,0.12276612276613584
2019-05-31,0.3073547215496245
2019-06-03,0.14529914529915497
2019-06-04,-0.0006004460456227462
2019-06-05,-0.05396538997785334
2019-06-06,0.12385928247996206
2019-06-10,0.04876373626375026
2019-06-11,-0.13022376841472313
2019-06-12,0.13107728683315653
2019-06-13,-0.0884370790388847
2019-06-14,-0.27287152883734944
2019-06-17,-0.0033165033165069163
2019-06-18,-0.08532331076872303
2019-06-19,-0.20235423542354553
2019-06-20,0.3057438530343769
2019-06-21,-0.02625692891179641
2019-06-24,-0.14372993683338597
2019-06-25,0.1836082577709362
2019-06-26,0.12888888888889258
2019-06-27,-0.43731709619560016
2019-06-28,0.0078114656427935095
2019-07-01,0.11197318007662904
2019-07-02,-0.21178552073703036
2019-07-03,0.13834061135370943
2019-07-04,0.12218963831867011
2019-07-05,-0.049676317209137726
2019-07-08,-0.13180272108843635
2019-07-09,0.08961462416316486
2019-07-10,-0.6183406113537119
2019-07-11,0.06905615292712121
2019-07-12,0.16495758616987163
2019-07-15,0.04680272108843972
2019-07-16,0.14579687405709518
2019-07-17,0.7072289156626532
2019-07-18,0.40815838880354544
2019-07-19,0.17406843755764287
2019-07-22,0.307996589940318
2019-07-23,-0.09307412572116508
2019-07-24,-0.3473818793337801
2019-07-25,-0.559301962656283
2019-07-26,-0.3779216814931075
2019-07-29,-0.5637133429627736
2019-07-30,-0.17387607456567375
2019-07-31,-0.0677308537562587
2019-08-01,0.3168627814324126
2019-08-02,0.3153780318872054
2019-08-05,0.788919367401538
2019-08-06,0.2536081505438701
2019-08-07,0.285489995033565
2019-08-08,-0.25272588638963334
2019-08-09,-0.22022669599052852
2019-08-12,-0.7502635462787274
2019-08-13,-0.007530507551070403
2019-08-14,0.04744690095008619
2019-08-15,0.08683978748188843
2019-08-16,-0.031040843214755448
2019-08-19,0.2526881720430107
2019-08-20,-0.28840504070105016
2019-08-21,-0.598443636496178
2019-08-22,-0.22809287528786268
2019-08-23,0.03496503496503184
2019-08-26,0.6226183738917198
2019-08-27,0.2878826944746831
2019-08-28,0.47700501577124044
2019-08-29,0.3907698749775693
2019-08-30,0.19413919413919717
2019-09-02,-0.8431776934499269
2019-09-03,-0.1354721135552274
2019-09-04,0.11342408172242671
2019-09-05,-0.26547307132459874
2019-09-06,-0.021016154109679774
2019-09-09,0.5423197492162992
2019-09-10,0.08230709968692039
2019-09-11,-0.3389897590659485
2019-09-12,0.060707070707068544
2019-09-16,-0.31755874073120005
2019-09-17,-0.6743265501301713
2019-09-18,-0.21735596144594319
2019-09-19,0.19972899728997362
2019-09-20,-0.046652087889199306
2019-09-23,0.40569316469887484
2019-09-24,0.3835168551993679
2019-09-25,0.2444818162707577
2019-09-26,0.0161556860186986
2019-09-27,0.2972032163473038
2019-09-30,-0.34688811465674196
2019-10-08,-0.059423503325942664
2019-10-09,-0.10116086235489054
2019-10-10,-0.2633965510447991
2019-10-11,-0.4460056739126483
2019-10-14,0.037292084463842856
2019-10-15,-0.021810118927633956
2019-10-16,0.025976439640871866
2019-10-17,0.12130444702169288
2019-10-18,0.12474747474747319
2019-10-21,0.11294063079777454
2019-10-22,0.20382231404958323
2019-10-23,-0.17834631071560675
2019-10-24,-0.019365475528996624
2019-10-25,0.32471264367816405
2019-10-28,0.0888167388167394
2019-10-29,-0.25116995073891324
2019-10-30,0.22343795408311592
2019-10-31,0.15680983004133914
2019-11-01,-0.414681418073167
2019-11-04,-0.34874095058231447
2019-11-05,0.06685176892073341
2019-11-06,0.19704611674872125
2019-11-07,-0.10999577345730926
2019-11-08,0.5509456122600563
2019-11-11,0.2516649271905023
2019-11-12,0.03883945841392803
2019-11-13,-0.34646373520399765
2019-11-14,-0.0006975021080057146
2019-11-15,-0.6065646436211796
2019-11-18,-0.11052683031144164
2019-11-19,0.08343953010318063
2019-11-20,0.013568600521228574
2019-11-21,-0.017427390176709058
2019-11-22,0.09424100440932504
2019-11-25,0.21212079576983367
2019-11-26,-0.29633709535871927
2019-11-27,0.06784254992758189
2019-11-28,-0.012889186474723667
2019-11-29,0.11195286195286247
2019-12-02,-0.22997013844900982
2019-12-03,0.08247422680412256
2019-12-04,0.2701749155237468
2019-12-05,0.2959637692674379
2019-12-06,0.11531986531986574
2019-12-09,0.34852187623177094
2019-12-10,0.12153214315648304
2019-12-11,-0.46861715428856776
2019-12-12,-0.2849175974380964
2019-12-13,0.13708938620599145
2019-12-16,-0.39739918176505096
2019-12-17,0.005337932167200547
2019-12-18,0.23688957953774062
2019-12-19,-0.052870420995081276
2019-12-20,-0.49658589338933024
2019-12-23,0.1416973552058895
2019-12-24,0.2792149133612556
2019-12-25,0.01538268664201108
2019-12-26,0.27342444913017866
2019-12-27,0.3437724985794606
2019-12-30,-0.07335718800564353
2019-12-31,-0.29638590444356866
2020-01-02,0.5204451076782111
2020-01-03,-0.16233220238428106
2020-01-06,0.04382107118369882
2020-01-07,0.23889531762144572
2020-01-08,0.1480328745215162
2020-01-09,-0.651957212775223
2020-01-10,-0.08937484556461675
2020-01-13,-0.21021924546072887
2020-01-14,-0.19735042735042643
2020-01-15,-0.37270359932936226
2020-01-16,-0.1447126178067848
2020-01-17,0.05142282265018788
2020-01-20,0.04488673314545701
2020-01-21,-0.13467289719626183
2020-01-22,0.34491505580560566
2020-01-23,0.12656459965876654
2020-02-03,0.07303974221267455
2020-02-04,-0.023214285714282808
2020-02-05,0.15218247574032287
2020-02-06,-0.3704476033834604
2020-02-07,0.12531951275407047
2020-02-10,-0.19109311740891047
2020-02-11,-0.03928571428571523
2020-02-12,0.06582375478927023
2020-02-13,0.3494476512738842
2020-02-14,-0.09652380372580185
2020-02-17,0.21393323657475105
2020-02-18,0.20071010860484095
2020-02-19,-0.10014260249554155
2020-02-20,0.011803231494478345
2020-02-21,0.2184385382059753
2020-02-24,0.013814016172506632
2020-02-25,0.1359409452593276
2020-02-26,0.06347593582887452
2020-02-27,0.10057615931084593
2020-02-28,0.33528493364559697
2020-03-02,-0.07819514127277918
2020-03-03,-0.2752120358438001
2020-03-04,-0.03298850574712423
2020-03-05,-0.3843913803145018
2020-03-06,-0.8971896955503565
2020-03-09,0.6733356564952647
2020-03-10,0.13086198997407142
2020-03-11,0.01850420081439081
2020-03-12,0.40845257021727455
2020-03-13,0.46109515104030946
2020-03-16,-1.0423209663503066
2020-03-17,-0.3556499541302715
2020-03-18,0.5475554659814263
2020-03-19,-0.23683635091401792
2020-03-20,0.18722076069023708
2020-03-23,0.48884711779448553
2020-03-24,0.4406672418751797
2020-03-25,-0.6735059436573874
2020-03-26,-0.11411114830934328
2020-03-27,-0.4171352202758807
2020-03-30,0.040131956397016694
2020-03-31,-0.2586528048516385
2020-04-01,-0.0004907252919800764
2020-04-02,0.2696148678907311
2020-04-03,0.14272020073065209
2020-04-07,-0.3412971033068435
2020-04-08,0.1454574232352065
2020-04-09,0.12014383674164418
2020-04-10,-0.3168618847092968
2020-04-13,0.2608330013721097
2020-04-14,0.20247083047357284
2020-04-15,0.0940616096866072
2020-04-16,0.1714151553219309
2020-04-17,0.33580317733480103
2020-04-20,-0.26235294117647356
2020-04-21,-0.10218813444619575
2020-04-22,-0.20743264411027634
2020-04-23,-0.12676894233022895
2020-04-24,-0.32758678971030764
2020-04-27,0.003188405797101855
2020-04-28,0.15126978284872905
2020-04-29,-0.06750282786612383
2020-04-30,-0.18285444082257055
2020-05-06,0.2855925856045926
2020-05-07,-0.05915331807780108
2020-05-08,0.009569377990431976
2020-05-11,0.9346328200319457
2020-05-12,0.14515663656361794
2020-05-13,-0.20290581776273253
2020-05-14,0.18514006824890208
2020-05-15,0.04730772445062999
2020-05-18,-0.9830188074683266
2020-05-19,0.10242481172205738
2020-05-20,0.2120615153457296
2020-05-21,-0.016092449201285233
2020-05-22,-0.22752351336207213
2020-05-25,0.01615076048804992
2020-05-26,-0.0741267174914925
2020-05-27,-0.18899094272228684
2020-05-28,-0.025471158210486497
2020-05-29,-0.024157749804003315
2020-06-01,0.23974677969833763
2020-06-02,-0.12525223337908573
2020-06-03,0.10477821052356545
2020-06-04,-0.18903140435232607
2020-06-05,0.0841675728063531
2020-06-08,-0.13190748587085654
2020-06-09,0.08387408233590174
2020-06-10,-0.2826469314351361
2020-06-11,0.2737848464849082
2020-06-12,0.2948055598635241
2020-06-15,0.12476032666587748
2020-06-16,0.09341605147933993
2020-06-17,0.28256099557884407
2020-06-18,-0.24949253624099493
2020-06-19,-0.4306462995424231
2020-06-22,-0.19295410471881022
2020-06-23,-0.14864203572302487
2020-06-24,-0.12752049282581032
2020-06-29,0.14118551656647452
2020-06-30,0.09106354060482533
2020-07-01,0.18417582417582465
2020-07-02,0.12689434671025193
2020-07-03,0.19801784380081724
2020-07-06,-0.036856024542472735
2020-07-07,0.12618325521551468
2020-07-08,-0.1926923076923094
2020-07-09,-0.07901380333548266
2020-07-10,-0.017978443981522152
2020-07-13,0.22446472019464775
2020-07-14,0.005982105165612317
2020-07-15,0.09166666666666692
2020-07-16,-0.04673515469948415
2020-07-17,-0.14864049796134984
2020-07-20,-0.3602511415525131
2020-07-21,0.2175843893686224
2020-07-22,0.2451977401129957
2020-07-23,0.45386104767443425
2020-07-24,0.1043508024224471
2020-07-27,0.622474025938688
2020-07-28,-0.16275934748721044
2020-07-29,-0.16733885933440704
2020-07-30,-0.3877588170040991
2020-07-31,0.04535664569099101
2020-08-03,-0.6538895510528424
2020-08-04,-0.30105059828994785
2020-08-05,0.18239752947782156
2020-08-06,0.07072240514010115
2020-08-07,-0.09280403172504896
2020-08-10,0.2904402515723276
2020-08-11,0.405096794756315
2020-08-12,-0.3544217263017905
2020-08-13,-0.15685239282976055
2020-08-14,0.025593043757011814
2020-08-17,-0.07164243736467735
2020-08-18,-0.36118107611607686
2020-08-19,0.2232670235435249
2020-08-20,0.1689349509594179
2020-08-21,-0.19156246735297502
2020-08-24,-0.14711631074573123
2020-08-25,0.1132043016708006
2020-08-26,-0.3189517651682703
2020-08-27,-0.14361483815283732
2020-08-28,0.3243670257834411
2020-08-31,0.12922727917626398
2020-09-01,0.05909850254871732
2020-09-02,0.3168419275888246
2020-09-03,0.07373010496116965
2020-09-04,-0.19287183435822333
2020-09-07,0.00022443014059946378
2020-09-08,-0.11008068769588378
2020-09-09,-0.023755623964005837
2020-09-10,-0.13960749330954547
2020-09-11,-0.02996273383822866
2020-09-14,-0.13781456373326156
2020-09-15,0.06692105805318899
2020-09-16,-0.25995393302952163
2020-09-17,0.22764193949440575
2020-09-18,0.046891327063739524
2020-09-21,0.16230905658218633
2020-09-22,0.5289642657733089
2020-09-23,0.473537258940271
2020-09-24,0.02688196856021921
2020-09-25,0.04504872802300404
2020-09-28,-0.015107827951866496
2020-09-29,-0.7008661887694128
2020-09-30,-0.5215464883484202
2020-10-09,-0.3987405248134935
2020-10-12,-0.0061178772034064105
2020-10-13,-0.04830623546219959
2020-10-14,0.2819641072683878
2020-10-15,0.2934819365633004
2020-10-16,0.42077273307706076
2020-10-19,-0.146285510977055
2020-10-20,-0.017073350406682265
2020-10-21,-0.20388610481174996
2020-10-22,-0.03965296138562373
2020-10-23,-0.27563693609077966
2020-10-26,0.11761738593742393
2020-10-27,0.029692055333081703
2020-10-28,0.05800109383107338
2020-10-29,-0.018923299493858684
2020-10-30,0.3316091342296158
2020-11-02,-0.045478072651983996
2020-11-03,-0.015600522723031064
2020-11-04,0.2554116027465526
2020-11-05,-0.049538634298419135
2020-11-06,-0.25286531270047374
2020-11-09,-0.008714203997919001
2020-11-10,0.20140744498938368
2020-11-11,-0.40871409927042507
2020-11-12,0.11281051048369875
2020-11-13,-0.12512416503820276
2020-11-16,0.11378611418491945
2020-11-17,-0.3222375869668548
2020-11-18,0.27457107048705753
2020-11-19,-0.022055018315762558
2020-11-20,0.26537344398340235
2020-11-23,-0.1865263103710099
2020-11-24,0.2806691654117971
2020-11-25,-0.04729344729344837
2020-11-26,-0.18181799579551516
2020-11-27,-0.1786844890527307
2020-11-30,0.5123978427990515
2020-12-01,-0.12494654830067226
2020-12-02,0.00985177006205229
2020-12-03,0.1688879871907676
2020-12-04,0.1742221234613319
2020-12-07,-0.5985606080582949
2020-12-08,0.082632457206095
2020-12-09,-0.008135304709223409
2020-12-10,0.05416880013654125
2020-12-11,-0.09134294781665281
2020-12-14,0.18581286968990887
2020-12-15,-0.2913721413721434
2020-12-16,-0.01355743337357086
2020-12-17,-0.02057091653866041
2020-12-18,-0.028510028920784886
2020-12-21,0.5329940621030249
2020-12-22,0.3741215574548916
2020-12-23,0.039641237926276475
2020-12-24,-0.09712748761162587
2020-12-25,0.05073895343994878
2020-12-28,-0.6434006015961831
2020-12-29,-0.2624946785866329
2020-12-30,-0.16559580770107069
2020-12-31,-0.003167463294571432
2021-01-04,-0.02496102607710049
2021-01-05,0.004159207358477163
2021-01-06,-0.05528488431334508
2021-01-07,0.2400603984389164
2021-01-08,0.012108127100973962
2021-01-11,0.607670741358117
2021-01-12,0.17525770931198031
2021-01-13,0.16826095224952484
2021-01-14,-0.2019142540940495
2021-01-15,0.08868667494673511
2021-01-18,-0.8891721583275111
2021-01-19,-0.1897856528822461
2021-01-20,-0.014118441534655229
2021-01-21,0.23614693845885482
2021-01-22,-0.07888924971439569
2021-01-25,0.28101031143627264
2021-01-26,0.1623755334281655
2021-01-27,-0.03436801690163885
2021-01-28,-0.22615055504163165
2021-01-29,0.23799985119643918
2021-02-01,0.32610737354570524
2021-02-02,0.11960257259984812
2021-02-03,0.1582332919975727
2021-02-04,0.08837636825047632
2021-02-05,-0.3140047545058115
2021-02-08,-0.5094761133205682
2021-02-09,-0.3089002271949539
2021-02-10,-0.2592040927200283
2021-02-18,-0.15444007323153344
2021-02-19,0.1286476513979772
2021-02-22,0.25647321576502297
2021-02-23,0.3329618105543444
2021-02-24,0.12378894579598687
2021-02-25,0.27969861546699093
2021-02-26,0.11470879944643
2021-03-01,-0.11334762662599265
2021-03-02,-0.1526349912012617
2021-03-03,-0.031172135232249203
2021-03-04,-0.22027654992632686
2021-03-05,-0.192390852390853
2021-03-08,0.15104715172979286
2021-03-09,-0.12504819862864142
2021-03-10,0.0558409816440532
2021-03-11,0.06339239888600112
2021-03-12,-0.08981082685603045
2021-03-15,-0.18036359099824745
2021-03-16,0.05557701844803894
2021-03-17,-0.09732142857142645
2021-03-18,0.0924962337112319
2021-03-19,0.06696164761918547
2021-03-22,0.058207532975574905
2021-03-23,0.05978205111048886
2021-03-24,0.18432475884244343
2021-03-25,-0.23194626851915662
2021-03-26,0.2140553900341981
2021-03-29,-0.12505528190848153
2021-03-30,0.03845938045301549
2021-03-31,-0.17130130825617987
2021-04-01,0.21534679089026887
2021-04-02,-0.245335136785574
2021-04-06,0.22331070444163215
2021-04-07,-0.10224585221425822
2021-04-08,0.049085205030677315
2021-04-09,-0.10151918976545747
2021-04-12,-0.01529245194379586
2021-04-13,-0.0696579600980522
2021-04-14,0.09688332415451871
2021-04-15,0.0024091640895584406
2021-04-16,0.05027826966860241
2021-04-19,0.24146856563682645
2021-04-20,-0.08803169982208989
2021-04-21,-0.028658771254636978
2021-04-22,0.04054230053397935
2021-04-23,-0.05374101431114664
2021-04-26,-0.12330006001031331
2021-04-27,0.04115890083631937
2021-04-28,0.08008606668474147
2021-04-29,-0.004915052542220657
2021-04-30,0.1502312605535541
2021-05-06,0.0519785816899566
2021-05-07,0.23003319157763452
2021-05-10,-0.04964796729502879
2021-05-11,0.010057018351283472
2021-05-12,-0.16295803431395767
2021-05-13,-0.024154654725747814
2021-05-14,-0.2643566855785486
2021-05-17,-0.03509566590233848
2021-05-18,0.16896458061712524
2021-05-19,0.15429010543319213
2021-05-20,-0.008761249486713883
2021-05-21,0.07656429292156722
2021-05-24,0.03888827672658058
2021-05-25,-0.3877922488709027
2021-05-26,-0.12212264510003984
2021-05-27,-0.10133027371050893
2021-05-28,-0.033249810964786845
2021-05-31,-0.052408477364636656
2021-06-01,0.19044686460532623
2021-06-02,0.05741019866761739
2021-06-03,-0.005331900601058898
2021-06-04,0.07406663542433678
2021-06-07,-0.1504389259570203
2021-06-08,-0.03781638843698201
2021-06-09,-0.253428594892009
2021-06-10,0.07711314559777772
2021-06-11,0.0069409831828842125
2021-06-15,0.22018147473521313
2021-06-16,-0.011806450384342627
2021-06-17,0.44109797158577857
2021-06-18,0.01638801699656571
2021-06-21,-0.08908489291299763
2021-06-22,-0.10889522000633697
2021-06-23,0.033792547411225345
2021-06-24,-0.37288248337028995
2021-06-25,-0.052594171997162736
2021-06-28,0.03940886699506996
2021-06-29,0.044600536805439364
2021-06-30,-0.029107582919244195
2021-07-01,0.16825174825174885
2021-07-02,0.06319186844642075
2021-07-05,-0.09395973154362572
2021-07-06,0.22149632929143037
2021-07-07,0.16819789274126018
2021-07-08,-0.047957438245209906
2021-07-09,-0.003912085686070894
2021-07-12,0.10850518608908091
2021-07-13,-0.3456391875746746
2021-07-14,-0.2723493420501234
2021-07-15,-0.0379254288876565
2021-07-16,-0.0706204353548833
2021-07-19,0.24904150197629085
2021-07-20,0.12652329749104158
2021-07-21,0.23298078421767687
2021-07-22,0.0629236481340433
2021-07-23,0.0916829885338849
2021-07-26,-0.4452313159863732
2021-07-27,-0.03541855089940736
2021-07-28,-0.05178330259126417
2021-07-29,0.15654694275048164
2021-07-30,-0.09855033967609614
2021-08-02,0.12980850633287996
2021-08-03,0.06249866944840643
2021-08-04,-0.17701407290600107
2021-08-05,-0.18040653801233533
2021-08-06,0.1536901232641564
2021-08-09,0.28484556186961196
2021-08-10,0.08548867325524896
2021-08-11,0.16117521866235252
2021-08-12,-0.11825742894056723
2021-08-13,-0.13340614760493086
2021-08-16,-0.4380837045095335
2021-08-17,-0.3024166527056448
2021-08-18,-0.06269454654169007
2021-08-19,0.44993914662085194
2021-08-20,0.04056795131846165
2021-08-23,0.3287582062979876
2021-08-24,0.194148936170215
2021-08-25,0.039603960396039736
2021-08-26,-0.46743443025342984
2021-08-27,0.04189944134078059
2021-08-30,0.0532594892055831
2021-08-31,0.022779043280179385
2021-09-01,0.03563474387527998
2021-09-02,0.10567852736017527
2021-09-03,-0.1284598058054776
2021-09-06,-0.3540010563403798
2021-09-07,0.007523987022855519
2021-09-08,-0.06504650858115925
2021-09-09,0.22258064516129097
2021-09-10,0.11772919563352936
2021-09-13,0.18209513998379187
2021-09-14,0.03987240829345279
2021-09-15,0.04112136657941569
2021-09-16,-0.19212962962962576
2021-09-17,0.06621834222784087
2021-09-22,-0.002873281210809396
2021-09-23,0.02485695881171758
2021-09-24,-0.03932301410233105
2021-09-27,0.13093963639095074
2021-09-28,-0.058855063304933015
2021-09-29,-0.010998424425987394
2021-09-30,-0.10572758457398206
2021-10-08,0.06545125006663399
2021-10-11,-0.14714334009465677
2021-10-12,-0.12186544342507441
2021-10-13,-0.046502046117962055
2021-10-14,-0.02068556597230014
2021-10-15,-0.035678010624015315
2021-10-18,-0.05100574712643699
2021-10-19,0.16884402216943573
2021-10-20,0.16036879113655889
2021-10-21,-0.014163801317369641
2021-10-22,-8.513841713974702e-05
2021-10-25,0.23138876990076204
2021-10-26,-0.17460159792701285
2021-10-27,-0.1249929025974322
2021-10-28,-0.03184852090097117
2021-10-29,0.09726305954768583
2021-11-01,-0.2832946693606716
2021-11-02,0.056227059325652376
2021-11-03,-0.028583609480069168
2021-11-04,0.25596450392784603
2021-11-05,-0.2746624236690434
2021-11-08,0.35717673844986364
2021-11-09,0.02853484543625368
2021-11-10,0.002891515407343774
2021-11-11,0.030995769606245976
2021-11-12,0.28078606892166075
2021-11-15,-0.24326282042683472
2021-11-16,0.0324485122376153
2021-11-17,0.09864362690449908
2021-11-18,-0.4303464189568956
2021-11-19,-0.13879472693031789
2021-11-22,-0.05769767373553238
2021-11-23,0.24847623677223796
2021-11-24,-0.12336182336182522
2021-11-25,0.2164183188880012
2021-11-26,-0.05176212248997892
2021-11-29,0.19566925323936588
2021-11-30,-0.40038168884239
2021-12-01,0.2349058128547374
2021-12-02,0.06924639807442427
2021-12-03,0.12272986442546138
2021-12-06,-0.1539393086261813
2021-12-07,0.013278697784729593
2021-12-08,-0.31117495368599435
2021-12-09,-0.22717666563427968
2021-12-10,0.04498667401893184
2021-12-13,0.046632124352331446
2021-12-14,0.05524408848207428
2021-12-15,0.11599884267794841
2021-12-16,0.40079691657751176
2021-12-17,-0.08726145385078123
2021-12-20,-0.05361305361305385
2021-12-21,0.13654394607207723
2021-12-22,0.044308094491791516
2021-12-23,-0.40030349993542724
2021-12-24,-0.0570218271617205
2021-12-27,0.06504162504162621
2021-12-28,-0.053032200606720446
2021-12-29,0.0330358707351851
2021-12-30,0.1276770179008536
2021-12-31,0.10242306795663497
2022-01-04,0.0016262588586316504
2022-01-05,-0.06433106179742433
2022-01-06,0.12174590115766143
2022-01-07,0.08675231385550482
2022-01-10,-0.0711956521739113
2022-01-11,-0.02202344015267419
2022-01-12,0.01119559639875041
2022-01-13,-0.30301996352220867
2022-01-14,-0.12233667278114974
2022-01-17,0.0016163388046623178
2022-01-18,-0.13049726550545024
2022-01-19,0.4352317054142582
2022-01-20,0.18347052116247226
2022-01-21,0.30047432460301415
2022-01-24,0.15950026198585054
2022-01-25,0.20311746666070396
2022-01-26,-0.5631007330980157
2022-01-27,0.10165786531662044
2022-01-28,-0.32608425500186755
2022-02-07,-0.2503246753246735
2022-02-08,-0.10827633774008766
2022-02-09,0.18884932377083483
2022-02-10,-0.42719696508013805
2022-02-11,0.3417739477453819
2022-02-14,0.3878246753246731
2022-02-15,0.051793205231665765
2022-02-16,-0.10370907662201354
2022-02-17,0.299540107621075
2022-02-18,-0.4069066847067773
2022-02-21,-0.4726262626262608
2022-02-22,0.14366953004545477
2022-02-23,0.08703313409114517
2022-02-24,0.3223373318793183
2022-02-25,0.44363360190199347
2022-02-28,0.25547892720306464
2022-03-01,-0.20858077097904726
2022-03-02,0.08503934878437944
2022-03-03,-0.5230438959947189
2022-03-04,-0.4979097670883307
2022-03-07,0.1306061422413785
2022-03-08,0.3850155094249575
2022-03-09,0.012604196658075037
2022-03-10,0.3238481641902887
2022-03-11,0.18943209758659285
2022-03-14,-0.27744900823353197
2022-03-15,-0.5259482239614686
2022-03-16,-0.33469187516510057
2022-03-17,-0.19533813808155587
2022-03-18,-0.01730076379881974
2022-03-21,-0.05119355100244473
2022-03-22,0.300716313015273
2022-03-23,0.1785362037887311
2022-03-24,-0.16911964291099824
2022-03-25,0.14944190766108936
2022-03-28,0.30046728077063156
2022-03-29,-0.2651309450818947
2022-03-30,0.21088952200062927
2022-03-31,0.2818727479746427
2022-04-01,-0.18709622864874265
2022-04-06,-0.19597093937581656
2022-04-07,0.15608078296097053
2022-04-08,-0.26591251885369366
2022-04-11,-0.04527551223393986
2022-04-12,0.15677752582514526
2022-04-13,0.00222123265158862
2022-04-14,0.009478481596862548
2022-04-15,0.017762967255869497
2022-04-18,-0.023515151515148533
2022-04-19,-0.09261640312961794
2022-04-20,0.2173960768108268
2022-04-21,-0.0603395061728402
2022-04-22,0.09355369700196998
2022-04-25,0.05122705314009472
2022-04-26,-0.009318366159160811
2022-04-27,-0.3264008161473204
2022-04-28,0.2862826266377815
2022-04-29,0.012279440850872191
2022-05-05,-0.1406073761944277
2022-05-06,0.2589807993796477
2022-05-09,0.1275928470605862
2022-05-10,-0.3312348369125719
2022-05-11,0.12108333970292123
2022-05-12,0.11619803138766455
2022-05-13,-0.3941884970202787
2022-05-16,0.19937279005090047
2022-05-17,0.14344153615773378
2022-05-18,-0.3048368906896125
2022-05-19,-0.10060525412087856
2022-05-20,0.055599921510285755
2022-05-23,-0.39231885113184284
2022-05-24,-0.1173196028244855
2022-05-25,0.1305358830530594
2022-05-26,0.006304403878308926
2022-05-27,0.2485538013443667
2022-05-30,0.2674592149548774
2022-05-31,0.21382439313130935
2022-06-01,0.07962156282492146
2022-06-02,0.13409781228992382
2022-06-06,-0.0779250702698794
2022-06-07,0.0038333448969646786
2022-06-08,-0.28164589034153875
2022-06-09,-0.09947908318640902
2022-06-10,0.049829774063758665
2022-06-13,0.016434484151023915
2022-06-14,-0.03295356384096478
2022-06-15,0.2023925148925115
2022-06-16,0.08298403877914921
2022-06-17,-0.13637426900585
2022-06-20,-0.11228886304480762
2022-06-21,-0.1105563706604442
2022-06-22,0.06164182475158174
2022-06-23,-0.04592325624633643
2022-06-24,0.24017543859649435
2022-06-27,0.16742169651698885
2022-06-28,0.1408279421642451
2022-06-29,-0.1421025565677332
2022-06-30,0.031189260501325908
2022-07-01,-0.22393483709273498
2022-07-04,-0.3025862399544225
2022-07-05,-0.030331890331890255
2022-07-06,0.18244826553103943
2022-07-07,0.01056873927847287
2022-07-08,-0.1374271477510336
2022-07-11,0.1428717951415286
2022-07-12,-0.025409413281755205
2022-07-13,-0.40319715808170475
2022-07-14,-0.0047056201424964875
2022-07-15,0.15556132145408522
2022-07-18,0.05639037443615443
2022-07-19,-0.05281210319303723
2022-07-20,0.19484040873085878
2022-07-21,-0.04507953872099969
2022-07-22,-0.048520484307148705
2022-07-25,0.030242518955837537
2022-07-26,-0.000836533908560616
2022-07-27,0.09696823302069155
2022-07-28,0.17758013842628548
2022-07-29,0.18794443184863396
2022-08-01,-0.12421185372005156
2022-08-02,0.09030540767722203
2022-08-03,0.08636207291905493
2022-08-04,-0.3610368336103672
2022-08-05,-0.29874132617043236
2022-08-08,0.06495190462959294
2022-08-09,0.006080134491454836
2022-08-10,-0.27372034956304747
2022-08-11,0.2195251783242866
2022-08-12,0.17915312973792802
2022-08-15,0.09234408575515686
2022-08-16,-0.13886595332378576
2022-08-17,0.10788113695090588
2022-08-18,0.026494623655910546
2022-08-19,0.060111155751972595
2022-08-22,-0.22569137366445824
2022-08-23,0.1917358780629544
2022-08-24,0.09473324213406241
2022-08-25,-0.10790783410138165
2022-08-26,-0.29003891632988843
2022-08-29,0.36163350725302024
2022-08-30,-0.20826164085737287
2022-08-31,-0.12552324300506873
2022-09-01,0.12278208559838671
2022-09-02,0.30520574426953795
2022-09-05,-0.4601696506823528
2022-09-06,0.15073149105955233
2022-09-07,0.12867673370070992
2022-09-08,-0.05391902761640629
2022-09-09,0.014117843153594503
2022-09-13,0.2693688586545704
2022-09-14,0.07790956760650605
2022-09-15,-0.11699287610812026
2022-09-16,0.019821754536669282
2022-09-19,-0.13932221624529062
2022-09-20,-0.018518518518519888
2022-09-21,-0.1374690119230292
2022-09-22,0.09297103807354429
2022-09-23,-0.11096875923918505
2022-09-26,0.10804369759593552
2022-09-27,0.05628200937125731
2022-09-28,0.052916830902638726
2022-09-29,0.03944738389182626
2022-09-30,0.13162143861659467
2022-10-10,-0.19032554618213415
2022-10-11,-0.1790814321706795
2022-10-12,-0.07450406627650619
2022-10-13,-0.2348866863733826
2022-10-14,-0.08267065502459321
2022-10-17,0.10899152859100583
2022-10-18,0.0420098420098425
2022-10-19,-0.06089713194152641
2022-10-20,0.1289335109757626
2022-10-21,0.012479751555176208
2022-10-24,0.3476262314335787
2022-10-25,0.08047875149702895
2022-10-26,0.25880140575867583
2022-10-27,0.0192238698875887
2022-10-28,-0.05479430988081605
2022-10-31,-0.5745107366132127
2022-11-01,0.2913161202978442
2022-11-02,-0.21409408833956015
2022-11-03,0.2444247787610606
2022-11-04,0.2590232974910394
2022-11-07,0.2058216485388559
2022-11-08,-0.40651031654492054
2022-11-09,0.25341381623071724
2022-11-10,-0.2959105431309901
2022-11-11,-0.19531207357676872
2022-11-14,0.08725000583416773
2022-11-15,0.08530572537227693
2022-11-16,-0.2952748430561931
2022-11-17,0.06666323130303474
2022-11-18,-0.07326205133743773
2022-11-21,-0.13199532759902094
2022-11-22,-0.024538058693718754
2022-11-23,-0.039659300814120876
2022-11-24,0.036393713813068315
2022-11-25,0.011646667338912717
2022-11-28,-0.012142795938844549
2022-11-29,0.10414402322557927
2022-11-30,0.13177090554106582
2022-12-01,0.07305807427373709
2022-12-02,0.3431803233093577
2022-12-05,0.36131122440960023
2022-12-06,-0.033723945578827866
2022-12-07,0.05013099693879769
2022-12-08,-0.24553084701602967
2022-12-09,-0.3174818016993968
2022-12-12,-0.4536677115987485
2022-12-13,-0.12579618255768127
2022-12-14,0.07769441015939547
2022-12-15,0.31834107663953437
2022-12-16,0.06471034657222147
2022-12-19,0.14336468129571436
2022-12-20,0.07856400188198061
2022-12-21,-0.0952022475149514
2022-12-22,-0.3197322631342646
2022-12-23,-0.06590020149342019
2022-12-26,-0.051038923875962997
2022-12-27,0.028559651432268025
2022-12-28,-0.17200590639518065
2022-12-29,0.13009131383131584
2022-12-30,-0.0542207114048353
2023-01-03,0.17326114609818796
2023-01-04,-0.011645401425163968
2023-01-05,0.3910741236693266
2023-01-06,-0.04000379320943991
2023-01-09,0.232449326895807
2023-01-10,-0.0993265993266009
2023-01-11,-0.009174311926609457
2023-01-12,-0.35183346065699134
2023-01-13,0.06687578332190544
2023-01-16,-0.03019499773258358
2023-01-17,-0.016708543419730555
2023-01-18,-0.055932203389829314
2023-01-19,0.2796855905737517
2023-01-20,0.11568359278585508
2023-01-30,-0.2693238556706109
2023-01-31,-0.0011300471167594583
2023-02-01,0.1019092148840846
2023-02-02,-0.20643782993102963
2023-02-03,-0.11167159070121649
2023-02-06,0.3926387632039632
2023-02-07,-0.025135233727656758
2023-02-08,-0.09442923222103719
2023-02-09,-0.150442202776011
2023-02-10,-0.1562089682887043
2023-02-13,-0.5021593811025974
2023-02-14,0.019251755087532674
2023-02-15,0.08225503762818905
2023-02-16,0.23716513340707346
2023-02-17,-0.08324358568261013
2023-02-20,0.43008870214753014
2023-02-21,-0.0006887052341598941
2023-02-22,-0.10066328201768363
2023-02-23,-0.05839211591840779
2023-02-24,0.14544637752184847
2023-02-27,-0.21052746628194885
2023-02-28,0.015609835004852548
2023-03-01,0.18155580561807005
2023-03-02,-0.03567028277789622
2023-03-03,0.11698748491201288
2023-03-06,-0.0003088852438023412
2023-03-07,0.02745642077326704
2023-03-08,0.2075637957108309
2023-03-09,0.022403011843788137
2023-03-10,-0.0366735045398262
2023-03-13,0.23683197227614647
2023-03-14,0.043900845642943
2023-03-15,-0.6019372046230858
2023-03-16,0.2321102720305395
2023-03-17,0.07643213783194744
2023-03-20,-0.21000662866233644
2023-03-21,-0.005416299282025264
2023-03-22,0.3372912371347426
2023-03-23,-0.19976958024476055
2023-03-24,-0.14709402964485793
2023-03-27,0.0519397886196236
2023-03-28,-0.1484649636747124
2023-03-29,-0.05104861730196098
2023-03-30,-0.103205887328715
2023-03-31,0.050096339113680416
2023-04-03,-0.10218843181033187
2023-04-04,0.11320164368703248
2023-04-06,0.044586343718346126
2023-04-07,0.16890405162382507
2023-04-10,-0.03167420814479717
2023-04-11,0.0629048163338446
2023-04-12,0.17214384785515038
2023-04-13,-0.013226743444059226
2023-04-14,-0.09657963690810488
2023-04-17,0.17705731227053395
2023-04-18,0.053618088841156576
2023-04-19,-0.2638103695715951
2023-04-20,-0.08961755633118851
2023-04-21,0.0023568536726419065
2023-04-24,-0.2086014949303337
2023-04-25,-0.03463504123302754
2023-04-26,0.0517128696694078
2023-04-27,0.03919340463458389
2023-04-28,0.02934551568795884
2023-05-04,-0.03699037746262743
2023-05-05,0.02292666030869497
2023-05-08,-0.019970193740680903
2023-05-09,-0.03702830188679294
2023-05-10,-0.06265770434819165
2023-05-11,0.33842866355518364
2023-05-12,0.22436145843041197
2023-05-15,0.03975922210217034
2023-05-16,0.1402692972466684
2023-05-17,0.04553723999137046
2023-05-18,-0.3822403988518768
2023-05-19,-0.4993950815995929
2023-05-22,0.05200135561867417
2023-05-23,-0.16233452884717586
2023-05-24,0.05632318493116053
2023-05-25,0.2933096030899848
2023-05-26,0.20466741655306453
2023-05-29,-0.12047286326610458
2023-05-30,0.03447056364971281
2023-05-31,0.04663429838758308
2023-06-01,-0.23280558304255303
2023-06-02,0.1334173897994977
2023-06-05,0.12038565642216836
2023-06-06,0.04550871407238777
2023-06-07,-0.23983668561981986
2023-06-08,0.10536114371065947
2023-06-09,0.018204913503875
2023-06-12,-0.061775251754655425
2023-06-13,0.05018258548319997
2023-06-14,0.22131999591015755
2023-06-15,0.09602606223928999
2023-06-16,-0.17186565837736217
2023-06-19,-0.039238321881106125
2023-06-20,-0.15243806151876743
2023-06-21,-0.06729802793469704
2023-06-26,-0.3166154923079423
2023-06-27,-0.021655920853980867
2023-06-28,0.037083149467314724
2023-06-29,0.1257537897717778
2023-06-30,-0.08641352115353226
2023-07-03,0.2929696938866362
2023-07-04,-0.003060632434004021
2023-07-05,-0.03519933352950064
2023-07-06,0.040537319614011316
2023-07-07,-0.002754267790115353
2023-07-10,-0.1799440812459736
2023-07-11,0.3162091672906129
2023-07-12,0.0004674220286011374
2023-07-13,0.12395324477147149
2023-07-14,0.15484052056544456
2023-07-17,0.034385077028959446
2023-07-18,-0.26580253668111276
2023-07-19,0.26143884739020407
2023-07-20,-0.3553359395185116
2023-07-21,-0.053458746019530955
2023-07-24,0.02905685248208379
2023-07-25,-0.024316616544799573
2023-07-26,-0.4083036375384773
2023-07-27,0.29318950508148045
2023-07-28,0.1310613437195713
2023-07-31,0.029969535415078203
2023-08-01,0.10652236931104506
2023-08-02,0.20247229326512767
2023-08-03,-0.05190373271365263
2023-08-04,-0.3283427981414573
2023-08-07,0.024828017510949905
2023-08-08,-0.011921219771195427
2023-08-09,-0.032715260017053244
2023-08-10,-0.2859798076862326
2023-08-11,0.16138189019694124
2023-08-14,0.0007022661588713883
2023-08-15,-0.08090909858132678
2023-08-16,0.01365763696783684
2023-08-17,0.21392932508316537
2023-08-18,0.1453181439288721
2023-08-21,-0.06915073507470162
2023-08-22,0.06708473966966996
2023-08-23,0.21845916280622432
2023-08-24,0.06567539448586467
2023-08-25,-0.22396809571286097
2023-08-28,0.08774161521516588
2023-08-29,-0.024737631184406427
2023-08-30,-0.26153175343849006
2023-08-31,-0.047077976012492785
2023-09-01,0.0764585834333689
2023-09-04,0.08031088082901597
2023-09-05,0.0008736233387065216
2023-09-06,-0.05429135494596952
2023-09-07,-0.1658222954688827
2023-09-08,0.07518636196994458
2023-09-11,-0.25076842012821754
2023-09-12,0.021057032212637362
2023-09-13,0.10099206349206305
2023-09-14,0.38535854770487177
2023-09-15,0.1569564951729139
2023-09-18,0.1910608178121491
2023-09-19,0.048364182770680345
2023-09-20,0.019396175035677057
2023-09-21,-0.2855545428464238
2023-09-22,-0.2556070016711198
2023-09-25,-0.1859196854362805
2023-09-26,-0.020451973567079916
2023-09-27,0.024203960053820344
2023-09-28,-0.054877640342981704
2023-10-09,-0.03555405734708063
2023-10-10,0.16216473590735714
2023-10-11,-0.14657631771689555
2023-10-12,-0.08209219858155889
2023-10-13,0.081154974659907
2023-10-16,-0.01084051084051256
2023-10-17,-0.13274588457069628
2023-10-18,0.14839298619299404
2023-10-19,0.1047581493165094
2023-10-20,0.04647787382273785
2023-10-23,0.14533675493560883
2023-10-24,0.07057057057056493
2023-10-25,-0.12701549517179314
2023-10-26,-0.11113953069789051
2023-10-27,-0.05138117926780576
2023-10-30,-0.10183858643743791
2023-10-31,0.1305703697008114
2023-11-01,0.3930604544335885
2023-11-02,0.06410309391960856
2023-11-03,-0.027116519856724492
2023-11-06,-0.014937106918241128
2023-11-07,-0.1695568561872975
2023-11-08,-0.4953628363326015
2023-11-09,0.0034889280698044145
2023-11-10,0.12915137134985544
2023-11-13,0.2154273029966744
2023-11-14,0.12102791878172839
2023-11-15,0.39662444612964426
2023-11-16,-0.058914052681524554
2023-11-17,-0.11699968574870036
2023-11-20,-0.22436264146250556
2023-11-21,-0.1273514481934907
2023-11-22,-0.4326123698154617
2023-11-23,0.04868684892649522
2023-11-24,-0.058493064312736584
2023-11-27,1.1871607336723553
2023-11-28,0.13047958036717777
2023-11-29,0.33591696193850884
2023-11-30,0.016118303441509767
2023-12-01,0.17669813215504787
2023-12-04,-1.373722461957753
2023-12-05,0.13059114005582395
2023-12-06,-0.1780462111939234
2023-12-07,0.0032182215010943503
2023-12-08,-0.12228630442845836
2023-12-11,0.21313980137509858
2023-12-12,-0.45900394776799336
2023-12-13,0.08425240387857233
2023-12-14,0.2397363668988917
2023-12-15,-0.0059334095929993586
2023-12-18,-0.11626771920889903
2023-12-19,0.20453238538344973
2023-12-20,-0.12228406514120885
2023-12-21,-0.6131385204753187
2023-12-22,0.16618789116685911
2023-12-25,0.19238046095631667
2023-12-26,0.12088108779121613
2023-12-27,0.15640177858853022
2023-12-28,0.31549353929855023
2023-12-29,-0.004887594864200331
2024-01-02,-0.06160158053699343
2024-01-03,-0.04359405977630714
2024-01-04,0.018180328092773257
2024-01-05,0.07502190953795013
2024-01-08,-0.1686879889691582
2024-01-09,-0.03569048008602996
2024-01-10,-0.030418838160871386
2024-01-11,-0.18431423707362224
2024-01-12,0.020058031309513655
2024-01-15,-0.028123192319257473
2024-01-16,0.006619231076077245
2024-01-17,0.029165705328791054
2024-01-18,0.1885289979765606
2024-01-19,-0.23113627481505888
2024-01-22,0.41392557374527084
2024-01-23,0.14818132093532124
2024-01-24,-0.07037271671417789
2024-01-25,-0.11220930232558102
2024-01-26,0.1483625005741585
2024-01-29,-0.6406180026869658
2024-01-30,-0.10879446979312811
2024-01-31,0.021473587169886028
2024-02-01,0.10571135430916245
2024-02-02,0.21005260081823238
2024-02-05,0.44746433554486026
2024-02-06,-0.06162330013920338
2024-02-07,0.09612785710089156
2024-02-08,-0.09168667466986315
2024-02-19,-0.30305109225491556
2024-02-20,-0.3768616116967001
2024-02-21,0.014454893765240222
2024-02-22,-0.18124233299877401
2024-02-23,0.09431754353117676
2024-02-26,0.10136395299192914
2024-02-27,0.22369493251845768
2024-02-28,0.16610617544211634
2024-02-29,0.05882068242316751
2024-03-01,-0.02714067278288066
2024-03-04,0.20458369098713106
2024-03-05,0.366517540430588
2024-03-06,0.018349215909822164
2024-03-07,0.1412956799112392
2024-03-08,-0.09196847753185536
2024-03-11,-0.26591525423729173
2024-03-12,-0.5856499645743963
2024-03-13,-0.2617957772062104
2024-03-14,0.2868000480653648
2024-03-15,0.2617445969348411
2024-03-18,0.16026433021264602
2024-03-19,0.3332518263988039
2024-03-20,0.16930746307659347
2024-03-21,-0.3287784444695968
2024-03-22,-0.16412417408226784
2024-03-25,-0.1385418470596942
2024-03-26,-0.16875253283748903
2024-03-27,0.016632902067312043
2024-03-28,-0.2963209810717172
2024-03-29,-0.11384221713759934
2024-04-01,0.05279047223376155
2024-04-02,0.30356573878283866
2024-04-03,0.2442156178318511
2024-04-08,0.6312442396313389
2024-04-09,0.20908558862129256
2024-04-10,0.03699361892290797
2024-04-11,-0.2255176550978894
2024-04-12,-0.22650008364925167
2024-04-15,-0.25353987378083964
2024-04-16,-0.20586212571858603
2024-04-17,-0.05449944459777075
2024-04-18,-0.003987713675213089
2024-04-19,-0.15709806740074872
2024-04-22,-0.27432984242081393
2024-04-23,0.06918249518868562
2024-04-24,0.041173231737912916
2024-04-25,-0.07901567626686122
2024-04-26,0.004597952095824448
2024-04-29,-0.04227839655515683
2024-04-30,-0.081328169127731
2024-05-06,-0.03123246626292058
2024-05-07,0.023603588354774135
2024-05-08,0.043873576659919304
2024-05-09,0.1400596995413603
2024-05-10,0.29253983328057037
2024-05-13,-0.011077584769779917
2024-05-14,0.06885938135937783
2024-05-15,0.011411313921216679
2024-05-16,0.299298717506004
2024-05-17,-0.4147331102972998
2024-05-20,0.4804640182482105
2024-05-21,0.5003025074476966
2024-05-22,0.15991631406125956
2024-05-23,-0.1546722036595895
2024-05-24,0.27245849464807437
2024-05-27,-0.5787570485038378
2024-05-28,-0.6975855541087829
2024-05-29,-0.14014034331573355
2024-05-30,-0.18282570706426743
2024-05-31,-0.05454423851937251
2024-06-03,0.35151469515463146
2024-06-04,0.09288324638499934
2024-06-05,-0.022442817850327146
2024-06-06,0.07833368938261041
2024-06-07,0.0460016401934905
2024-06-11,-0.46403960956141155
2024-06-12,0.02751032008472292
2024-06-13,0.19669496648977097
2024-06-14,-0.08004608294930882
2024-06-17,-0.23920325069324183
2024-06-18,0.1728288298260567
2024-06-19,0.10157515158362576
2024-06-20,-0.260779103876569
2024-06-21,0.08714285714285709
2024-06-24,0.29964239266409204
2024-06-25,0.03235270907831825
2024-06-26,0.012283272842458962
2024-06-27,-0.07582139703928548
2024-06-28,-0.07205240174672523
2024-07-01,-0.2290688862662278
2024-07-02,-0.03274329000234463
2024-07-03,-0.11786379884393311
2024-07-04,0.24258282747221008
2024-07-05,0.03965159070133878
2024-07-08,0.1518293172975474
2024-07-09,0.18501880773159235
2024-07-10,0.010360040606467065
2024-07-11,-0.08773333289668711
2024-07-12,0.2382457919856661
2024-07-15,-0.12007700836554594
2024-07-16,-0.21536060806028756
2024-07-17,0.08958157779611226
2024-07-18,0.16921437972531927
2024-07-19,-0.1728552902186291
2024-07-22,0.06760662026842211
2024-07-23,0.1608445179873757
2024-07-24,-0.09618807909623973
2024-07-25,0.1438481553758933
2024-07-26,-0.1383725565290801
2024-07-29,-0.008870394803613988
2024-07-30,-0.05749488768356697
2024-07-31,0.16805084150651847
2024-08-01,-0.611147805014996
2024-08-02,0.19820054536544002
2024-08-05,0.2343113228565046
2024-08-06,0.036488769903255086
2024-08-07,-0.21841243539669247
2024-08-08,0.31102974732071437
2024-08-09,-0.11478604511161253
2024-08-12,-0.37518725749642967
2024-08-13,-0.22992455838896603
2024-08-14,0.12251715420729398
2024-08-15,0.14157199776087498
2024-08-16,-0.007965115599391965
2024-08-19,0.1961689128481575
2024-08-20,0.22214065942745578
2024-08-21,-0.011923879877951436
2024-08-22,-0.24754456284420095
2024-08-23,0.012410116667013017
2024-08-26,-0.04342857142857319
2024-08-27,-0.1420347914194927
2024-08-28,0.025458510385060064
2024-08-29,0.12437468767260282
2024-08-30,-0.08536245734588954
2024-09-02,0.08951048951049234
2024-09-03,0.10943479170069417
2024-09-04,-0.05296741993989762
2024-09-05,-0.05910173216808923
2024-09-06,0.11912398150710855
2024-09-09,0.038319071075395436
2024-09-10,0.004563414179472508
2024-09-11,0.10806329187832094
2024-09-12,0.12313205955498094
2024-09-13,0.11024405376349596
2024-09-18,-0.3515137711122023
2024-09-19,0.1493699931296242
2024-09-20,-0.1814906153056451
2024-09-23,-0.07332172173123742
2024-09-24,-0.15198699558538567
2024-09-25,0.5192131091086514
2024-09-26,-0.28257433087941675
2024-09-27,0.11448242419806484
2024-09-30,0.0665794524489692
2024-10-08,0.03853692810668616
2024-10-09,-0.39244142002315985
2024-10-10,0.13664421997755538
2024-10-11,0.015291497744532492
2024-10-14,-0.11343209704290211
2024-10-15,-0.08606585382520196
2024-10-16,0.038326662854965936
2024-10-17,0.06651035871350358
2024-10-18,0.009086493466491881
2024-10-21,0.286491298633327
2024-10-22,0.11848825331971213
2024-10-23,-0.0059068950373295445
2024-10-24,-0.122960043616587
2024-10-25,-0.09003107177974498
2024-10-28,-0.4863246933948524
2024-10-29,-0.11862527716186125
2024-10-30,0.045353997642327115
2024-10-31,-0.0084855755606323
2024-11-01,0.02065768742058438
2024-11-04,0.2653894472361838
2024-11-05,0.011946241911397336
2024-11-06,0.3248452777199919
2024-11-07,0.02879749244942896
2024-11-08,-0.026384003210058946
2024-11-11,-0.05187546193643987
2024-11-12,0.1882267781254388
2024-11-13,-0.5392090598101975
2024-11-14,0.20468554840078954
2024-11-15,0.07435365078563395
2024-11-18,0.02615793134455853
2024-11-19,-0.20058030447898068
2024-11-20,0.23417867203745274
2024-11-21,-0.4122086934463247
2024-11-22,-0.07030409661535132
2024-11-25,0.20142507776169016
2024-11-26,0.04466868632028925
2024-11-27,-0.03315245331685841
2024-11-28,0.3588296948952686
2024-11-29,0.12132338738606366
2024-12-02,-0.299280606530542
2024-12-03,0.11924011863324248
2024-12-04,0.02314143020227994
2024-12-05,-0.17166226000148269
2024-12-06,-0.1210753362291578
2024-12-09,0.05682135868046125
2024-12-10,-0.21599923800193083
2024-12-11,0.04603213685461504
2024-12-12,-0.036044487528271954
2024-12-13,0.15540592565215744
2024-12-16,0.007401962211416417
2024-12-17,0.07373966581506974
2024-12-18,-0.066431207017847
2024-12-19,0.25010467218574334
2024-12-20,-0.23605306785017227
2024-12-23,0.16507890513552034
2024-12-24,0.060250558694857646
2024-12-25,0.018729832763969667
2024-12-26,-0.3825362286329588
2024-12-27,0.06774541787769578
2024-12-30,-0.31140538354898273
2024-12-31,0.11185963058362604
