date,FCT_Demark_Atr_Dfive
2013-10-18,
2013-10-21,
2013-10-22,
2013-10-23,
2013-10-24,
2013-10-25,
2013-10-28,
2013-10-29,
2013-10-30,
2013-10-31,0.0
2013-11-01,0.31111111111111284
2013-11-04,0.41860465116279966
2013-11-05,0.4736842105263219
2013-11-06,0.44999999999999957
2013-11-07,0.7599999999999896
2013-11-08,0.1562500000000022
2013-11-11,0.03030303030302963
2013-11-12,0.028571428571428154
2013-11-13,0.121212121212126
2013-11-14,0.09090909090909617
2013-11-15,0.25000000000002826
2013-11-18,0.4285714285714839
2013-11-19,0.8888888888888998
2013-11-20,0.41666666666669583
2013-11-21,0.6000000000000196
2013-11-22,0.4285714285714423
2013-11-25,0.3913043478260968
2013-11-26,0.1818181818181891
2013-11-27,0.3684210526315938
2013-11-28,0.15789473684211341
2013-11-29,0.23076923076924885
2013-12-02,0.25000000000000944
2013-12-03,0.2500000000000048
2013-12-04,0.3571428571428317
2013-12-05,0.6666666666666416
2013-12-06,0.6874999999999714
2013-12-09,0.6874999999999859
2013-12-10,0.9166666666666562
2013-12-11,0.4615384615384616
2013-12-12,0.08333333333332395
2013-12-13,0.5769230769230727
2013-12-16,0.666666666666663
2013-12-17,0.7297297297297298
2013-12-18,0.8823529411764669
2013-12-19,0.9374999999999994
2013-12-20,0.5555555555555536
2013-12-23,0.6129032258064501
2013-12-24,0.5555555555555519
2013-12-25,0.4137931034482775
2013-12-26,0.6250000000000018
2013-12-27,0.8437500000000036
2013-12-30,0.5806451612903242
2013-12-31,0.5357142857142876
2014-01-02,0.7333333333333316
2014-01-03,0.5
2014-01-06,0.38888888888888423
2014-01-07,0.6999999999999955
2014-01-08,0.5833333333333427
2014-01-09,0.2857142857143015
2014-01-10,0.25000000000001377
2014-01-13,0.3333333333333705
2014-01-14,0.5555555555555753
2014-01-15,0.3846153846153869
2014-01-16,0.18750000000000466
2014-01-17,0.13636363636364035
2014-01-20,0.29629629629629795
2014-01-21,0.29629629629629795
2014-01-22,0.5185185185185206
2014-01-23,0.8095238095238105
2014-01-24,1.0
2014-01-27,0.8823529411764708
2014-01-28,0.6923076923076951
2014-01-29,0.6176470588235347
2014-01-30,0.030303030303030814
2014-02-07,0.15789473684210872
2014-02-10,0.1764705882352975
2014-02-11,0.28571428571428586
2014-02-12,0.28571428571428353
2014-02-13,0.6666666666666479
2014-02-14,0.19999999999998433
2014-02-17,0.18181818181817172
2014-02-18,0.4000000000000013
2014-02-19,0.33333333333333953
2014-02-20,0.5263157894736961
2014-02-21,0.5555555555555646
2014-02-24,0.7941176470588243
2014-02-25,0.6774193548387072
2014-02-26,0.7999999999999932
2014-02-27,0.7142857142857034
2014-02-28,0.8529411764705815
2014-03-03,0.4023904382470066
2014-03-04,0.3908889336827221
2014-03-05,0.49339458154506377
2014-03-06,0.6215253429076335
2014-03-07,0.6060552976555443
2014-03-10,0.7880191329435885
2014-03-11,0.9519289230588184
2014-03-12,0.9579227467811153
2014-03-13,0.955348684689936
2014-03-14,0.9538461538461532
2014-03-17,1.0
2014-03-18,0.5468749999999988
2014-03-19,0.22972972972972916
2014-03-20,0.22972972972972935
2014-03-21,0.14285714285714274
2014-03-24,0.18181818181818168
2014-03-25,0.32812500000000083
2014-03-26,0.6428571428571436
2014-03-27,0.45833333333333576
2014-03-28,0.760869565217394
2014-03-31,0.533333333333336
2014-04-01,0.41304347826087107
2014-04-02,0.4705882352941185
2014-04-03,0.6363636363636348
2014-04-04,0.34883720930232337
2014-04-08,0.5135135135135132
2014-04-09,0.6129032258064495
2014-04-10,0.2666666666666656
2014-04-11,0.10000000000000248
2014-04-14,0.3513513513513521
2014-04-15,0.21428571428571347
2014-04-16,0.2978723404255349
2014-04-17,0.3111111111111145
2014-04-18,0.6136363636363652
2014-04-21,0.38297872340425776
2014-04-22,0.4500000000000018
2014-04-23,0.36111111111110916
2014-04-24,0.6153846153846132
2014-04-25,0.2894736842105267
2014-04-28,0.6666666666666666
2014-04-29,0.7045454545454553
2014-04-30,0.6739130434782624
2014-05-05,0.5405405405405409
2014-05-06,0.8076923076923048
2014-05-07,0.11764705882352616
2014-05-08,0.11764705882353158
2014-05-09,0.09523809523809725
2014-05-12,0.10000000000000252
2014-05-13,0.14285714285714346
2014-05-14,0.13636363636363788
2014-05-15,0.07142857142856963
2014-05-16,0.4864864864864883
2014-05-19,0.45000000000000134
2014-05-20,0.4500000000000029
2014-05-21,0.6562500000000004
2014-05-22,0.8709677419354841
2014-05-23,0.4399999999999952
2014-05-26,0.6969696969696927
2014-05-27,0.5833333333333294
2014-05-28,0.6249999999999973
2014-05-29,0.5135135135135115
2014-05-30,0.7575757575757589
2014-06-03,0.38235294117647445
2014-06-04,0.48387096774193783
2014-06-05,0.26666666666666994
2014-06-06,0.26666666666666994
2014-06-09,0.052631578947366794
2014-06-10,0.11538461538461176
2014-06-11,0.03571428571428451
2014-06-12,0.04545454545454376
2014-06-13,0.14285714285714304
2014-06-16,0.5000000000000071
2014-06-17,0.5555555555555597
2014-06-18,1.0
2014-06-19,0.5
2014-06-20,0.6999999999999988
2014-06-23,0.7931034482758607
2014-06-24,0.6363636363636372
2014-06-25,0.6666666666666677
2014-06-26,0.8666666666666681
2014-06-27,0.6590909090909093
2014-06-30,0.48717948717948756
2014-07-01,0.6111111111111107
2014-07-02,0.6666666666666666
2014-07-03,0.36111111111111116
2014-07-04,0.41935483870967816
2014-07-07,0.6060606060606045
2014-07-08,0.6976744186046495
2014-07-09,0.5555555555555525
2014-07-10,0.7142857142857131
2014-07-11,0.8461538461538457
2014-07-14,0.5
2014-07-15,0.06666666666666808
2014-07-16,0.05128205128205244
2014-07-17,0.04761904761904878
2014-07-18,0.2307692307692312
2014-07-21,0.28571428571428675
2014-07-22,0.4137931034482778
2014-07-23,0.7247706422018416
2014-07-24,0.8777777777777735
2014-07-25,0.08472012102874851
2014-07-28,0.42219917012448477
2014-07-29,0.3700000000000027
2014-07-30,0.36596523330283315
2014-07-31,0.3798670465337119
2014-08-01,0.6837606837606751
2014-08-04,0.4427710843373243
2014-08-05,0.8571428571428436
2014-08-06,0.6249999999999966
2014-08-07,0.6999999999999988
2014-08-08,0.8000000000000045
2014-08-11,0.3529411764705921
2014-08-12,0.15000000000000144
2014-08-13,0.34782608695652434
2014-08-14,0.3181818181818185
2014-08-15,0.34782608695652434
2014-08-18,0.739130434782608
2014-08-19,1.0
2014-08-20,1.0
2014-08-21,0.7368421052631612
2014-08-22,0.6000000000000023
2014-08-25,0.1500000000000058
2014-08-26,0.0
2014-08-27,0.0555555555555484
2014-08-28,0.5714285714285697
2014-08-29,0.5925925925925903
2014-09-01,0.899999999999997
2014-09-02,0.9259259259259239
2014-09-03,0.9444444444444434
2014-09-04,0.7037037037037026
2014-09-05,0.7999999999999994
2014-09-09,0.7931034482758617
2014-09-10,0.8124999999999991
2014-09-11,0.48484848484848203
2014-09-12,0.47058823529411514
2014-09-15,0.4375000000000002
2014-09-16,0.4705882352941186
2014-09-17,0.16666666666667027
2014-09-18,0.19354838709677735
2014-09-19,0.41935483870967877
2014-09-22,0.3571428571428549
2014-09-23,0.2592592592592578
2014-09-24,0.4117647058823473
2014-09-25,0.7999999999999968
2014-09-26,0.7499999999999986
2014-09-29,0.8461538461538484
2014-09-30,0.846153846153845
2014-10-08,0.947368421052631
2014-10-09,0.9333333333333328
2014-10-10,0.9285714285714277
2014-10-13,0.4705882352941172
2014-10-14,0.48484848484848536
2014-10-15,0.06250000000000178
2014-10-16,0.0294117647058815
2014-10-17,0.0
2014-10-20,0.06666666666666471
2014-10-21,0.12903225806451246
2014-10-22,0.17391304347825506
2014-10-23,0.30716309186563456
2014-10-24,0.662673392181582
2014-10-27,0.48169889502761987
2014-10-28,0.3284132841328394
2014-10-29,0.5174350267728877
2014-10-30,0.4381082725060827
2014-10-31,0.20780930096519415
2014-11-03,0.4668746286393385
2014-11-04,0.7595307917888603
2014-11-05,0.8421052631578972
2014-11-06,0.625000000000002
2014-11-07,0.7272727272727276
2014-11-10,0.5652173913043467
2014-11-11,0.37499999999999795
2014-11-12,0.041666666666666075
2014-11-13,0.04347826086956477
2014-11-14,0.0
2014-11-17,0.0
2014-11-18,0.4285714285714311
2014-11-19,0.7142857142857175
2014-11-20,0.875000000000001
2014-11-21,0.9629629629629632
2014-11-24,1.0
2014-11-25,0.6896551724137894
2014-11-26,0.46153846153845707
2014-11-27,0.5624999999999998
2014-11-28,0.5000000000000027
2014-12-01,0.3913043478260908
2014-12-02,0.7916666666666695
2014-12-03,1.0
2014-12-04,1.0
2014-12-05,0.8333333333333308
2014-12-08,0.8636363636363618
2014-12-09,0.6923076923076904
2014-12-10,0.6363636363636337
2014-12-11,0.41666666666666824
2014-12-12,0.6363636363636429
2014-12-15,0.13333333333333697
2014-12-16,0.08000000000000218
2014-12-17,0.07692307692307906
2014-12-18,0.06666666666666847
2014-12-19,0.0
2014-12-22,0.0
2014-12-23,0.22222222222222276
2014-12-24,0.1904761904761907
2014-12-25,0.3749999999999968
2014-12-26,0.5454545454545447
2014-12-29,0.7333333333333302
2014-12-30,0.7142857142857092
2014-12-31,1.0
2015-01-05,1.0
2015-01-06,1.0
2015-01-07,1.0
2015-01-08,0.8709677419354861
2015-01-09,0.6875000000000018
2015-01-12,0.7619047619047635
2015-01-13,0.35897435897436114
2015-01-14,0.3076923076923089
2015-01-15,0.41025641025641013
2015-01-16,0.5277777777777775
2015-01-19,0.22580645161290094
2015-01-20,0.4117647058823531
2015-01-21,0.619047619047621
2015-01-22,0.4090909090909098
2015-01-23,0.45833333333333603
2015-01-26,0.5500000000000018
2015-01-27,0.5499999999999962
2015-01-28,0.19999999999999923
2015-01-29,0.22727272727272674
2015-01-30,0.0
2015-02-02,0.0
2015-02-03,0.10000000000000202
2015-02-04,0.4285714285714311
2015-02-05,0.48148148148148356
2015-02-06,0.7368421052631609
2015-02-09,1.0
2015-02-10,0.6666666666666649
2015-02-11,0.14999999999999852
2015-02-12,0.09090909090909001
2015-02-13,0.2857142857142862
2015-02-16,0.37500000000000155
2015-02-17,0.562500000000001
2015-02-25,0.8888888888888902
2015-02-26,1.0
2015-02-27,0.8214285714285704
2015-03-02,0.6923076923076892
2015-03-03,0.49999999999999784
2015-03-04,0.2857142857142837
2015-03-05,0.24999999999999484
2015-03-06,0.44444444444443854
2015-03-09,0.6713925645872679
2015-03-10,0.8278120184899824
2015-03-11,0.9450307827616523
2015-03-12,0.5867112411199388
2015-03-13,0.5010090817356293
2015-03-16,0.025628856193650847
2015-03-17,0.016064257028115692
2015-03-18,0.3757503001200514
2015-03-19,0.47786259541985016
2015-03-20,0.5
2015-03-23,0.8461538461538459
2015-03-24,0.9411764705882352
2015-03-25,0.6153846153846161
2015-03-26,0.7142857142857149
2015-03-27,0.750000000000003
2015-03-30,0.8000000000000025
2015-03-31,0.7647058823529448
2015-04-01,1.0
2015-04-02,0.8461538461538508
2015-04-03,0.846153846153849
2015-04-07,0.38461538461538447
2015-04-08,0.5
2015-04-09,0.600000000000001
2015-04-10,0.7142857142857119
2015-04-13,0.5999999999999989
2015-04-14,0.8750000000000006
2015-04-15,0.6923076923076886
2015-04-16,0.4166666666666562
2015-04-17,0.1818181818181804
2015-04-20,0.1333333333333318
2015-04-21,0.0
2015-04-22,0.0
2015-04-23,0.0
2015-04-24,0.344827586206898
2015-04-27,0.7586206896551753
2015-04-28,0.8181818181818197
2015-04-29,0.916666666666669
2015-04-30,1.0
2015-05-04,1.0
2015-05-05,0.6551724137931028
2015-05-06,0.5999999999999995
2015-05-07,0.44999999999998996
2015-05-08,0.5000000000000021
2015-05-11,0.1935483870967836
2015-05-12,0.28571428571429713
2015-05-13,0.21739130434783674
2015-05-14,0.17241379310345803
2015-05-15,0.0
2015-05-18,0.0
2015-05-19,0.0
2015-05-20,0.0
2015-05-21,0.0
2015-05-22,0.0
2015-05-25,0.28205128205128044
2015-05-26,0.41666666666666213
2015-05-27,0.7142857142857174
2015-05-28,0.6666666666666623
2015-05-29,0.8275862068965449
2015-06-01,0.6499999999999954
2015-06-02,0.5
2015-06-03,0.3571428571428588
2015-06-04,0.6000000000000143
2015-06-05,0.166666666666679
2015-06-08,0.10000000000000436
2015-06-09,0.11111111111112525
2015-06-10,0.5000000000000014
2015-06-11,0.5294117647058864
2015-06-12,0.6428571428571433
2015-06-15,1.0
2015-06-16,1.0
2015-06-17,0.5333333333333314
2015-06-18,0.3571428571428439
2015-06-19,0.23809523809522914
2015-06-23,0.2272727272727119
2015-06-24,0.22727272727272557
2015-06-25,0.2272727272727246
2015-06-26,0.23809523809523866
2015-06-29,0.5263157894736792
2015-06-30,0.7419354838709715
2015-07-01,0.4615384615384651
2015-07-02,0.5454545454545521
2015-07-03,0.7021276595744702
2015-07-06,0.7254901960784337
2015-07-07,0.6410256410256432
2015-07-08,0.9772727272727286
2015-07-09,1.0
2015-07-10,0.9454545454545459
2015-07-13,0.9313725490196079
2015-07-14,0.870370370370371
2015-07-15,0.710280373831776
2015-07-16,0.0
2015-07-17,0.0
2015-07-20,0.07031249999999975
2015-07-21,0.08196721311475344
2015-07-22,0.18119134265466347
2015-07-23,0.5903614457831309
2015-07-24,1.0
2015-07-27,0.7523148148148152
2015-07-28,0.8568561872909702
2015-07-29,0.6678379011478099
2015-07-30,0.687527545174086
2015-07-31,0.6893756845564075
2015-08-03,0.8199953607051731
2015-08-04,0.3265306122448995
2015-08-05,0.4318181818181823
2015-08-06,0.254901960784313
2015-08-07,0.1458333333333336
2015-08-10,0.04918032786885117
2015-08-11,0.31249999999999833
2015-08-12,0.2608695652173915
2015-08-13,0.5000000000000022
2015-08-14,0.4375000000000015
2015-08-17,0.7500000000000036
2015-08-18,0.4390243902439061
2015-08-19,0.511111111111113
2015-08-20,0.33333333333333404
2015-08-21,0.49999999999999867
2015-08-24,0.5581395348837177
2015-08-25,0.8421052631578925
2015-08-26,0.8235294117647032
2015-08-27,1.0
2015-08-28,1.0
2015-08-31,0.8999999999999998
2015-09-01,0.8799999999999994
2015-09-02,0.6000000000000015
2015-09-07,0.37037037037037307
2015-09-08,0.14999999999999683
2015-09-09,0.1428571428571399
2015-09-10,0.4193548387096793
2015-09-11,0.7499999999999974
2015-09-14,0.7499999999999928
2015-09-15,0.7812499999999964
2015-09-16,0.6410256410256393
2015-09-17,0.24999999999999706
2015-09-18,0.09090909090909335
2015-09-21,0.08695652173913318
2015-09-22,0.0
2015-09-23,0.15384615384615288
2015-09-24,0.26086956521739135
2015-09-25,0.4583333333333298
2015-09-28,0.7647058823529382
2015-09-29,0.7222222222222162
2015-09-30,0.46511627906976366
2015-10-08,0.6599999999999983
2015-10-09,0.7166666666666657
2015-10-12,0.5957446808510628
2015-10-13,0.6222222222222217
2015-10-14,0.8888888888888864
2015-10-15,0.5757575757575726
2015-10-16,0.09302325581395351
2015-10-19,0.06779661016949186
2015-10-20,0.06557377049180375
2015-10-21,0.08064516129032138
2015-10-22,0.17543859649122878
2015-10-23,0.30303030303030526
2015-10-26,0.7222222222222252
2015-10-27,0.9333333333333338
2015-10-28,0.9285714285714306
2015-10-29,0.47058823529412086
2015-10-30,0.5000000000000027
2015-11-02,0.38461538461539196
2015-11-03,0.6800000000000019
2015-11-04,0.39393939393939353
2015-11-05,0.6571428571428566
2015-11-06,0.6571428571428566
2015-11-09,0.692307692307692
2015-11-10,0.31818181818181784
2015-11-11,0.41176470588235226
2015-11-12,0.11764705882352931
2015-11-13,0.16666666666666535
2015-11-16,0.058823529411763345
2015-11-17,0.5333333333333311
2015-11-18,0.6571428571428564
2015-11-19,0.9473684210526327
2015-11-20,0.9444444444444458
2015-11-23,0.8717948717948706
2015-11-24,0.6399999999999998
2015-11-25,0.6166950596252104
2015-11-26,0.6260387811634333
2015-11-27,0.6161395856052325
2015-11-30,0.8322259136212619
2015-12-01,0.8229979466119098
2015-12-02,0.7503314184710589
2015-12-03,0.34806849860613204
2015-12-04,0.4152727272727281
2015-12-07,0.11764705882353241
2015-12-08,0.3513513513513531
2015-12-09,0.30232558139535065
2015-12-10,0.4482758620689694
2015-12-11,0.28125000000000056
2015-12-14,0.3461538461538485
2015-12-15,0.055555555555555795
2015-12-16,0.39999999999999325
2015-12-17,0.33333333333332876
2015-12-18,0.749999999999999
2015-12-21,0.7999999999999988
2015-12-22,0.6785714285714298
2015-12-23,0.6086956521739154
2015-12-24,0.800000000000004
2015-12-25,0.28000000000000147
2015-12-28,0.07407407407407507
2015-12-29,0.15999999999999842
2015-12-30,0.2999999999999977
2015-12-31,0.47499999999999654
2016-01-04,0.8108108108108083
2016-01-05,0.9999999999999974
2016-01-06,0.9999999999999974
2016-01-07,0.8064516129032264
2016-01-08,0.5200000000000069
2016-01-11,0.133333333333341
2016-01-12,0.18750000000001263
2016-01-13,0.055555555555560666
2016-01-14,0.21428571428572254
2016-01-15,0.27272727272727776
2016-01-18,0.7741935483870955
2016-01-19,0.7187499999999996
2016-01-20,0.838709677419355
2016-01-21,0.749999999999997
2016-01-22,0.8684210526315773
2016-01-25,0.30769230769230743
2016-01-26,0.4047619047619048
2016-01-27,0.3414634146341472
2016-01-28,0.45454545454545603
2016-01-29,0.22448979591836787
2016-02-01,0.46666666666666506
2016-02-02,0.2727272727272698
2016-02-03,0.26470588235293885
2016-02-04,0.2857142857142854
2016-02-05,0.6206896551724124
2016-02-15,0.6666666666666666
2016-02-16,0.8461538461538479
2016-02-17,0.8799999999999993
2016-02-18,0.5555555555555546
2016-02-19,0.5200000000000036
2016-02-22,0.45454545454545636
2016-02-23,0.7317073170731712
2016-02-24,0.7906976744186054
2016-02-25,1.0
2016-02-26,0.9411764705882346
2016-02-29,0.7000000000000011
2016-03-01,0.4285714285714296
2016-03-02,0.42857142857142716
2016-03-03,0.3333333333333362
2016-03-04,0.6666666666666685
2016-03-07,1.0
2016-03-08,0.581395348837208
2016-03-09,0.7721518987341761
2016-03-10,0.8181818181818171
2016-03-11,0.7882352941176459
2016-03-14,0.8582677165354323
2016-03-15,1.0
2016-03-16,0.7131782945736438
2016-03-17,0.6574074074074079
2016-03-18,0.6605504587155968
2016-03-21,0.27477745628729394
2016-03-22,0.014745212709053917
2016-03-23,0.2986747056481402
2016-03-24,0.35299365062706317
2016-03-25,0.2620797011207953
2016-03-28,0.554307358606622
2016-03-29,0.5416468950681774
2016-03-30,0.28175248760925375
2016-03-31,0.12160480467482328
2016-04-01,0.17241379310345478
2016-04-05,0.0
2016-04-06,0.17500000000000052
2016-04-07,0.16279069767441856
2016-04-08,0.1707317073170731
2016-04-11,0.3818181818181817
2016-04-12,0.5625000000000001
2016-04-13,0.4166666666666654
2016-04-14,0.6428571428571399
2016-04-15,0.8852459016393414
2016-04-18,0.9090909090909066
2016-04-19,0.7356321839080433
2016-04-20,0.8297872340425527
2016-04-21,0.8315789473684212
2016-04-22,0.8632478632478635
2016-04-25,0.8490566037735855
2016-04-26,1.0
2016-04-27,1.0
2016-04-28,0.934065934065934
2016-04-29,0.49450549450549525
2016-05-03,0.276595744680852
2016-05-04,0.0833333333333338
2016-05-05,0.1348314606741565
2016-05-06,0.12244897959183579
2016-05-09,0.5576923076923064
2016-05-10,0.47154471544715243
2016-05-11,0.49999999999999817
2016-05-12,0.353846153846153
2016-05-13,0.39655172413793116
2016-05-16,0.0
2016-05-17,0.22115384615384717
2016-05-18,0.33050847457627247
2016-05-19,0.40625000000000133
2016-05-20,0.4226804123711348
2016-05-23,0.9466666666666664
2016-05-24,0.6233766233766215
2016-05-25,0.4050632911392382
2016-05-26,0.385542168674697
2016-05-27,0.4269662921348288
2016-05-30,0.10666666666666479
2016-05-31,0.17647058823529196
2016-06-01,0.1914893617021263
2016-06-02,0.2093023255813936
2016-06-03,0.017857142857143092
2016-06-06,0.025000000000000373
2016-06-07,0.025000000000003856
2016-06-08,0.28571428571428775
2016-06-13,0.562500000000001
2016-06-14,1.0
2016-06-15,0.68831168831169
2016-06-16,0.6962025316455707
2016-06-17,0.6478873239436633
2016-06-20,0.4142857142857158
2016-06-21,0.045454545454545615
2016-06-22,0.33898305084745756
2016-06-23,0.26153846153846144
2016-06-24,0.2878787878787878
2016-06-27,0.630952380952381
2016-06-28,0.8714285714285712
2016-06-29,0.7213114754098338
2016-06-30,0.8805970149253707
2016-07-01,0.8961038961038937
2016-07-04,0.6730769230769182
2016-07-05,0.7384615384615363
2016-07-06,0.8928571428571429
2016-07-07,0.8846153846153852
2016-07-08,0.8028169014084521
2016-07-11,0.7916666666666677
2016-07-12,0.6923076923076941
2016-07-13,0.20000000000000318
2016-07-14,0.0
2016-07-15,0.0
2016-07-18,0.41975308641975395
2016-07-19,0.33663366336633715
2016-07-20,0.369565217391305
2016-07-21,0.6052631578947376
2016-07-22,0.7480314960629922
2016-07-25,0.5258620689655171
2016-07-26,0.6161616161616161
2016-07-27,0.747663551401869
2016-07-28,0.4128440366972477
2016-07-29,0.20879120879120866
2016-08-01,0.44943820224719017
2016-08-02,0.44943820224718933
2016-08-03,0.23076923076922887
2016-08-04,0.5285714285714243
2016-08-05,0.6428571428571377
2016-08-08,0.303797468354427
2016-08-09,0.4204545454545444
2016-08-10,0.6296296296296309
2016-08-11,0.555361813426333
2016-08-12,0.359397417503592
2016-08-15,0.6204162537165555
2016-08-16,0.6527651858567574
2016-08-17,0.6327900287631846
2016-08-18,0.584120982986767
2016-08-19,0.9381778741865492
2016-08-22,0.6496927129060561
2016-08-23,0.40399239543725884
2016-08-24,0.19696969696969494
2016-08-25,0.41860465116279005
2016-08-26,0.2804878048780493
2016-08-29,0.47435897435897423
2016-08-30,0.474358974358975
2016-08-31,0.6666666666666674
2016-09-01,0.25333333333333274
2016-09-02,0.35616438356164437
2016-09-05,0.17647058823529527
2016-09-06,0.24137931034482693
2016-09-07,0.3529411764705883
2016-09-08,0.6666666666666656
2016-09-09,0.3777777777777761
2016-09-12,0.604166666666666
2016-09-13,0.5869565217391308
2016-09-14,0.206896551724139
2016-09-19,0.25862068965517304
2016-09-20,0.42553191489361547
2016-09-21,0.13559322033897936
2016-09-22,0.3461538461538441
2016-09-23,0.5471698113207518
2016-09-26,0.5199999999999987
2016-09-27,0.47826086956521896
2016-09-28,1.0
2016-09-29,0.4000000000000077
2016-09-30,0.5588235294117685
2016-10-10,0.6428571428571433
2016-10-11,0.5909090909090916
2016-10-12,0.5609756097560957
2016-10-13,0.5476190476190467
2016-10-14,0.62
2016-10-17,0.45098039215686286
2016-10-18,0.48979591836734615
2016-10-19,0.5614035087719308
2016-10-20,0.8269230769230773
2016-10-21,0.4615384615384614
2016-10-24,0.6481481481481476
2016-10-25,0.7246376811594204
2016-10-26,0.7205882352941175
2016-10-27,0.7323943661971832
2016-10-28,1.0
2016-10-31,0.9545454545454553
2016-11-01,0.8245614035087717
2016-11-02,0.6923076923076923
2016-11-03,0.43137254901960725
2016-11-04,0.0
2016-11-07,0.5161290322580627
2016-11-08,0.6122448979591825
2016-11-09,0.7333333333333324
2016-11-10,0.8592592592592592
2016-11-11,1.0
2016-11-14,1.0
2016-11-15,1.0
2016-11-16,0.8625000000000003
2016-11-17,0.85430463576159
2016-11-18,0.8513513513513523
2016-11-21,0.5030674846625777
2016-11-22,0.28187919463087446
2016-11-23,0.33070866141732547
2016-11-24,0.42953020134228254
2016-11-25,0.32283464566929065
2016-11-28,0.6653896307378119
2016-11-29,0.991449951531125
2016-11-30,0.991666496733889
2016-12-01,0.9879901648658399
2016-12-02,1.0
2016-12-05,1.0
2016-12-06,0.5361284204034381
2016-12-07,0.6527206676656115
2016-12-08,0.5252745017561595
2016-12-09,0.3705583756345209
2016-12-12,0.295454545454547
2016-12-13,0.41600000000000287
2016-12-14,0.062499999999999
2016-12-15,0.09615384615384574
2016-12-16,0.07575757575757439
2016-12-19,0.0
2016-12-20,0.0
2016-12-21,0.0
2016-12-22,0.022900763358779223
2016-12-23,0.02727272727272796
2016-12-26,0.041666666666667664
2016-12-27,0.24418604651162681
2016-12-28,0.49999999999999667
2016-12-29,0.27692307692307355
2016-12-30,0.5714285714285696
2017-01-03,0.6585365853658518
2017-01-04,0.43373493975903615
2017-01-05,0.428571428571429
2017-01-06,0.6333333333333333
2017-01-09,0.6333333333333347
2017-01-10,0.38709677419354865
2017-01-11,0.47058823529411764
2017-01-12,0.5862068965517248
2017-01-13,0.5862068965517281
2017-01-16,0.6571428571428564
2017-01-17,0.9012345679012358
2017-01-18,1.0
2017-01-19,0.909836065573774
2017-01-20,0.9251700680272136
2017-01-23,0.52577319587629
2017-01-24,0.4802259887005652
2017-01-25,0.2298136645962722
2017-01-26,0.31515151515151146
2017-02-03,0.38586956521739046
2017-02-06,0.7117117117117133
2017-02-07,0.5227272727272746
2017-02-08,0.7102803738317767
2017-02-09,0.5126050420168098
2017-02-10,0.2368421052631612
2017-02-13,0.3555555555555528
2017-02-14,0.38095238095237716
2017-02-15,0.3658536585365788
2017-02-16,0.7641509433962241
2017-02-17,0.4457142857142829
2017-02-20,0.335329341317364
2017-02-21,0.4787878787878791
2017-02-22,0.44047619047619263
2017-02-23,0.16546762589928235
2017-02-24,0.564356435643564
2017-02-27,0.7692307692307684
2017-02-28,0.6874999999999966
2017-03-01,0.6695652173913011
2017-03-02,0.6754385964912272
2017-03-03,0.44329896907216854
2017-03-06,0.0
2017-03-07,0.0
2017-03-08,0.04166666666666671
2017-03-09,0.2380952380952358
2017-03-10,0.17441860465115946
2017-03-13,0.31249999999999617
2017-03-14,0.452054794520541
2017-03-15,0.6874999999999983
2017-03-16,0.6638655462184877
2017-03-17,1.0
2017-03-20,0.5579710144927559
2017-03-21,0.6303030303030325
2017-03-22,0.3108108108108118
2017-03-23,0.26242113668935235
2017-03-24,0.2795770573772184
2017-03-27,0.6295205762310063
2017-03-28,0.4725916704261882
2017-03-29,0.6693049243397645
2017-03-30,0.8409777158393822
2017-03-31,0.8558486032585498
2017-04-05,0.5699620552518114
2017-04-06,0.6759250074397352
2017-04-07,0.7127659574468059
2017-04-10,0.46739130434782095
2017-04-11,0.16666666666666513
2017-04-12,0.18888888888888836
2017-04-13,0.21111111111110903
2017-04-14,0.018348623853209532
2017-04-17,0.2056074766355141
2017-04-18,0.5148514851485148
2017-04-19,0.5416666666666655
2017-04-20,0.6173913043478254
2017-04-21,0.9215686274509792
2017-04-24,0.8604651162790689
2017-04-25,0.5000000000000006
2017-04-26,0.6043956043956062
2017-04-27,0.3400000000000025
2017-04-28,0.11578947368421161
2017-05-02,0.09909909909910017
2017-05-03,0.1309523809523818
2017-05-04,0.27000000000000074
2017-05-05,0.499999999999998
2017-05-08,0.6951219512195125
2017-05-09,0.8769230769230695
2017-05-10,0.9516129032258022
2017-05-11,0.9268292682926768
2017-05-12,0.666666666666666
2017-05-15,0.24242424242424446
2017-05-16,0.25806451612903575
2017-05-17,0.452380952380951
2017-05-18,0.15476190476190463
2017-05-19,0.43749999999999917
2017-05-22,0.4454545454545453
2017-05-23,0.5312499999999996
2017-05-24,0.5419847328244265
2017-05-25,0.8723404255319152
2017-05-26,0.4144144144144129
2017-05-31,0.6044776119402978
2017-06-01,0.4769230769230773
2017-06-02,0.32624113475177424
2017-06-05,0.2857142857142859
2017-06-06,0.528089887640451
2017-06-07,0.12499999999999946
2017-06-08,0.18823529411764683
2017-06-09,0.2191780821917803
2017-06-12,0.16250000000000164
2017-06-13,0.12987012987012955
2017-06-14,0.5283018867924536
2017-06-15,0.5
2017-06-16,0.7826086956521761
2017-06-19,0.923076923076921
2017-06-20,0.6122448979591842
2017-06-21,0.2857142857142874
2017-06-22,0.2500000000000014
2017-06-23,0.0
2017-06-26,0.0
2017-06-27,0.47222222222222104
2017-06-28,0.4533333333333324
2017-06-29,0.6041666666666671
2017-06-30,0.6923076923076932
2017-07-03,0.858585858585859
2017-07-04,0.8108108108108119
2017-07-05,1.0
2017-07-06,0.7142857142857111
2017-07-07,0.7499999999999978
2017-07-10,0.5205479452054783
2017-07-11,0.34117647058823336
2017-07-12,0.2432432432432459
2017-07-13,0.3050847457627166
2017-07-14,0.06666666666667093
2017-07-17,0.44897959183674024
2017-07-18,0.8604651162790754
2017-07-19,0.8666666666666711
2017-07-20,0.9821428571428574
2017-07-21,0.8730158730158692
2017-07-24,0.836734693877545
2017-07-25,0.4905660377358429
2017-07-26,0.4905660377358459
2017-07-27,0.18518518518518376
2017-07-28,0.1886792452830201
2017-07-31,0.4941176470588288
2017-08-01,0.538518284329227
2017-08-02,0.4529346003353855
2017-08-03,0.672297698950533
2017-08-04,0.7724533456539623
2017-08-07,0.6900311952714506
2017-08-08,0.9078159028214698
2017-08-09,1.0
2017-08-10,0.9494903662059132
2017-08-11,0.9664727315467804
2017-08-14,0.6397515527950307
2017-08-15,0.41935483870967455
2017-08-16,0.3397435897435875
2017-08-17,0.4734042553191458
2017-08-18,0.24489795918367127
2017-08-21,0.5808823529411732
2017-08-22,0.7619047619047595
2017-08-23,0.9124087591240885
2017-08-24,0.7478991596638677
2017-08-25,0.6641791044776123
2017-08-28,0.4554455445544593
2017-08-29,0.5528455284552871
2017-08-30,0.19008264462809946
2017-08-31,0.2211538461538463
2017-09-01,0.2705882352941202
2017-09-04,0.29113924050632994
2017-09-05,0.0
2017-09-06,0.5657894736842103
2017-09-07,0.43434343434343414
2017-09-08,0.5714285714285695
2017-09-11,0.4705882352941168
2017-09-12,0.5806451612903224
2017-09-13,0.2685185185185185
2017-09-14,0.4859813084112158
2017-09-15,0.24999999999999986
2017-09-18,0.3434343434343412
2017-09-19,0.2599999999999991
2017-09-20,0.2888888888888891
2017-09-21,0.05882352941176203
2017-09-22,0.1290322580645147
2017-09-25,0.0270270270270272
2017-09-26,0.02564102564102538
2017-09-27,0.04545454545454394
2017-09-28,0.36363636363636137
2017-09-29,0.44444444444443953
2017-10-09,0.7799999999999886
2017-10-10,0.9999999999999901
2017-10-11,0.7857142857142884
2017-10-12,0.5
2017-10-13,0.5492957746478863
2017-10-16,0.24242424242424263
2017-10-17,0.3589743589743588
2017-10-18,0.47945205479451747
2017-10-19,0.5932203389830498
2017-10-20,0.64705882352941
2017-10-23,0.9000000000000022
2017-10-24,0.637931034482758
2017-10-25,0.63793103448276
2017-10-26,0.45679012345679004
2017-10-27,0.25757575757576184
2017-10-30,0.08860759493671054
2017-10-31,0.10000000000000199
2017-11-01,0.0
2017-11-02,0.41428571428571576
2017-11-03,0.29896907216494867
2017-11-06,0.5871559633027513
2017-11-07,0.635514018691588
2017-11-08,0.6538461538461517
2017-11-09,0.5499999999999973
2017-11-10,0.9272727272727234
2017-11-13,0.31372549019607626
2017-11-14,0.2181818181818165
2017-11-15,0.5243902439024383
2017-11-16,0.40425531914893564
2017-11-17,0.3444444444444444
2017-11-20,0.5692307692307703
2017-11-21,0.6166666666666694
2017-11-22,0.10344827586207182
2017-11-23,0.1414571793779331
2017-11-24,0.22374344023324355
2017-11-27,0.0818492453214502
2017-11-28,0.20189408417208773
2017-11-29,0.6332139093782965
2017-11-30,0.7707278729759507
2017-12-01,0.5999253538514558
2017-12-04,0.8833702026054272
2017-12-05,0.8867522460321497
2017-12-06,0.9014084507042233
2017-12-07,0.9186046511627886
2017-12-08,1.0
2017-12-11,0.8749999999999993
2017-12-12,0.8749999999999998
2017-12-13,0.7499999999999969
2017-12-14,0.3026315789473652
2017-12-15,0.12698412698412695
2017-12-18,0.33333333333333115
2017-12-19,0.21126760563380095
2017-12-20,0.17647058823529316
2017-12-21,0.514705882352943
2017-12-22,0.5507246376811616
2017-12-25,0.3650793650793688
2017-12-26,0.4181818181818206
2017-12-27,0.7027027027027035
2017-12-28,0.15000000000000518
2017-12-29,0.19047619047619116
2018-01-02,0.13793103448275892
2018-01-03,0.13559322033898458
2018-01-04,0.14999999999999739
2018-01-05,0.5172413793103442
2018-01-08,0.48148148148148023
2018-01-09,0.5909090909090933
2018-01-10,0.6511627906976715
2018-01-11,0.5853658536585328
2018-01-12,0.1034482758620641
2018-01-15,0.043478260869563086
2018-01-16,0.36956521739130394
2018-01-17,0.28846153846153827
2018-01-18,0.28301886792453085
2018-01-19,0.2777777777777805
2018-01-22,0.3488372093023283
2018-01-23,0.3777777777777758
2018-01-24,0.4250000000000001
2018-01-25,0.6153846153846136
2018-01-26,0.7826086956521711
2018-01-29,0.9285714285714269
2018-01-30,0.3859649122807026
2018-01-31,0.5428571428571436
2018-02-01,0.315068493150685
2018-02-02,0.24675324675324553
2018-02-05,0.27499999999999697
2018-02-06,0.5517241379310291
2018-02-07,0.29629629629629317
2018-02-08,0.4210526315789435
2018-02-09,0.6500000000000065
2018-02-12,0.43478260869566154
2018-02-13,0.23255813953489515
2018-02-14,0.4166666666666781
2018-02-22,0.5681818181818243
2018-02-23,0.3658536585365839
2018-02-26,0.6111111111111118
2018-02-27,0.7941176470588184
2018-02-28,0.5365853658536544
2018-03-01,0.292682926829261
2018-03-02,0.3243243243243167
2018-03-05,0.4791666666666629
2018-03-06,0.3529411764705931
2018-03-07,0.5434782608695657
2018-03-08,0.7843137254902025
2018-03-09,0.8857142857142916
2018-03-12,0.676923076923081
2018-03-13,0.7586206896551724
2018-03-14,0.7741935483870988
2018-03-15,0.5409836065573763
2018-03-16,0.16666666666666866
2018-03-19,0.37313432835820953
2018-03-20,0.45333333333333053
2018-03-21,0.31081081081080586
2018-03-22,0.43939393939393623
2018-03-23,0.8947368421052622
2018-03-26,0.676190476190475
2018-03-27,0.6326530612244903
2018-03-28,0.750000000000001
2018-03-29,0.7346938775510206
2018-03-30,0.17777777777777776
2018-04-02,0.45652173913043514
2018-04-03,0.5428571428571433
2018-04-04,0.49252277943938416
2018-04-09,0.5088522383036034
2018-04-10,0.9646503318019385
2018-04-11,0.5853618954884796
2018-04-12,0.2530993705893593
2018-04-13,0.06934571304221512
2018-04-16,0.29202074826178154
2018-04-17,0.2914738929279582
2018-04-18,0.3317452357071211
2018-04-19,0.5499999999999976
2018-04-20,0.8039215686274488
2018-04-23,0.7142857142857086
2018-04-24,0.6944444444444405
2018-04-25,0.8965517241379315
2018-04-26,0.28205128205128
2018-04-27,0.09090909090908623
2018-05-02,0.020833333333333585
2018-05-03,0.04347826086956344
2018-05-04,0.021276595744678873
2018-05-07,0.38235294117646734
2018-05-08,0.2888888888888844
2018-05-09,0.30952380952380437
2018-05-10,0.2857142857142821
2018-05-11,0.4909090909090866
2018-05-14,0.2678571428571417
2018-05-15,0.4716981132075489
2018-05-16,0.7200000000000054
2018-05-17,0.6666666666666738
2018-05-18,0.40384615384616324
2018-05-21,0.6538461538461604
2018-05-22,0.5714285714285782
2018-05-23,0.3421052631578958
2018-05-24,0.3714285714285721
2018-05-25,0.6666666666666637
2018-05-28,0.24999999999999414
2018-05-29,0.3999999999999955
2018-05-30,0.7142857142857169
2018-05-31,0.8285714285714291
2018-06-01,0.8000000000000016
2018-06-04,0.7500000000000009
2018-06-05,0.5000000000000029
2018-06-06,0.23684210526315624
2018-06-07,0.0
2018-06-08,0.0
2018-06-11,3.716163920702604e-15
2018-06-12,5.0539829321554405e-15
2018-06-13,7.43232784140507e-15
2018-06-14,5.05398293215551e-15
2018-06-15,0.18750000000000352
2018-06-19,0.759259259259253
2018-06-20,0.6949152542372858
2018-06-21,0.7192982456140349
2018-06-22,0.8653846153846162
2018-06-25,0.8750000000000007
2018-06-26,0.19642857142857773
2018-06-27,0.22000000000000738
2018-06-28,0.21568627450980504
2018-06-29,0.1836734693877521
2018-07-02,0.14893617021276198
2018-07-03,0.46666666666665413
2018-07-04,0.5333333333333184
2018-07-05,0.6470588235294045
2018-07-06,0.4736842105263211
2018-07-09,0.17391304347826536
2018-07-10,0.23529411764706706
2018-07-11,0.6285714285714377
2018-07-12,0.5277777777777846
2018-07-13,0.5428571428571467
2018-07-16,0.5937500000000007
2018-07-17,0.558823529411765
2018-07-18,0.0
2018-07-19,0.057142857142863705
2018-07-20,0.11764705882353285
2018-07-23,0.13333333333333772
2018-07-24,0.17241379310344968
2018-07-25,0.714285714285702
2018-07-26,0.23076923076921096
2018-07-27,0.6969696969696875
2018-07-30,0.7894736842105153
2018-07-31,0.7631578947368344
2018-08-01,0.8548387096774173
2018-08-02,0.983050847457629
2018-08-03,0.7500000000000019
2018-08-06,0.848101265822785
2018-08-07,0.8777777777777769
2018-08-08,0.7093486263805052
2018-08-09,0.6961939165488698
2018-08-10,0.8214199831670056
2018-08-13,0.24241382543204001
2018-08-14,0.28986144066554537
2018-08-15,0.3275405494869167
2018-08-16,0.5896291208791188
2018-08-17,0.6224539101992275
2018-08-20,0.9484006507564415
2018-08-21,0.9354838709677441
2018-08-22,1.0
2018-08-23,0.42187500000000416
2018-08-24,0.22972972972973243
2018-08-27,0.2191780821917824
2018-08-28,0.15151515151515094
2018-08-29,0.06000000000000029
2018-08-30,0.12307692307692548
2018-08-31,0.16666666666666982
2018-09-03,0.03333333333333539
2018-09-04,0.11428571428571829
2018-09-05,0.12500000000000305
2018-09-06,0.29999999999999605
2018-09-07,0.48979591836734326
2018-09-10,0.7812499999999939
2018-09-11,0.8055555555555509
2018-09-12,1.0
2018-09-13,0.8333333333333415
2018-09-14,0.5294117647058934
2018-09-17,0.5151515151515279
2018-09-18,0.39285714285715057
2018-09-19,0.0
2018-09-20,0.0
2018-09-21,0.0
2018-09-25,0.0
2018-09-26,0.0
2018-09-27,0.045454545454540016
2018-09-28,0.42857142857142555
2018-10-08,0.75
2018-10-09,0.9374999999999998
2018-10-10,1.0
2018-10-11,1.0
2018-10-12,0.8484848484848495
2018-10-15,0.799999999999998
2018-10-16,0.3333333333333331
2018-10-17,0.6279069767441884
2018-10-18,0.6734693877551007
2018-10-19,0.7333333333333331
2018-10-22,0.7551020408163285
2018-10-23,0.9749999999999998
2018-10-24,0.9473684210526306
2018-10-25,0.3043478260869597
2018-10-26,0.42307692307692696
2018-10-29,0.24000000000000443
2018-10-30,0.16666666666666988
2018-10-31,0.09523809523809658
2018-11-01,0.410256410256412
2018-11-02,0.5818181818181837
2018-11-05,0.6274509803921553
2018-11-06,0.6603773584905648
2018-11-07,0.8536585365853627
2018-11-08,0.605263157894734
2018-11-09,0.08333333333333333
2018-11-12,0.24999999999999875
2018-11-13,0.2666666666666616
2018-11-14,0.3076923076923023
2018-11-15,0.28571428571428215
2018-11-16,0.5200000000000004
2018-11-19,0.3684210526315793
2018-11-20,0.4285714285714335
2018-11-21,0.8064516129032282
2018-11-22,1.0
2018-11-23,1.0
2018-11-26,1.0
2018-11-27,1.0
2018-11-28,0.5084745762711854
2018-11-29,0.34999999999999887
2018-11-30,0.07929599777170449
2018-12-03,0.40192918772828773
2018-12-04,0.345388806948543
2018-12-05,0.45647259485874475
2018-12-06,0.6143228098947663
2018-12-07,0.7984474428470424
2018-12-10,0.2595835815032146
2018-12-11,0.28570631555456627
2018-12-12,0.2926787449277052
2018-12-13,0.07142857142857384
2018-12-14,0.0
2018-12-17,0.0
2018-12-18,0.0
2018-12-19,0.0
2018-12-20,0.2812499999999989
2018-12-21,0.3913043478260887
2018-12-24,0.5517241379310361
2018-12-25,0.7222222222222198
2018-12-26,0.9375000000000018
2018-12-27,0.874999999999997
2018-12-28,0.9130434782608579
2019-01-02,0.5833333333333335
2019-01-03,0.2500000000000088
2019-01-04,0.45454545454545525
2019-01-07,0.3703703703703722
2019-01-08,0.4285714285714375
2019-01-09,0.5999999999999931
2019-01-10,0.42857142857141667
2019-01-11,0.05405405405405768
2019-01-14,0.1470588235294098
2019-01-15,0.2162162162162073
2019-01-16,0.1860465116279024
2019-01-17,0.32432432432432906
2019-01-18,0.8695652173913077
2019-01-21,0.863636363636368
2019-01-22,0.8666666666666712
2019-01-23,0.9512195121951211
2019-01-24,0.9487179487179469
2019-01-25,0.25714285714285606
2019-01-28,0.6829268292682928
2019-01-29,0.6666666666666657
2019-01-30,0.8000000000000012
2019-01-31,0.8248175182481774
2019-02-01,1.0
2019-02-11,0.6510416666666673
2019-02-12,0.6854460093896724
2019-02-13,0.5698324022346382
2019-02-14,0.5246913580246909
2019-02-15,0.17985611510791383
2019-02-18,0.560747663551402
2019-02-19,0.31896551724137795
2019-02-20,0.3611111111111086
2019-02-21,0.31623931623931495
2019-02-22,0.48809523809523764
2019-02-25,0.3281250000000011
2019-02-26,0.7317073170731729
2019-02-27,0.4912280701754402
2019-02-28,0.6326530612244888
2019-03-01,0.5744680851063803
2019-03-04,0.4285714285714192
2019-03-05,0.21428571428569734
2019-03-06,0.7499999999999757
2019-03-07,0.6428571428571265
2019-03-08,0.33333333333332155
2019-03-11,0.11764705882352985
2019-03-12,0.20370370370370858
2019-03-13,0.08928571428571826
2019-03-14,0.35064935064935326
2019-03-15,0.4776119402985134
2019-03-18,0.8518518518518512
2019-03-19,0.8199999999999981
2019-03-20,0.9891304347826083
2019-03-21,0.7582417582417599
2019-03-22,0.6530612244897941
2019-03-25,0.47169811320754634
2019-03-26,0.4310344827586196
2019-03-27,0.0
2019-03-28,0.0
2019-03-29,0.3437499999999994
2019-04-01,0.5059523809523798
2019-04-02,0.6065573770491801
2019-04-03,0.9374999999999993
2019-04-04,1.0
2019-04-08,0.9090909090909095
2019-04-09,0.8648755955532051
2019-04-10,0.659778201952961
2019-04-11,0.13149554806579936
2019-04-12,0.16961657592489124
2019-04-15,0.15662361656392548
2019-04-16,0.23028467494326207
2019-04-17,0.4474360653590461
2019-04-18,0.5690295982426363
2019-04-19,0.3463423760523842
2019-04-22,0.46666666666666495
2019-04-23,0.24137931034482735
2019-04-24,0.02352941176470546
2019-04-25,0.053333333333332546
2019-04-26,0.1639344262295066
2019-04-29,0.11594202898550676
2019-04-30,0.4255319148936186
2019-05-06,0.7435897435897494
2019-05-07,0.8571428571428609
2019-05-08,0.8507462686567205
2019-05-09,0.890624999999997
2019-05-10,0.8906249999999962
2019-05-13,0.6956521739130433
2019-05-14,0.33333333333333
2019-05-15,0.42307692307691697
2019-05-16,0.7088607594936711
2019-05-17,0.7356321839080469
2019-05-20,0.888888888888888
2019-05-21,1.0
2019-05-22,1.0
2019-05-23,0.5526315789473697
2019-05-24,0.23404255319149112
2019-05-27,0.46666666666666784
2019-05-28,0.47826086956521735
2019-05-29,0.4210526315789468
2019-05-30,0.6293103448275859
2019-05-31,0.9444444444444454
2019-06-03,0.47999999999999793
2019-06-04,0.30851063829787356
2019-06-05,0.2710280373831779
2019-06-06,0.27777777777778134
2019-06-10,0.2427184466019434
2019-06-11,0.5510204081632681
2019-06-12,0.7600000000000008
2019-06-13,1.0
2019-06-14,0.8732394366197155
2019-06-17,0.7534246575342469
2019-06-18,0.5000000000000022
2019-06-19,0.6533333333333302
2019-06-20,0.7547169811320741
2019-06-21,0.8411214953271043
2019-06-24,0.9333333333333337
2019-06-25,0.8888888888888877
2019-06-26,0.8349514563106819
2019-06-27,0.3720930232558169
2019-06-28,0.23404255319148848
2019-07-01,0.257731958762886
2019-07-02,0.4368932038834972
2019-07-03,0.40178571428571513
2019-07-04,0.722222222222221
2019-07-05,0.928571428571429
2019-07-08,0.9097222222222222
2019-07-09,0.8880000000000005
2019-07-10,0.9098360655737684
2019-07-11,0.5454545454545455
2019-07-12,0.0
2019-07-15,0.0
2019-07-16,0.0
2019-07-17,0.09729729729729687
2019-07-18,0.1323529411764699
2019-07-19,0.6516853932584294
2019-07-22,0.6373626373626341
2019-07-23,0.6304347826086902
2019-07-24,0.6222222222222186
2019-07-25,0.6086956521739071
2019-07-26,0.19512195121951167
2019-07-29,0.16161616161616213
2019-07-30,0.35849056603773655
2019-07-31,0.1880341880341887
2019-08-01,0.3028454545926521
2019-08-02,0.4587527365678872
2019-08-05,0.8164337300013824
2019-08-06,0.6776699732425423
2019-08-07,0.8876270621250886
2019-08-08,0.8696874910322262
2019-08-09,0.8876351669017394
2019-08-12,0.7349217861864247
2019-08-13,0.8905048266326406
2019-08-14,0.4757281553398057
2019-08-15,0.5350877192982446
2019-08-16,0.258620689655172
2019-08-19,0.26086956521739224
2019-08-20,0.09600000000000009
2019-08-21,0.2282608695652198
2019-08-22,0.10975609756097866
2019-08-23,0.20000000000000354
2019-08-26,0.23809523809523975
2019-08-27,0.8260869565217409
2019-08-28,0.37037037037036286
2019-08-29,0.2272727272727205
2019-08-30,0.3703703703703656
2019-09-02,0.3389830508474565
2019-09-03,0.18965517241379312
2019-09-04,0.22448979591837034
2019-09-05,0.536585365853667
2019-09-06,0.42424242424243025
2019-09-09,0.7446808510638343
2019-09-10,0.9130434782608765
2019-09-11,1.0
2019-09-12,1.0
2019-09-16,0.6530612244898003
2019-09-17,0.1929824561403594
2019-09-18,0.23333333333333858
2019-09-19,0.4177215189873457
2019-09-20,0.33695652173912866
2019-09-23,0.421052631578945
2019-09-24,0.7540983606557298
2019-09-25,0.47368421052631005
2019-09-26,0.1948051948051918
2019-09-27,0.23437499999999786
2019-09-30,0.402439024390241
2019-10-08,0.2289156626506009
2019-10-09,0.5301204819277111
2019-10-10,0.7733333333333311
2019-10-11,0.8101265822784802
2019-10-14,0.6338028169014092
2019-10-15,0.7031250000000009
2019-10-16,0.6415094339622651
2019-10-17,0.3174603174603215
2019-10-18,0.34848484848485217
2019-10-21,0.31081081081081247
2019-10-22,0.30666666666666886
2019-10-23,0.09574468085106465
2019-10-24,0.12500000000000105
2019-10-25,0.0
2019-10-28,0.015873015873016413
2019-10-29,0.016666666666667135
2019-10-30,0.07142857142855574
2019-10-31,0.06060606060604706
2019-11-01,0.43478260869564106
2019-11-04,0.33333333333332227
2019-11-05,0.6249999999999979
2019-11-06,0.4750000000000056
2019-11-07,0.6744186046511659
2019-11-08,0.538461538461538
2019-11-11,0.5384615384615403
2019-11-12,0.6170212765957449
2019-11-13,0.7749999999999999
2019-11-14,0.75
2019-11-15,0.7714285714285762
2019-11-18,0.900000000000002
2019-11-19,0.2222222222222269
2019-11-20,0.33333333333333365
2019-11-21,0.1702127659574478
2019-11-22,0.28000000000000225
2019-11-25,0.5000000000000011
2019-11-26,0.8333333333333336
2019-11-27,0.8166666666666667
2019-11-28,0.9800000000000026
2019-11-29,0.7543859649122786
2019-12-02,0.6499999999999962
2019-12-03,0.15555555555555062
2019-12-04,0.3090909090909069
2019-12-05,0.32727272727272294
2019-12-06,0.4550544323483641
2019-12-09,0.630379746835443
2019-12-10,1.0
2019-12-11,0.7993767976989451
2019-12-12,0.8230443974630026
2019-12-13,0.8479564032697547
2019-12-16,0.5919454506712145
2019-12-17,0.41159343568025675
2019-12-18,0.41050686378036316
2019-12-19,0.43137254901961064
2019-12-20,0.2380952380952433
2019-12-23,0.17857142857143088
2019-12-24,0.16393442622950927
2019-12-25,0.21568627450980143
2019-12-26,0.017857142857139158
2019-12-27,0.054545454545452385
2019-12-30,0.0882352941176429
2019-12-31,0.1153846153846106
2020-01-02,0.3030303030302975
2020-01-03,0.679999999999995
2020-01-06,0.4166666666666595
2020-01-07,0.3846153846153791
2020-01-08,0.5964912280701714
2020-01-09,0.6666666666666659
2020-01-10,0.49367088607595055
2020-01-13,0.6250000000000029
2020-01-14,0.7926829268292704
2020-01-15,0.5476190476190501
2020-01-16,0.3170731707317078
2020-01-17,0.4583333333333311
2020-01-20,0.3802816901408404
2020-01-21,0.10294117647058501
2020-01-22,0.41176470588235203
2020-01-23,0.7105263157894744
2020-02-03,0.5164835164835196
2020-02-04,0.7067669172932357
2020-02-05,0.8405797101449287
2020-02-06,0.813559322033899
2020-02-07,0.5737704918032768
2020-02-10,0.7520661157024766
2020-02-11,0.5641025641025591
2020-02-12,0.36065573770491266
2020-02-13,0.27631578947368235
2020-02-14,0.4200000000000015
2020-02-17,0.39583333333333753
2020-02-18,0.2289156626506045
2020-02-19,0.22352941176470803
2020-02-20,0.5283018867924545
2020-02-21,0.5855855855855848
2020-02-24,0.5053763440860187
2020-02-25,0.9
2020-02-26,1.0
2020-02-27,0.6301369863013678
2020-02-28,0.6400000000000002
2020-03-02,0.7545454545454556
2020-03-03,0.7352941176470593
2020-03-04,0.6785714285714308
2020-03-05,0.8769230769230794
2020-03-06,0.6969696969697003
2020-03-09,0.1562500000000022
2020-03-10,0.19402985074627163
2020-03-11,0.13749999999999976
2020-03-12,0.31460674157303303
2020-03-13,0.5882352941176457
2020-03-16,0.7142857142857151
2020-03-17,0.5514018691588777
2020-03-18,0.6972477064220174
2020-03-19,0.7591240875912402
2020-03-20,0.6732673267326724
2020-03-23,0.7999999999999977
2020-03-24,1.0
2020-03-25,0.835164835164835
2020-03-26,0.303921568627453
2020-03-27,0.16891891891892047
2020-03-30,0.0866666666666684
2020-03-31,0.0
2020-04-01,0.1840657119347835
2020-04-02,0.4910121067206008
2020-04-03,0.7297377232142859
2020-04-07,0.811906251448168
2020-04-08,1.0
2020-04-09,0.8162201277633113
2020-04-10,0.4278395291531495
2020-04-13,0.28384619699698876
2020-04-14,0.22950819672130904
2020-04-15,0.0
2020-04-16,0.0
2020-04-17,0.07017543859649282
2020-04-20,0.08510638297872587
2020-04-21,0.24000000000000496
2020-04-22,0.6976744186046581
2020-04-23,0.8974358974359015
2020-04-24,0.7045454545454517
2020-04-27,0.7380952380952346
2020-04-28,0.5749999999999919
2020-04-29,0.10638297872339855
2020-04-30,0.0
2020-05-06,0.0
2020-05-07,0.14634146341463083
2020-05-08,0.1538461538461521
2020-05-11,0.6190476190476333
2020-05-12,0.5416666666666696
2020-05-13,0.6071428571428641
2020-05-14,0.305555555555565
2020-05-15,0.6250000000000009
2020-05-18,0.8090909090909083
2020-05-19,0.8852459016393439
2020-05-20,0.8739495798319296
2020-05-21,0.9926470588235269
2020-05-22,0.9249999999999992
2020-05-25,0.49019607843137347
2020-05-26,0.47474747474747453
2020-05-27,0.5750000000000013
2020-05-28,0.3518518518518513
2020-05-29,0.5633802816901393
2020-06-01,0.8492063492063475
2020-06-02,0.812499999999995
2020-06-03,0.6509433962264102
2020-06-04,0.8604651162790664
2020-06-05,0.49999999999999567
2020-06-08,0.5208333333333317
2020-06-09,0.46875000000000144
2020-06-10,0.551948051948053
2020-06-11,0.2986111111111134
2020-06-12,0.5967741935483922
2020-06-15,0.3203125000000021
2020-06-16,0.43902439024390244
2020-06-17,0.41525423728813665
2020-06-18,0.5568181818181789
2020-06-19,0.19354838709677102
2020-06-22,0.23684210526315488
2020-06-23,0.058823529411765524
2020-06-24,0.0
2020-06-29,0.2601626016260181
2020-06-30,0.3820224719101172
2020-07-01,0.4657534246575379
2020-07-02,0.6415094339622646
2020-07-03,0.6538461538461549
2020-07-06,0.04347826086956838
2020-07-07,0.3124999999999985
2020-07-08,0.44444444444444264
2020-07-09,0.5365853658536576
2020-07-10,0.6486486486486472
2020-07-13,1.0
2020-07-14,0.9268292682926849
2020-07-15,0.7710843373493966
2020-07-16,0.7397260273972588
2020-07-17,0.7934782608695643
2020-07-20,0.26041666666666574
2020-07-21,0.45378151260503874
2020-07-22,0.5593220338983041
2020-07-23,0.5555555555555556
2020-07-24,0.5438596491228063
2020-07-27,1.0
2020-07-28,0.662500000000006
2020-07-29,0.6029411764705913
2020-07-30,0.5333333333333358
2020-07-31,0.32786885245902075
2020-08-03,0.2407407407407388
2020-08-04,0.3513513513513418
2020-08-05,0.32499999999999696
2020-08-06,0.6200000000000002
2020-08-07,0.6078431372548979
2020-08-10,0.2999999999999993
2020-08-11,0.5657733013272636
2020-08-12,0.66565274984055
2020-08-13,0.679464351705645
2020-08-14,0.6694825485938227
2020-08-17,0.8818224841887882
2020-08-18,0.8372555990046215
2020-08-19,0.5571189448380929
2020-08-20,0.09434840941599443
2020-08-21,0.20433759207428995
2020-08-24,0.14999999999999766
2020-08-25,0.08196721311474992
2020-08-26,0.0892857142857098
2020-08-27,0.16666666666666738
2020-08-28,0.19354838709678715
2020-08-31,0.7551020408163313
2020-09-01,0.4933333333333376
2020-09-02,0.47435897435897706
2020-09-03,0.4683544303797486
2020-09-04,0.40259740259740234
2020-09-07,0.0
2020-09-08,0.5434782608695639
2020-09-09,0.8533333333333344
2020-09-10,0.8850574712643673
2020-09-11,0.8105263157894761
2020-09-14,0.6875000000000011
2020-09-15,0.6195652173913064
2020-09-16,0.44444444444444325
2020-09-17,0.21126760563380018
2020-09-18,0.25423728813558927
2020-09-21,0.7272727272727254
2020-09-22,0.7236842105263144
2020-09-23,0.5357142857142866
2020-09-24,0.7313432835820916
2020-09-25,0.7000000000000001
2020-09-28,0.11940298507462933
2020-09-29,0.04705882352941265
2020-09-30,0.08695652173912818
2020-10-09,0.22222222222221774
2020-10-12,0.20689655172413457
2020-10-13,0.3799999999999957
2020-10-14,0.7857142857142869
2020-10-15,0.5000000000000021
2020-10-16,0.2307692307692329
2020-10-19,0.5900000000000015
2020-10-20,0.5471698113207575
2020-10-21,0.40366972477064433
2020-10-22,0.5168539325842726
2020-10-23,0.741935483870971
2020-10-26,0.31645569620253344
2020-10-27,0.3378378378378386
2020-10-28,0.5949367088607579
2020-10-29,0.4639175257731929
2020-10-30,0.428571428571426
2020-11-02,0.5492957746478858
2020-11-03,0.6202531645569612
2020-11-04,0.3600000000000006
2020-11-05,0.636363636363641
2020-11-06,0.29629629629629856
2020-11-09,0.5352112676056336
2020-11-10,0.5217391304347831
2020-11-11,0.6097560975609753
2020-11-12,0.5047619047619029
2020-11-13,0.9374999999999988
2020-11-16,0.41025641025641457
2020-11-17,0.2702702702702732
2020-11-18,0.14285714285714782
2020-11-19,0.3333333333333336
2020-11-20,0.3214285714285662
2020-11-23,0.6041666666666643
2020-11-24,0.5370370370370358
2020-11-25,0.838709677419354
2020-11-26,0.645161290322583
2020-11-27,0.557377049180328
2020-11-30,0.37096774193548243
2020-12-01,0.47272727272727055
2020-12-02,0.30952380952380804
2020-12-03,0.4333333333333237
2020-12-04,0.8604651162790669
2020-12-07,0.9999999999999974
2020-12-08,0.9999999999999981
2020-12-09,0.9999999999999981
2020-12-10,1.0
2020-12-11,1.0
2020-12-14,1.0
2020-12-15,1.0
2020-12-16,0.9898060047037106
2020-12-17,0.6898834581468501
2020-12-18,0.3178807947019849
2020-12-21,0.5118483412322276
2020-12-22,0.6484641638225255
2020-12-23,0.7383419689119172
2020-12-24,0.860795454545455
2020-12-25,1.0
2020-12-28,0.7468354430379759
2020-12-29,0.4436860068259398
2020-12-30,0.1330798479087465
2020-12-31,0.06273062730627334
2021-01-04,0.0
2021-01-05,0.0
2021-01-06,0.0
2021-01-07,0.0
2021-01-08,0.1605839416058368
2021-01-11,0.1929824561403481
2021-01-12,0.5901639344262273
2021-01-13,0.9230769230769219
2021-01-14,0.9230769230769219
2021-01-15,0.5813953488372101
2021-01-18,0.5882352941176464
2021-01-19,0.0
2021-01-20,0.0
2021-01-21,0.0
2021-01-22,0.3375000000000004
2021-01-25,0.28125000000000233
2021-01-26,0.4677419354838747
2021-01-27,0.5000000000000073
2021-01-28,0.8415841584158456
2021-01-29,0.6170212765957479
2021-02-01,0.6170212765957432
2021-02-02,0.7391304347826069
2021-02-03,0.6428571428571417
2021-02-04,0.36799999999999855
2021-02-05,0.512396694214874
2021-02-08,0.6090909090909076
2021-02-09,0.2164948453608211
2021-02-10,0.3870967741935435
2021-02-18,0.3673469387755054
2021-02-19,0.5118110236220441
2021-02-22,0.670212765957446
2021-02-23,0.8152866242038211
2021-02-24,0.8253012048192772
2021-02-25,1.0
2021-02-26,0.9642857142857144
2021-03-01,0.5073529411764707
2021-03-02,0.4466666666666668
2021-03-03,0.3897058823529395
2021-03-04,0.0819672131147523
2021-03-05,0.1893939393939379
2021-03-08,0.451219512195125
2021-03-09,0.8632075471698126
2021-03-10,0.7330508474576288
2021-03-11,0.8650793650793653
2021-03-12,0.8353909465020581
2021-03-15,0.8393574297188757
2021-03-16,0.26033057851239516
2021-03-17,0.29166666666666496
2021-03-18,0.08108108108108088
2021-03-19,0.09174311926605591
2021-03-22,0.10407239819004531
2021-03-23,0.23469387755102378
2021-03-24,0.40707964601770236
2021-03-25,0.5111111111111158
2021-03-26,0.36363636363636337
2021-03-29,0.21698113207547076
2021-03-30,0.40707964601769453
2021-03-31,0.26373626373626213
2021-04-01,0.7697400546652517
2021-04-02,0.9583260283272577
2021-04-06,0.7982234015118822
2021-04-07,0.7238109084024196
2021-04-08,0.653552764082177
2021-04-09,0.048321235668879324
2021-04-12,0.18855291388048576
2021-04-13,0.177486579581232
2021-04-14,0.16459096210875532
2021-04-15,0.3333333333333325
2021-04-16,0.4791666666666657
2021-04-19,0.27272727272727304
2021-04-20,0.6049382716049377
2021-04-21,0.6805555555555565
2021-04-22,0.45384615384615246
2021-04-23,0.564885496183205
2021-04-26,0.8271604938271592
2021-04-27,0.47169811320754756
2021-04-28,0.6048780487804882
2021-04-29,0.7083333333333356
2021-04-30,0.7565217391304369
2021-05-06,0.62637362637363
2021-05-07,0.9387755102040829
2021-05-10,0.9572953736654811
2021-05-11,0.9659090909090915
2021-05-12,0.9644970414201189
2021-05-13,1.0
2021-05-14,1.0
2021-05-17,0.7296703296703297
2021-05-18,0.5845070422535203
2021-05-19,0.5316455696202527
2021-05-20,0.16290726817042625
2021-05-21,0.0
2021-05-24,0.19135802469135846
2021-05-25,0.20598006644518377
2021-05-26,0.24013157894736836
2021-05-27,0.5204678362573121
2021-05-28,0.6267605633802822
2021-05-31,0.27551020408163157
2021-06-01,0.722222222222221
2021-06-02,0.4345794392523369
2021-06-03,0.35981308411214924
2021-06-04,0.40414507772020786
2021-06-07,0.4894736842105257
2021-06-08,0.09142857142857026
2021-06-09,0.25714285714285295
2021-06-10,0.18120805369127202
2021-06-11,0.30285714285713916
2021-06-15,0.18999999999999762
2021-06-16,0.2638888888888854
2021-06-17,0.28859060402684444
2021-06-18,0.6406249999999988
2021-06-21,0.7212121212121214
2021-06-22,0.7041420118343202
2021-06-23,0.7555555555555561
2021-06-24,0.7426900584795328
2021-06-25,0.5789473684210552
2021-06-28,0.13559322033898255
2021-06-29,0.3433734939759027
2021-06-30,0.22346368715083811
2021-07-01,0.1601941747572808
2021-07-02,0.22335025380710571
2021-07-05,0.4385964912280691
2021-07-06,0.11258278145695452
2021-07-07,0.20610687022901106
2021-07-08,0.5882352941176491
2021-07-09,0.4917127071823221
2021-07-12,0.4368421052631594
2021-07-13,0.7897727272727274
2021-07-14,0.629268292682926
2021-07-15,0.2962962962962963
2021-07-16,0.3728813559322019
2021-07-19,0.3687150837988809
2021-07-20,0.06944444444444117
2021-07-21,0.5202020202020198
2021-07-22,0.788888888888887
2021-07-23,0.65024630541872
2021-07-26,0.6910994764397919
2021-07-27,0.816425120772949
2021-07-28,0.4550898203592812
2021-07-29,0.23417721518987542
2021-07-30,0.7006802721088441
2021-08-02,0.721476510067115
2021-08-03,0.5779220779220783
2021-08-04,0.6793893129771009
2021-08-05,0.833518989332425
2021-08-06,0.33698175201823044
2021-08-09,0.4038324692487531
2021-08-10,0.48015757962337363
2021-08-11,0.4920871746908335
2021-08-12,0.1596864587812846
2021-08-13,0.3061814135265732
2021-08-16,0.03389809486009041
2021-08-17,0.0005982451475645766
2021-08-18,0.0
2021-08-19,0.21794871794872003
2021-08-20,0.48305084745762966
2021-08-23,0.8518518518518521
2021-08-24,0.9803921568627454
2021-08-25,1.0
2021-08-26,0.9863013698630146
2021-08-27,0.670967741935485
2021-08-30,0.7068965517241385
2021-08-31,0.28571428571428764
2021-09-01,0.3312101910827998
2021-09-02,0.2954545454545425
2021-09-03,0.4680851063829769
2021-09-06,0.5129870129870124
2021-09-07,0.8205128205128194
2021-09-08,0.5597014925373136
2021-09-09,0.6724137931034486
2021-09-10,0.5039370078740152
2021-09-13,0.161290322580644
2021-09-14,0.018987341772151608
2021-09-15,0.16428571428571395
2021-09-16,0.14598540145985398
2021-09-17,0.390728476821192
2021-09-22,0.6194029850746274
2021-09-23,1.0
2021-09-24,1.0
2021-09-27,1.0
2021-09-28,1.0
2021-09-29,0.465116279069767
2021-09-30,0.6434108527131778
2021-10-08,0.6666666666666662
2021-10-11,0.7160493827160489
2021-10-12,0.6602564102564101
2021-10-13,0.9617486338797817
2021-10-14,0.646067415730338
2021-10-15,0.5223880597014927
2021-10-18,0.39673913043478265
2021-10-19,0.33640552995391687
2021-10-20,0.0
2021-10-21,0.3923611111111109
2021-10-22,0.5069444444444441
2021-10-25,0.4915824915824912
2021-10-26,0.6159169550173005
2021-10-27,0.894736842105263
2021-10-28,0.5055555555555552
2021-10-29,0.4331210191082807
2021-11-01,0.4503311258278153
2021-11-02,0.5088757396449719
2021-11-03,0.34883720930232703
2021-11-04,0.382165605095543
2021-11-05,0.2631578947368429
2021-11-08,0.30681818181818177
2021-11-09,0.019323671497583607
2021-11-10,0.033333333333330606
2021-11-11,0.15068493150684545
2021-11-12,0.21153846153845626
2021-11-15,0.21904761904761713
2021-11-16,0.6216216216216177
2021-11-17,0.33333333333333365
2021-11-18,0.06756756756757051
2021-11-19,0.20930232558139797
2021-11-22,0.2608695652173914
2021-11-23,0.5528455284552852
2021-11-24,0.7804878048780497
2021-11-25,0.9142857142857158
2021-11-26,0.7904761904761921
2021-11-29,0.841726618705037
2021-11-30,0.7731958762886612
2021-12-01,0.6155078671608796
2021-12-02,0.7356470351503333
2021-12-03,0.867234318817418
2021-12-06,0.13459528181946567
2021-12-07,0.3123171215398072
2021-12-08,0.28960224276237145
2021-12-09,0.20520741091592995
2021-12-10,0.1883751118504791
2021-12-13,0.587403665902937
2021-12-14,0.25409836065573826
2021-12-15,0.27433628318584113
2021-12-16,0.310679611650486
2021-12-17,0.415841584158417
2021-12-20,0.11340206185567145
2021-12-21,0.35849056603773666
2021-12-22,0.5178571428571435
2021-12-23,0.43076923076922996
2021-12-24,0.25714285714285534
2021-12-27,0.58333333333333
2021-12-28,0.35526315789473517
2021-12-29,0.24285714285714133
2021-12-30,0.2741935483870964
2021-12-31,0.361702127659573
2022-01-04,0.0
2022-01-05,0.0
2022-01-06,0.0
2022-01-07,0.15999999999999712
2022-01-10,0.4166666666666663
2022-01-11,0.39473684210525994
2022-01-12,0.6315789473684129
2022-01-13,0.6756756756756676
2022-01-14,0.5526315789473605
2022-01-17,0.3124999999999913
2022-01-18,0.3571428571428544
2022-01-19,0.28000000000000735
2022-01-20,0.15789473684211267
2022-01-21,0.25000000000000666
2022-01-24,0.560000000000006
2022-01-25,0.77049180327869
2022-01-26,0.7454545454545461
2022-01-27,1.0
2022-01-28,1.0
2022-02-07,1.0
2022-02-08,0.9340659340659359
2022-02-09,0.9495798319327745
2022-02-10,0.9625000000000012
2022-02-11,0.7452830188679263
2022-02-14,0.7631578947368451
2022-02-15,0.8877005347593588
2022-02-16,0.7885714285714288
2022-02-17,0.7394366197183089
2022-02-18,0.6730769230769226
2022-02-21,0.668831168831167
2022-02-22,0.17647058823528963
2022-02-23,0.2671755725190813
2022-02-24,0.1090909090909085
2022-02-25,0.413612565445025
2022-02-28,0.35121951219512193
2022-03-01,0.5167785234899335
2022-03-02,0.4583333333333325
2022-03-03,0.831249999999999
2022-03-04,0.5454545454545464
2022-03-07,0.8030303030303033
2022-03-08,0.8243243243243242
2022-03-09,0.8625000000000006
2022-03-10,0.8103448275862075
2022-03-11,1.0
2022-03-14,0.7624999999999992
2022-03-15,0.43835616438355923
2022-03-16,0.5543478260869565
2022-03-17,0.31847133757961865
2022-03-18,0.22395833333333456
2022-03-21,0.18376068376068433
2022-03-22,0.19026548672566423
2022-03-23,0.0
2022-03-24,0.0
2022-03-25,0.11612903225806474
2022-03-28,0.309090909090911
2022-03-29,0.28686139881298967
2022-03-30,0.6927093910470307
2022-03-31,0.8432633473305344
2022-04-01,0.836241476133173
2022-04-06,0.73989332921079
2022-04-07,0.9206069789206287
2022-04-08,0.6116239469438948
2022-04-11,0.613019891500904
2022-04-12,0.6543569292123633
2022-04-13,0.7564766839378246
2022-04-14,0.6602564102564139
2022-04-15,0.6959459459459498
2022-04-18,0.4025157232704421
2022-04-19,0.28030303030303316
2022-04-20,0.02205882352941229
2022-04-21,0.01863354037267114
2022-04-22,0.2171052631578912
2022-04-25,0.6745283018867886
2022-04-26,0.5932203389830469
2022-04-27,0.6635071090047381
2022-04-28,0.8029556650246316
2022-04-29,0.768786127167632
2022-05-05,0.12105263157894926
2022-05-06,0.30348258706467957
2022-05-09,0.38942307692307787
2022-05-10,0.4147465437788021
2022-05-11,0.4686192468619247
2022-05-12,1.0
2022-05-13,0.7635135135135116
2022-05-16,0.6642857142857144
2022-05-17,0.3836477987421389
2022-05-18,0.309859154929577
2022-05-19,0.046728971962615565
2022-05-20,0.05263157894736724
2022-05-23,0.27102803738317616
2022-05-24,0.67073170731707
2022-05-25,0.4424778761061944
2022-05-26,0.45454545454545797
2022-05-27,0.6105263157894779
2022-05-30,0.32380952380952466
2022-05-31,0.0816326530612245
2022-06-01,0.10526315789473606
2022-06-02,0.08080808080807976
2022-06-06,0.0
2022-06-07,0.0
2022-06-08,0.0
2022-06-09,0.0
2022-06-10,0.0
2022-06-13,0.3921568627450997
2022-06-14,0.6166666666666629
2022-06-15,0.7160493827160508
2022-06-16,0.7469879518072295
2022-06-17,1.0
2022-06-20,1.0
2022-06-21,1.0
2022-06-22,1.0
2022-06-23,1.0
2022-06-24,0.9907407407407393
2022-06-27,0.7539267015706793
2022-06-28,0.6538461538461524
2022-06-29,0.32432432432432384
2022-06-30,0.0
2022-07-01,0.0
2022-07-04,0.0
2022-07-05,0.0
2022-07-06,0.3689320388349526
2022-07-07,0.6610169491525492
2022-07-08,0.6500000000000022
2022-07-11,0.8030303030303044
2022-07-12,0.6794871794871767
2022-07-13,0.3191489361702089
2022-07-14,0.34693877551019975
2022-07-15,0.5555555555555515
2022-07-18,0.23404255319149356
2022-07-19,0.2820512820512874
2022-07-20,0.5116279069767509
2022-07-21,0.29687500000000433
2022-07-22,0.28571428571428825
2022-07-25,0.25714285714285784
2022-07-26,0.41975308641975345
2022-07-27,0.22772277227722804
2022-07-28,0.6470588235294112
2022-07-29,0.5287356321839073
2022-08-01,0.6217948717948716
2022-08-02,0.512658227848101
2022-08-03,0.5999999999999975
2022-08-04,0.047169811320753444
2022-08-05,0.3047619047619011
2022-08-08,0.2449463579898336
2022-08-09,0.2840347750172754
2022-08-10,0.27372539121655676
2022-08-11,0.3462398013479957
2022-08-12,0.0
2022-08-15,0.15624061655490507
2022-08-16,0.15777398194847855
2022-08-17,0.5242334817186008
2022-08-18,0.7285846279873884
2022-08-19,0.7205882352941179
2022-08-22,0.5064935064935037
2022-08-23,0.47560975609755696
2022-08-24,0.023529411764707048
2022-08-25,0.0
2022-08-26,0.18279569892472902
2022-08-29,0.35227272727272513
2022-08-30,0.4791666666666682
2022-08-31,0.6764705882352957
2022-09-01,0.8235294117647085
2022-09-02,0.6842105263157962
2022-09-05,0.600000000000011
2022-09-06,0.1643835616438394
2022-09-07,0.3717948717948722
2022-09-08,0.3950617283950611
2022-09-09,0.3855421686746975
2022-09-13,0.24193548387096525
2022-09-14,0.39999999999999936
2022-09-15,0.2608695652173934
2022-09-16,0.06493506493506848
2022-09-19,0.12328767123288106
2022-09-20,0.6181818181818209
2022-09-21,0.631578947368422
2022-09-22,0.6557377049180351
2022-09-23,0.7692307692307736
2022-09-26,0.5806451612903272
2022-09-27,0.2000000000000053
2022-09-28,0.09803921568628024
2022-09-29,0.0
2022-09-30,0.023809523809517275
2022-10-10,0.06896551724136113
2022-10-11,0.7567567567567511
2022-10-12,0.8055555555555493
2022-10-13,1.0
2022-10-14,1.0
2022-10-17,1.0
2022-10-18,0.5555555555555587
2022-10-19,0.4461538461538511
2022-10-20,0.4126984126984203
2022-10-21,0.35087719298246217
2022-10-24,0.09803921568627365
2022-10-25,0.29032258064516075
2022-10-26,0.7619047619047573
2022-10-27,0.795454545454538
2022-10-28,0.8085106382978662
2022-10-31,1.0
2022-11-01,1.0
2022-11-02,0.8103448275862072
2022-11-03,0.6470588235294134
2022-11-04,0.7108433734939766
2022-11-07,0.6025641025641039
2022-11-08,0.33333333333333415
2022-11-09,0.3333333333333332
2022-11-10,0.3770491803278685
2022-11-11,0.4411764705882343
2022-11-14,0.5810810810810788
2022-11-15,0.6417910447761196
2022-11-16,0.8470588235294146
2022-11-17,0.9148936170212786
2022-11-18,0.459016393442624
2022-11-21,0.40000000000000285
2022-11-22,0.4774774774774776
2022-11-23,0.26086956521738774
2022-11-24,0.10638297872340283
2022-11-25,0.5806451612903198
2022-11-28,0.4605263157894692
2022-11-29,0.38805970149253577
2022-11-30,0.356164383561646
2022-12-01,0.5156250000000022
2022-12-02,0.127272727272729
2022-12-05,0.3265306122449047
2022-12-06,0.2847001084289275
2022-12-07,0.699740545014645
2022-12-08,0.7418010347942736
2022-12-09,0.9063464779800734
2022-12-12,0.8093070611487082
2022-12-13,0.8983433942501178
2022-12-14,0.36557716350952857
2022-12-15,0.0465601396122551
2022-12-16,0.34351883143705
2022-12-19,0.5066666666666688
2022-12-20,0.5131578947368407
2022-12-21,0.9178082191780814
2022-12-22,0.8589743589743577
2022-12-23,0.5111111111111107
2022-12-26,0.36904761904761796
2022-12-27,0.32941176470588135
2022-12-28,0.0
2022-12-29,0.0
2022-12-30,0.09677419354838437
2023-01-03,0.08695652173912821
2023-01-04,0.10606060606060369
2023-01-05,0.4000000000000017
2023-01-06,0.6444444444444448
2023-01-09,0.6862745098039232
2023-01-10,1.0
2023-01-11,0.8536585365853696
2023-01-12,0.8333333333333367
2023-01-13,0.8064516129032281
2023-01-16,0.7500000000000003
2023-01-17,0.6071428571428575
2023-01-18,0.7391304347826082
2023-01-19,0.6818181818181813
2023-01-20,0.14285714285714143
2023-01-30,0.0
2023-01-31,0.0
2023-02-01,0.06896551724137817
2023-02-02,0.3764705882352946
2023-02-03,0.5774647887323928
2023-02-06,0.9799999999999934
2023-02-07,1.0
2023-02-08,0.9154929577464802
2023-02-09,0.5211267605633776
2023-02-10,0.38356164383561386
2023-02-13,0.36619718309859534
2023-02-14,0.11320754716981493
2023-02-15,0.22641509433962326
2023-02-16,0.6060606060606037
2023-02-17,0.714285714285718
2023-02-20,0.39999999999999597
2023-02-21,0.42424242424241965
2023-02-22,0.18181818181817874
2023-02-23,0.0
2023-02-24,0.10714285714286069
2023-02-27,0.2745098039215746
2023-02-28,0.175000000000004
2023-03-01,0.4673913043478287
2023-03-02,0.5657894736842107
2023-03-03,0.4868421052631561
2023-03-06,0.4935064935064892
2023-03-07,0.857142857142851
2023-03-08,0.4428571428571369
2023-03-09,0.6153846153846126
2023-03-10,0.7238095238095226
2023-03-13,0.5677966101694916
2023-03-14,0.46875000000000056
2023-03-15,0.6901408450704236
2023-03-16,0.6000000000000012
2023-03-17,0.5769230769230843
2023-03-20,1.0
2023-03-21,0.8985507246376803
2023-03-22,0.9263157894736835
2023-03-23,0.8977272727272729
2023-03-24,0.7749999999999991
2023-03-27,0.44117647058823495
2023-03-28,0.4615384615384653
2023-03-29,0.0
2023-03-30,0.0
2023-03-31,0.0
2023-04-03,0.0
2023-04-04,0.1855670103092759
2023-04-06,0.37560418314438715
2023-04-07,0.44995899041867016
2023-04-10,0.986516758950083
2023-04-11,1.0
2023-04-12,0.9219262574492505
2023-04-13,0.9321180507127125
2023-04-14,0.9383924050632916
2023-04-17,0.6487397825698304
2023-04-18,0.37725755371051334
2023-04-19,0.39999999999999153
2023-04-20,0.13043478260869112
2023-04-21,0.1891891891891919
2023-04-24,0.3050847457627192
2023-04-25,0.5897435897435963
2023-04-26,0.6875000000000077
2023-04-27,0.8684210526315805
2023-04-28,0.3877551020408157
2023-05-04,0.28846153846153477
2023-05-05,0.3934426229508177
2023-05-08,0.39344262295082233
2023-05-09,0.3809523809523836
2023-05-10,0.6585365853658602
2023-05-11,0.8813559322033908
2023-05-12,0.7599999999999976
2023-05-15,0.6829268292682908
2023-05-16,0.8378378378378348
2023-05-17,0.8888888888888858
2023-05-18,0.35937499999999833
2023-05-19,0.37096774193548293
2023-05-22,0.42424242424242237
2023-05-23,0.51898734177215
2023-05-24,0.35593220338982684
2023-05-25,0.9285714285714178
2023-05-26,0.9999999999999962
2023-05-29,0.7962962962962923
2023-05-30,0.7291666666666631
2023-05-31,0.6194690265486733
2023-06-01,0.6766917293233087
2023-06-02,0.2968749999999997
2023-06-05,0.40869565217391496
2023-06-06,0.48387096774193683
2023-06-07,0.5357142857142855
2023-06-08,0.19130434782608796
2023-06-09,0.3013698630137011
2023-06-12,0.31999999999999956
2023-06-13,0.15068493150684917
2023-06-14,0.14473684210526327
2023-06-15,0.26190476190476397
2023-06-16,0.23913043478260723
2023-06-19,0.0
2023-06-20,0.0
2023-06-21,0.17741935483871119
2023-06-26,0.19642857142857367
2023-06-27,0.5199999999999999
2023-06-28,0.5652173913043522
2023-06-29,0.6964285714285845
2023-06-30,0.6222222222222349
2023-07-03,0.6444444444444535
2023-07-04,0.020000000000000625
2023-07-05,0.025641025641026122
2023-07-06,0.10526315789473664
2023-07-07,0.17073170731707213
2023-07-10,0.3584905660377337
2023-07-11,0.9677419354838616
2023-07-12,1.0
2023-07-13,0.8292682926829282
2023-07-14,0.8409090909090922
2023-07-17,0.705882352941173
2023-07-18,0.4642857142857039
2023-07-19,0.46428571428570997
2023-07-20,0.7777777777777644
2023-07-21,0.5789473684210384
2023-07-24,0.39285714285713846
2023-07-25,0.5245901639344236
2023-07-26,0.46296296296295725
2023-07-27,0.38297872340425687
2023-07-28,0.6181818181818225
2023-07-31,1.0
2023-08-01,0.7962962962962995
2023-08-02,0.6231884057971038
2023-08-03,0.5737704918032772
2023-08-04,0.3072822166969061
2023-08-07,0.0
2023-08-08,0.0
2023-08-09,0.23149514492357381
2023-08-10,0.32316085038106585
2023-08-11,0.6889213690382991
2023-08-14,0.9125059590020725
2023-08-15,1.0
2023-08-16,0.8616219512195105
2023-08-17,0.9014084507042247
2023-08-18,0.6419753086419749
2023-08-21,0.6133333333333313
2023-08-22,0.6506024096385541
2023-08-23,0.7962962962962967
2023-08-24,0.5754716981132071
2023-08-25,0.7809523809523805
2023-08-28,0.8034188034188038
2023-08-29,0.578512396694217
2023-08-30,0.38000000000000245
2023-08-31,0.4691358024691389
2023-09-01,0.24285714285714607
2023-09-04,0.0
2023-09-05,0.06666666666665885
2023-09-06,0.057142857142849876
2023-09-07,0.4727272727272648
2023-09-08,0.5416666666666585
2023-09-11,0.5531914893616943
2023-09-12,0.44444444444444103
2023-09-13,0.7254901960784325
2023-09-14,0.20000000000000348
2023-09-15,0.20312500000000364
2023-09-18,0.16049382716049665
2023-09-19,0.22368421052631918
2023-09-20,0.05263157894736923
2023-09-21,0.4848484848484826
2023-09-22,0.599999999999998
2023-09-25,0.865979381443297
2023-09-26,0.8421052631578948
2023-09-27,0.9523809523809577
2023-09-28,0.6666666666666701
2023-10-09,0.6119402985074669
2023-10-10,0.07575757575757733
2023-10-11,0.07462686567164271
2023-10-12,0.09090909090908773
2023-10-13,0.1090909090909056
2023-10-16,0.07547169811320315
2023-10-17,0.17391304347825023
2023-10-18,0.3043478260869515
2023-10-19,0.48387096774193994
2023-10-20,0.9305555555555548
2023-10-23,0.7191011235955052
2023-10-24,0.8290598290598289
2023-10-25,0.8103448275862083
2023-10-26,0.7657657657657684
2023-10-27,0.4285714285714306
2023-10-30,0.47826086956521907
2023-10-31,0.0
2023-11-01,0.25510204081632604
2023-11-02,0.2886597938144302
2023-11-03,0.2886597938144302
2023-11-06,0.3936170212765949
2023-11-07,0.6896551724137906
2023-11-08,0.333333333333329
2023-11-09,0.22222222222222154
2023-11-10,0.46666666666666906
2023-11-13,0.4418604651162776
2023-11-14,0.3333333333333353
2023-11-15,0.6610169491525438
2023-11-16,0.8857142857142876
2023-11-17,0.8840579710144942
2023-11-20,0.8987341772151918
2023-11-21,1.0
2023-11-22,0.6966292134831473
2023-11-23,0.7000000000000005
2023-11-24,0.578947368421054
2023-11-27,0.42696629213483134
2023-11-28,0.5641025641025653
2023-11-29,0.6666666666666665
2023-11-30,0.5316455696202536
2023-12-01,0.5599999999999987
2023-12-04,0.7066666666666636
2023-12-05,0.144736842105261
2023-12-06,0.3253012048192769
2023-12-07,0.2571428571428578
2023-12-08,0.48915917503966305
2023-12-11,0.4170849873907148
2023-12-12,0.6456024987670582
2023-12-13,0.666419088292638
2023-12-14,0.8456423279315137
2023-12-15,0.4884073209416689
2023-12-18,0.5899675809989696
2023-12-19,0.4055254990417683
2023-12-20,0.048997078231180054
2023-12-21,0.40659340659340465
2023-12-22,0.4204545454545432
2023-12-25,0.3469387755102027
2023-12-26,0.5
2023-12-27,0.6329113924050647
2023-12-28,0.25396825396825684
2023-12-29,0.2909090909090953
2024-01-02,0.670886075949371
2024-01-03,0.6486486486486516
2024-01-04,0.5999999999999995
2024-01-05,0.7384615384615344
2024-01-08,0.8450704225352054
2024-01-09,0.32394366197182584
2024-01-10,0.3424657534246553
2024-01-11,0.5402298850574698
2024-01-12,0.637254901960785
2024-01-15,0.6021505376344102
2024-01-16,0.9824561403508794
2024-01-17,0.7962962962962986
2024-01-18,0.702702702702706
2024-01-19,0.17777777777777778
2024-01-22,0.09090909090909187
2024-01-23,0.319444444444446
2024-01-24,0.2738095238095248
2024-01-25,0.16071428571428606
2024-01-26,0.18556701030927836
2024-01-29,0.232558139534881
2024-01-30,0.029411764705879008
2024-01-31,0.22807017543859162
2024-02-01,0.6333333333333249
2024-02-02,1.0
2024-02-05,1.0
2024-02-06,0.8625000000000008
2024-02-07,0.6590909090909088
2024-02-08,0.6907216494845362
2024-02-19,0.4347826086956516
2024-02-20,0.5666666666666667
2024-02-21,0.7454545454545441
2024-02-22,0.9134615384615379
2024-02-23,0.8510638297872362
2024-02-26,0.9509803921568655
2024-02-27,0.7439024390243941
2024-02-28,0.3896103896103941
2024-02-29,0.3733333333333353
2024-03-01,0.5384615384615388
2024-03-04,0.37209302325581306
2024-03-05,0.3232323232323216
2024-03-06,0.426666666666664
2024-03-07,0.2799999999999974
2024-03-08,0.0
2024-03-11,0.359550561797752
2024-03-12,0.4637681159420273
2024-03-13,0.615384615384613
2024-03-14,0.744680851063829
2024-03-15,0.8928571428571415
2024-03-18,0.7166666666666655
2024-03-19,0.8987341772151903
2024-03-20,0.5529411764705904
2024-03-21,0.6122448979591867
2024-03-22,0.5339805825242746
2024-03-25,0.3716216216216236
2024-03-26,0.3404255319148967
2024-03-27,0.4705882352941199
2024-03-28,0.22768657102905432
2024-03-29,0.29552756816448905
2024-04-01,0.7205809548128874
2024-04-02,0.4538484826518712
2024-04-03,0.508492137194254
2024-04-08,0.7560467424741262
2024-04-09,0.7552786988685086
2024-04-10,0.5154244649491544
2024-04-11,0.7197164107694324
2024-04-12,0.6124031007751952
2024-04-15,0.1333333333333347
2024-04-16,0.08333333333333477
2024-04-17,0.44137931034482875
2024-04-18,0.37323943661971876
2024-04-19,0.36054421768707534
2024-04-22,0.6543209876543222
2024-04-23,0.6091954022988516
2024-04-24,0.0
2024-04-25,0.239999999999995
2024-04-26,0.2926829268292603
2024-04-29,0.41666666666665925
2024-04-30,0.49999999999999073
2024-05-06,0.31746031746031367
2024-05-07,0.14285714285714304
2024-05-08,0.3538461538461577
2024-05-09,0.25862068965517654
2024-05-10,0.26785714285714707
2024-05-13,0.8604651162790754
2024-05-14,0.9838709677419357
2024-05-15,0.7187500000000002
2024-05-16,0.8
2024-05-17,0.739130434782607
2024-05-20,0.5411764705882337
2024-05-21,0.2894736842105254
2024-05-22,0.3833333333333317
2024-05-23,0.020408163265305878
2024-05-24,0.02325581395348818
2024-05-27,0.022727272727272544
2024-05-28,0.36363636363636337
2024-05-29,0.3124999999999984
2024-05-30,0.599999999999999
2024-05-31,0.5322580645161312
2024-06-03,0.7833333333333335
2024-06-04,0.43835616438356156
2024-06-05,0.5068493150684966
2024-06-06,0.21590909090909097
2024-06-07,0.3369565217391294
2024-06-11,0.32967032967033244
2024-06-12,0.4000000000000028
2024-06-13,0.4827586206896552
2024-06-14,0.7636363636363617
2024-06-17,0.7678571428571408
2024-06-18,0.5555555555555531
2024-06-19,0.773584905660373
2024-06-20,0.5217391304347743
2024-06-21,0.5624999999999968
2024-06-24,0.29166666666666363
2024-06-25,0.23333333333333042
2024-06-26,0.37837837837837884
2024-06-27,0.3414634146341484
2024-06-28,0.2840909090909089
2024-07-01,0.3750000000000016
2024-07-02,0.43478260869565644
2024-07-03,0.09433962264151345
2024-07-04,0.1666666666666779
2024-07-05,0.5227272727272814
2024-07-08,0.6181818181818229
2024-07-09,0.8615384615384615
2024-07-10,0.9333333333333296
2024-07-11,0.9529411764705852
2024-07-12,0.7111111111111076
2024-07-15,0.6075949367088563
2024-07-16,0.41935483870967327
2024-07-17,0.47540983606557363
2024-07-18,0.05660377358491041
2024-07-19,0.2631578947368484
2024-07-22,0.18867924528302255
2024-07-23,0.4492753623188444
2024-07-24,0.2978723404255336
2024-07-25,0.36842105263157837
2024-07-26,0.4545454545454552
2024-07-29,0.5714285714285745
2024-07-30,0.5161290322580687
2024-07-31,0.9731652294145471
2024-08-01,0.9774480349211475
2024-08-02,0.9753813799779716
2024-08-05,1.0
2024-08-06,0.8363790426754825
2024-08-07,0.5908661806140524
2024-08-08,0.547065302152084
2024-08-09,0.4114083836778786
2024-08-12,0.07433555225612372
2024-08-13,0.09615384615384669
2024-08-14,0.34883720930232576
2024-08-15,0.2564102564102572
2024-08-16,0.30303030303030515
2024-08-19,0.6666666666666691
2024-08-20,0.46153846153846434
2024-08-21,0.34375000000000333
2024-08-22,0.2682926829268292
2024-08-23,0.19642857142857167
2024-08-26,0.35714285714285593
2024-08-27,0.46428571428571297
2024-08-28,0.2911392405063283
2024-08-29,0.3026315789473687
2024-08-30,0.5285714285714279
2024-09-02,0.2777777777777769
2024-09-03,0.4347826086956492
2024-09-04,0.7399999999999979
2024-09-05,0.8983050847457611
2024-09-06,0.8965517241379297
2024-09-09,0.8387096774193544
2024-09-10,0.679245283018869
2024-09-11,0.7536231884057982
2024-09-12,0.6851851851851855
2024-09-13,0.47058823529411714
2024-09-18,0.6600000000000011
2024-09-19,0.8529411764705885
2024-09-20,0.6862745098039206
2024-09-23,0.6415094339622665
2024-09-24,0.8977272727272736
2024-09-25,0.7777777777777773
2024-09-26,0.5421686746987936
2024-09-27,0.5172413793103452
2024-09-30,0.8186046511627906
2024-10-08,0.8227272727272729
2024-10-09,0.8418604651162792
2024-10-10,0.9255813953488378
2024-10-11,0.9521531100478459
2024-10-14,0.38202247191011246
2024-10-15,0.07826086956521756
2024-10-16,0.07964601769911527
2024-10-17,0.14754098360655724
2024-10-18,0.19047619047619033
2024-10-21,0.2499999999999997
2024-10-22,0.5483870967741933
2024-10-23,0.5918367346938768
2024-10-24,0.176
2024-10-25,0.08196721311475444
2024-10-28,0.22580645161290502
2024-10-29,0.18556701030927944
2024-10-30,0.11111111111111287
2024-10-31,0.22916666666667096
2024-11-01,0.25000000000000305
2024-11-04,0.0
2024-11-05,0.28205128205128055
2024-11-06,0.4722222222222159
2024-11-07,0.844444444444439
2024-11-08,0.9692307692307699
2024-11-11,1.0
2024-11-12,0.7777777777777791
2024-11-13,0.5494505494505504
2024-11-14,0.33720930232558355
2024-11-15,0.05479452054794403
2024-11-18,0.18823529411764578
2024-11-19,0.4301075268817187
2024-11-20,0.5405405405405378
2024-11-21,0.5714285714285681
2024-11-22,0.5633802816901404
2024-11-25,0.3157894736842109
2024-11-26,0.0
2024-11-27,0.17391304347826259
2024-11-28,0.28888888888888886
2024-11-29,0.3855421686746973
2024-12-02,0.4507042253521111
2024-12-03,0.7619047619047602
2024-12-04,0.47058823529411076
2024-12-05,0.4193548387096775
2024-12-06,0.23333333333333786
2024-12-09,0.48148148148147996
2024-12-10,0.7291666666666659
2024-12-11,0.8635672721131249
2024-12-12,0.6211742617722965
2024-12-13,0.5885830891586424
2024-12-16,0.43122522412636655
2024-12-17,0.0
2024-12-18,0.23081102225313202
2024-12-19,0.33355873384452883
2024-12-20,0.3226101013092502
2024-12-23,0.5070377082143862
2024-12-24,0.7499999999999999
2024-12-25,0.3181818181818158
2024-12-26,0.23913043478260687
2024-12-27,0.593750000000002
2024-12-30,0.5087719298245628
2024-12-31,0.41538461538461857
