date,FCT_Cr_Atr_Dfive
2013-10-18,
2013-10-21,
2013-10-22,
2013-10-23,
2013-10-24,
2013-10-25,
2013-10-28,
2013-10-29,
2013-10-30,
2013-10-31,
2013-11-01,0.2609793394477236
2013-11-04,0.11577783918210202
2013-11-05,0.055836139169468814
2013-11-06,-0.02591463414634816
2013-11-07,0.21586497890295336
2013-11-08,-0.4985380116959123
2013-11-11,-0.1428571428571462
2013-11-12,-0.047654320987652155
2013-11-13,0.12632978723405047
2013-11-14,-0.03333333333333344
2013-11-15,0.2763157894736933
2013-11-18,0.09090909090909613
2013-11-19,0.1620408163265349
2013-11-20,-0.17494089834515975
2013-11-21,0.10333333333333716
2013-11-22,-0.11538461538462062
2013-11-25,-0.043478260869566944
2013-11-26,-0.19294990723562386
2013-11-27,0.1861111111111163
2013-11-28,-0.1763565891472939
2013-11-29,0.11538461538461889
2013-12-02,0.01783723522852842
2013-12-03,-0.01435406698565199
2013-12-04,0.07205882352939968
2013-12-05,0.22122838401908795
2013-12-06,0.022727272727267173
2013-12-09,0.0034188034188115946
2013-12-10,0.10526315789473886
2013-12-11,-0.2834224598930381
2013-12-12,-0.23346828609987094
2013-12-13,0.4184491978609634
2013-12-16,0.12426303854875334
2013-12-17,0.12962962962963478
2013-12-18,0.18554396423248293
2013-12-19,0.07401315789473958
2013-12-20,-0.6024667931688795
2013-12-23,0.07103610675039311
2013-12-24,-0.08044930176077936
2013-12-25,-0.12730532786884752
2013-12-26,0.2515889830508484
2013-12-27,0.18906810035842542
2013-12-30,-0.28118503118503396
2013-12-31,-0.04918032786885282
2014-01-02,0.1841856060606051
2014-01-03,-0.2340376131878346
2014-01-06,-0.05555555555555876
2014-01-07,0.10810810810811129
2014-01-08,-0.028571428571425445
2014-01-09,-0.07664884135472408
2014-01-10,-0.014872798434442254
2014-01-13,0.027777777777781062
2014-01-14,0.044117647058822027
2014-01-15,-0.05593561368209718
2014-01-16,-0.10633484162895933
2014-01-17,-0.10476190476190465
2014-01-20,0.09615384615384649
2014-01-21,0.008513931888544879
2014-01-22,0.18450704225352246
2014-01-23,0.379953379953381
2014-01-24,0.14496124031007757
2014-01-27,-0.14213085764810102
2014-01-28,-0.14901712111604154
2014-01-29,-0.1133333333333316
2014-01-30,-0.5597870597870593
2014-02-07,0.09746300211416603
2014-02-10,0.04597701149425096
2014-02-11,0.1291724274145727
2014-02-12,-0.00253968253968586
2014-02-13,0.20836965998256002
2014-02-14,-0.1768875192604017
2014-02-17,-0.01818181818181422
2014-02-18,0.07832422586521305
2014-02-19,-0.05079365079364673
2014-02-20,0.11981566820276804
2014-02-21,0.017796610169489996
2014-02-24,0.3164274322168995
2014-02-25,-0.15165165165165462
2014-02-26,0.10892018779342326
2014-02-27,-0.09845559845560133
2014-02-28,0.1750000000000012
2014-03-03,-0.4565392211735749
2014-03-04,-0.016332099598870817
2014-03-05,0.10100506803694079
2014-03-06,0.15233427642936573
2014-03-07,-0.037149728460076775
2014-03-10,0.12458574196995173
2014-03-11,0.45222147734871554
2014-03-12,0.00674141083629981
2014-03-13,-0.08907536534436651
2014-03-14,-0.052885236574888236
2014-03-17,0.08100516246583725
2014-03-18,-0.5824456114028517
2014-03-19,-0.3722222222222219
2014-03-20,0.014788524105294416
2014-03-21,-0.18059610292620035
2014-03-24,0.07770270270270305
2014-03-25,0.23760182469860036
2014-03-26,0.27991452991453053
2014-03-27,-0.15102040816326429
2014-03-28,0.2769441992742974
2014-03-31,-0.2142857142857151
2014-04-01,-0.10932857991681652
2014-04-02,0.05689102564102518
2014-04-03,0.1373831775700916
2014-04-04,-0.23942123942124008
2014-04-08,0.12968975468975624
2014-04-09,0.05882352941176391
2014-04-10,-0.21167071197411053
2014-04-11,-0.18792081197869415
2014-04-14,0.22203215874101934
2014-04-15,-0.1426767676767688
2014-04-16,0.06329113924051014
2014-04-17,0.001849283402682117
2014-04-18,0.3215902659875482
2014-04-21,-0.2487555113070682
2014-04-22,0.0762987012987005
2014-04-23,-0.07662447257384337
2014-04-24,0.24388674388674403
2014-04-25,-0.31222910216718036
2014-04-28,0.39510543327689635
2014-04-29,0.03684359119141766
2014-04-30,-0.018924731182794804
2014-05-05,-0.17087087087087183
2014-05-06,0.15254010695186995
2014-05-07,-0.37263352316453774
2014-05-08,0.0017886626307112696
2014-05-09,-0.055241935483870894
2014-05-12,0.008523592085236995
2014-05-13,0.016414141414140798
2014-05-14,-0.03628909808684902
2014-05-15,-0.12376933895921363
2014-05-16,0.3732142857142872
2014-05-19,-0.04185692541856943
2014-05-20,0.0016339869281061375
2014-05-21,0.19150579150578897
2014-05-22,0.19330289193302813
2014-05-23,-0.4122965641953017
2014-05-26,0.2294685990338164
2014-05-27,-0.09114015976761125
2014-05-28,0.04924812030075356
2014-05-29,-0.11833635913517011
2014-05-30,0.20158227848101679
2014-06-03,-0.3250758341759349
2014-06-04,0.08912565533569991
2014-06-05,-0.1721052631578942
2014-06-06,-0.00733368255631215
2014-06-09,-0.2871212121212163
2014-06-10,0.17039355992844246
2014-06-11,-0.10286895838717937
2014-06-12,0.07999999999999911
2014-06-13,0.084294587400179
2014-06-16,0.23172905525847065
2014-06-17,0.019230769230768576
2014-06-18,0.0939902166317256
2014-06-19,-0.10909090909091008
2014-06-20,0.16326530612244905
2014-06-23,0.14988368228647309
2014-06-24,-0.12541806020066676
2014-06-25,0.04497354497354546
2014-06-26,0.33297150610583537
2014-06-27,-0.313837730214039
2014-06-30,-0.2379846761086607
2014-07-01,0.13107416879795336
2014-07-02,0.07735300693047228
2014-07-03,-0.33499170812603707
2014-07-04,0.05420054200542087
2014-07-07,0.17143432715551787
2014-07-08,0.1292156862745092
2014-07-09,-0.17493597951344525
2014-07-10,0.09934640522875926
2014-07-11,0.07936507936507986
2014-07-14,-0.23084815321477306
2014-07-15,-0.3466666666666659
2014-07-16,-0.1594574780058645
2014-07-17,-0.06823529411764505
2014-07-18,0.23706004140786585
2014-07-21,0.11066559743384198
2014-07-22,0.1733333333333329
2014-07-23,0.21401622335408507
2014-07-24,0.0656733524355258
2014-07-25,-0.4487329373104121
2014-07-28,0.1742883591761175
2014-07-29,-0.05259087393658225
2014-07-30,-0.00046783625731394024
2014-07-31,0.014326647564471745
2014-08-01,0.16825552895576543
2014-08-04,-0.11704697986577445
2014-08-05,0.11028318162889039
2014-08-06,-0.05636363636363236
2014-08-07,0.0377358490566047
2014-08-08,0.03778966131907405
2014-08-11,-0.20071428571428343
2014-08-12,-0.1853518821603936
2014-08-13,0.1583148558758317
2014-08-14,-0.015996718621822816
2014-08-15,0.024371373307545074
2014-08-18,0.3443877551020381
2014-08-19,0.179383712399122
2014-08-20,-0.12195121951219641
2014-08-21,-0.10370634354953502
2014-08-22,-0.0961246200607912
2014-08-25,-0.3534847901424687
2014-08-26,-0.0517241379310365
2014-08-27,0.022727272727269363
2014-08-28,0.41530054644808484
2014-08-29,0.02023809523809457
2014-09-01,0.20429407937540375
2014-09-02,0.1166666666666666
2014-09-03,0.12652645861601608
2014-09-04,-0.4112554112554099
2014-09-05,0.10375586854460084
2014-09-09,-0.021324863883846863
2014-09-10,0.013203463203462093
2014-09-11,-0.27569051295248087
2014-09-12,-0.014183185235816714
2014-09-15,-0.026944274341699763
2014-09-16,0.02850877192982519
2014-09-17,-0.289870129870128
2014-09-18,0.03119868637109817
2014-09-19,0.2149122807017545
2014-09-22,-0.04347826086956872
2014-09-23,-0.07291666666666596
2014-09-24,0.12774193548386947
2014-09-25,0.24523809523809825
2014-09-26,-0.07932875667429251
2014-09-29,0.13888888888889211
2014-09-30,0.006859756097559632
2014-10-08,0.20725806451612944
2014-10-09,-0.13936170212765966
2014-10-10,-0.03295194508009379
2014-10-13,-0.30555555555555736
2014-10-14,0.01189024390243987
2014-10-15,-0.33955696202531477
2014-10-16,-0.0560928433268869
2014-10-17,-0.18512949039264878
2014-10-20,0.205128205128204
2014-10-21,0.04953703703703543
2014-10-22,0.07527124773959974
2014-10-23,0.106110583570726
2014-10-24,0.22505237985542134
2014-10-27,-0.09859311740890511
2014-10-28,-0.10238073016317299
2014-10-29,0.12100262123198
2014-10-30,-0.03982270478284749
2014-10-31,-0.11167369504816352
2014-11-03,0.1253489702517172
2014-11-04,0.1469763461873625
2014-11-05,0.1192264892801502
2014-11-06,-0.11919398907103815
2014-11-07,0.07940630797773561
2014-11-10,-0.1366459627329214
2014-11-11,-0.17778649921507217
2014-11-12,-0.32115616218386156
2014-11-13,-0.029844472467421265
2014-11-14,-0.07700534759358187
2014-11-17,0.040178571428572694
2014-11-18,0.48325062034739535
2014-11-19,0.35625927758535314
2014-11-20,0.14781297134237908
2014-11-21,0.15497737556560873
2014-11-24,0.13651315789473673
2014-11-25,-0.5299539170506928
2014-11-26,-0.27863910422049876
2014-11-27,0.12324929971989278
2014-11-28,-0.07829670329670047
2014-12-01,-0.08771929824561465
2014-12-02,0.31527093596059336
2014-12-03,0.12200435729847511
2014-12-04,-0.11428571428571731
2014-12-05,-0.05952380952381185
2014-12-08,0.054919908466819975
2014-12-09,-0.18592730661696247
2014-12-10,-0.029411764705882686
2014-12-11,-0.06966731898238639
2014-12-12,0.07023809523809693
2014-12-15,-0.19746376811594318
2014-12-16,-0.16108966108966163
2014-12-17,-0.01923076923076899
2014-12-18,-0.09615901154982584
2014-12-19,-0.14220779220779595
2014-12-22,0.09935897435897542
2014-12-23,0.27986633249791304
2014-12-24,-0.07600732600732724
2014-12-25,0.1898864809081518
2014-12-26,0.11363636363636649
2014-12-29,0.15064102564102358
2014-12-30,-0.03859649122807211
2014-12-31,0.19940476190476394
2015-01-05,-0.014895729890764368
2015-01-06,0.32727272727272916
2015-01-07,-0.09760273972602475
2015-01-08,-0.11999999999999851
2015-01-09,-0.18867370892018914
2015-01-12,0.14687953555878186
2015-01-13,-0.5220779220779238
2015-01-14,-0.05965532479010219
2015-01-15,0.1199999999999983
2015-01-16,0.13138204225352065
2015-01-19,-0.28909299655568377
2015-01-20,0.17813852813853
2015-01-21,0.1339529797703659
2015-01-22,-0.14358974358974302
2015-01-23,0.03645833333333456
2015-01-26,0.058323765786451556
2015-01-27,0.0005376344085987715
2015-01-28,-0.2820227841066973
2015-01-29,0.03692307692307782
2015-01-30,-0.27083333333333365
2015-02-02,-0.0820512820512794
2015-02-03,0.10436432637571458
2015-02-04,0.42357111209570186
2015-02-05,0.061739130434781825
2015-02-06,0.2087765957446803
2015-02-09,0.14903846153845954
2015-02-10,-0.21068427370948567
2015-02-11,-0.49905719673161286
2015-02-12,-0.11548913043478079
2015-02-13,0.22010271460014627
2015-02-16,0.11805555555555633
2015-02-17,0.26879044300646865
2015-02-25,0.3834735279564562
2015-02-26,0.20695754716981005
2015-02-27,-0.32612507305669153
2015-03-02,-0.19444444444444609
2015-03-03,-0.22477283596365216
2015-03-04,-0.1914893617021292
2015-03-05,0.00042881646655072714
2015-03-06,0.14597025250778373
2015-03-09,0.17674812137899604
2015-03-10,0.08050343425041515
2015-03-11,0.04947022376477301
2015-03-12,-0.21433566433566192
2015-03-13,-0.05655885993588687
2015-03-16,-0.2584474677842228
2015-03-17,-0.02479933442866725
2015-03-18,0.20040607509717762
2015-03-19,0.08109145756204483
2015-03-20,0.015334370139966906
2015-03-23,0.17647058823529288
2015-03-24,0.1170668953687814
2015-03-25,-0.25501202886928476
2015-03-26,0.05664488017429074
2015-03-27,0.03357142857143104
2015-03-30,0.0624792289797271
2015-03-31,-0.06357039187227749
2015-04-01,0.06896551724137806
2015-04-02,-0.0668877833056918
2015-04-03,-0.007417582417584986
2015-04-07,-0.18993020937188365
2015-04-08,0.04987593052109156
2015-04-09,0.05970149253731378
2015-04-10,0.07210426739541449
2015-04-13,-0.07318087318087169
2015-04-14,0.11601307189542455
2015-04-15,-0.10767218831735043
2015-04-16,-0.10136815920398147
2015-04-17,-0.07123902837313392
2015-04-20,-0.06252521177894364
2015-04-21,-0.03597449908925249
2015-04-22,0.0022336385972752636
2015-04-23,0.016242937853108944
2015-04-24,0.11594202898550594
2015-04-27,0.1855522388059706
2015-04-28,0.04469307167643854
2015-04-29,0.06704690955651404
2015-04-30,0.04569399908382789
2015-05-04,-0.05384393895767499
2015-05-05,-0.160102564102564
2015-05-06,-0.029647035296469986
2015-05-07,-0.04905624221519811
2015-05-08,0.013976305072198773
2015-05-11,-0.1258278145695345
2015-05-12,0.06410256410256374
2015-05-13,-0.02874712528747105
2015-05-14,-0.045436084881712815
2015-05-15,-0.081490669830658
2015-05-18,0.03486399211865736
2015-05-19,-0.06140350877192978
2015-05-20,-0.09959751688382754
2015-05-21,0.020323912353129615
2015-05-22,-0.007700960456863713
2015-05-25,0.18575821641360568
2015-05-26,0.10264062217398928
2015-05-27,0.17100027759785477
2015-05-28,-0.015254917703736375
2015-05-29,0.09454901534109131
2015-06-01,-0.14695459579180134
2015-06-02,-0.06065458913021374
2015-06-03,-0.03960396039603837
2015-06-04,0.05697373288938279
2015-06-05,-0.09785638758050216
2015-06-08,-0.08404516445753882
2015-06-09,0.019417475728156556
2015-06-10,0.162512803004436
2015-06-11,0.019607843137256754
2015-06-12,0.05825242718446468
2015-06-15,0.10309278350515681
2015-06-16,0.04761904761904244
2015-06-17,-0.23605015673981095
2015-06-18,-0.04882924043404066
2015-06-19,-0.06930693069306942
2015-06-23,-0.010638297872345005
2015-06-24,0.006144393241171699
2015-06-25,-0.007792207792209044
2015-06-26,0.008428464739147684
2015-06-29,0.12486248624862531
2015-06-30,0.14748040313550426
2015-07-01,-0.17413381123058672
2015-07-02,0.06090225563909961
2015-07-03,0.17056347907411523
2015-07-06,0.0270132517838945
2015-07-07,-0.1283675289919733
2015-07-08,0.2716308745720507
2015-07-09,0.5652708413369181
2015-07-10,-0.18774348216961267
2015-07-13,-0.08739972521384677
2015-07-14,-0.04245515879545826
2015-07-15,-0.23668763988007258
2015-07-16,-0.9833159541188738
2015-07-17,-0.13529252437703285
2015-07-20,0.10827919373646523
2015-07-21,0.04439724919093763
2015-07-22,0.19905829260851887
2015-07-23,0.4607664501719228
2015-07-24,0.21876796596527676
2015-07-27,-0.16407150532382525
2015-07-28,0.18891988339364787
2015-07-29,-0.17867180733663107
2015-07-30,0.019978891442984897
2015-07-31,-0.005719650644233264
2015-08-03,0.09211929245388317
2015-08-04,-0.3901762447168027
2015-08-05,0.09334253719895635
2015-08-06,-0.17143996808935122
2015-08-07,-0.08083677685950323
2015-08-10,-0.21429176191685909
2015-08-11,0.3487344314985943
2015-08-12,-0.03966552315608715
2015-08-13,0.2227143309079424
2015-08-14,-0.06250000000000042
2015-08-17,0.2862439747868021
2015-08-18,-0.29331140350877216
2015-08-19,0.07160460021905656
2015-08-20,-0.17163009404388882
2015-08-21,0.154725609756096
2015-08-24,0.05747126436781398
2015-08-25,0.21462458745874594
2015-08-26,-0.051066651928816126
2015-08-27,0.1681818181818192
2015-08-28,-0.003124370086673524
2015-08-31,-0.18435704022988392
2015-09-01,-0.05520792079208011
2015-09-02,-0.09511181192660496
2015-09-07,-0.12564102564102553
2015-09-08,-0.057851239669423425
2015-09-09,-0.011650219298245518
2015-09-10,0.09418181818181962
2015-09-11,0.15097815040650145
2015-09-14,0.0027402622822455987
2015-09-15,0.0312500000000016
2015-09-16,-0.048245614035087356
2015-09-17,-0.300000000000001
2015-09-18,-0.10544469081053964
2015-09-21,-0.029730815588587724
2015-09-22,-0.053472222222222504
2015-09-23,0.15151515151514966
2015-09-24,0.11798839458413883
2015-09-25,0.09722222222221837
2015-09-28,0.21392190152801108
2015-09-29,-0.014814814814816328
2015-09-30,-0.1931818181818161
2015-10-08,0.20668693009118633
2015-10-09,0.08741258741258848
2015-10-12,-0.17809704526971984
2015-10-13,0.019943019943020383
2015-10-14,0.15978260869565186
2015-10-15,-0.22689075630252203
2015-10-16,-0.37358856739590685
2015-10-19,-0.19747899159663676
2015-10-20,-0.04351204351204172
2015-10-21,0.045862552594668524
2015-10-22,0.15866047911702202
2015-10-23,0.2154689092762491
2015-10-26,0.2565392354124725
2015-10-27,0.07411957411957246
2015-10-28,-0.02731182795698482
2015-10-29,-0.17589268845645345
2015-10-30,0.013888888888888682
2015-11-02,-0.04225352112675972
2015-11-03,0.16958507803578252
2015-11-04,-0.19619047619047902
2015-11-05,0.24015471167369878
2015-11-06,0.0
2015-11-09,0.04878048780487816
2015-11-10,-0.3924009171306909
2015-11-11,0.11344537815126002
2015-11-12,-0.29040404040404105
2015-11-13,0.035714285714284956
2015-11-16,-0.08326324642556711
2015-11-17,0.4593023255813952
2015-11-18,0.12941176470588361
2015-11-19,0.3203463203463227
2015-11-20,-0.035714285714284956
2015-11-23,-0.02107279693486734
2015-11-24,-0.323529411764706
2015-11-25,-0.035238095238097775
2015-11-26,-0.005046632953608798
2015-11-27,-0.004953031596925853
2015-11-30,0.20557271999084625
2015-12-01,0.013529411764706283
2015-12-02,-0.086038500506583
2015-12-03,-0.3376975793558238
2015-12-04,0.05758461054429594
2015-12-07,-0.22501716443528963
2015-12-08,0.18162162162162152
2015-12-09,-0.07510894642399353
2015-12-10,0.14724637681159558
2015-12-11,-0.14852198990627483
2015-12-14,0.07500000000000084
2015-12-15,-0.10647010647010773
2015-12-16,0.17101240784031357
2015-12-17,-0.042777777777777
2015-12-18,0.23021876916785866
2015-12-21,0.06578947368420905
2015-12-22,-0.06453423120089527
2015-12-23,-0.07462686567163992
2015-12-24,0.09541847041847017
2015-12-25,-0.3115435480823713
2015-12-28,-0.17348178137651882
2015-12-29,0.08386547467006986
2015-12-30,0.08333333333333275
2015-12-31,0.15864135864135676
2016-01-04,0.32007233273056096
2016-01-05,0.10769230769230771
2016-01-06,-0.011755485893414654
2016-01-07,-0.1499999999999984
2016-01-08,-0.25604395604395225
2016-01-11,-0.15567765567765648
2016-01-12,0.012987012987014922
2016-01-13,-0.0740093240093255
2016-01-14,0.09369369369369296
2016-01-15,0.03195488721804247
2016-01-18,0.30049174569722426
2016-01-19,-0.034263608731694276
2016-01-20,0.08389074693422488
2016-01-21,-0.058605974395449525
2016-01-22,0.13729977116704867
2016-01-25,-0.5054930150549282
2016-01-26,0.0845677349851871
2016-01-27,-0.056418219461697186
2016-01-28,0.1047496790757389
2016-01-29,-0.25691699604743157
2016-02-01,0.2583623227187566
2016-02-02,-0.16718724313661174
2016-02-03,-0.019668737060040648
2016-02-04,0.03288987435329052
2016-02-05,0.2686799501867987
2016-02-15,0.04587921254588086
2016-02-16,0.09253246753246847
2016-02-17,0.020489755122437836
2016-02-18,-0.21194295900178367
2016-02-19,-0.03064167267483453
2016-02-22,-0.03763926528154328
2016-02-23,0.24392177589852018
2016-02-24,0.06072435480373083
2016-02-25,0.1422459893048124
2016-02-26,-0.09649122807017751
2016-02-29,-0.13806620209059098
2016-03-01,-0.2227542179662563
2016-03-02,0.001099102399706016
2016-03-03,-0.02701784197111164
2016-03-04,0.1471734892787521
2016-03-07,0.13846604215456576
2016-03-08,-0.15042892156862803
2016-03-09,0.32480141218005215
2016-03-10,0.13065420560747606
2016-03-11,-0.12962962962962912
2016-03-14,0.23152142651711266
2016-03-15,0.24564783105022994
2016-03-16,-0.5165289256198334
2016-03-17,-0.14000000000000032
2016-03-18,0.004878048780487823
2016-03-21,-0.4085823850430368
2016-03-22,-0.12436646663067473
2016-03-23,0.2192952194624352
2016-03-24,0.018998950938684638
2016-03-25,-0.07367782645861376
2016-03-28,0.1583684355351218
2016-03-29,-0.004325003472808234
2016-03-30,-0.09670568778199357
2016-03-31,-0.11274895093868464
2016-04-01,0.06879977767812594
2016-04-05,-0.120142977291843
2016-04-06,0.07669894208355657
2016-04-07,-0.027250926531502774
2016-04-08,-0.005486641221374072
2016-04-11,0.11864406779661009
2016-04-12,0.13510971786833864
2016-04-13,-0.10375494071146359
2016-04-14,0.17969136141468384
2016-04-15,0.22168562081321014
2016-04-18,0.0631741140215712
2016-04-19,-0.12750582750582778
2016-04-20,0.12893692818395502
2016-04-21,-0.034054503025746544
2016-04-22,0.06802721088435483
2016-04-25,-0.10581818181818124
2016-04-26,0.15268325231150534
2016-04-27,-0.053906734947238785
2016-04-28,-0.10842188460525258
2016-04-29,-0.32888449497446043
2016-05-03,-0.1643534136546179
2016-05-04,-0.11027954735273426
2016-05-05,0.030740316004076815
2016-05-06,-0.04487840825350098
2016-05-09,0.352361792870362
2016-05-10,-0.06873470895074647
2016-05-11,0.030556668001602193
2016-05-12,-0.17431192660550365
2016-05-13,0.06000905797101597
2016-05-16,-0.48620479727261545
2016-05-17,0.32255574850464497
2016-05-18,0.10785634118967448
2016-05-19,0.09679414493351156
2016-05-20,0.016702586206895853
2016-05-23,0.4427058543550675
2016-05-24,-0.2868268492002523
2016-05-25,-0.19821294591092078
2016-05-26,-0.026607844488867067
2016-05-27,0.04011865035224233
2016-05-30,-0.26861405465699884
2016-05-31,0.12816194438940712
2016-06-01,0.004852919217561438
2016-06-02,0.019229008332569807
2016-06-03,-0.21315136476426694
2016-06-06,0.09815950920245431
2016-06-07,0.0023715908381714626
2016-06-08,0.17641277641277497
2016-06-13,0.1727078891257993
2016-06-14,0.35271493212669747
2016-06-15,-0.14814814814814734
2016-06-16,0.01256481850817572
2016-06-17,-0.08891038039974149
2016-06-20,-0.2571428571428568
2016-06-21,-0.3685958254269459
2016-06-22,0.314814814814814
2016-06-23,-0.09736938253562291
2016-06-24,0.02527401676337849
2016-06-27,0.41785714285714304
2016-06-28,0.23221387538665375
2016-06-29,-0.2186147186147196
2016-06-30,0.17836997812823657
2016-07-01,0.056352343308864385
2016-07-04,-0.3555945499587121
2016-07-05,0.07325425993986218
2016-07-06,0.197893997894
2016-07-07,-0.060286895838716166
2016-07-08,-0.09715859587982281
2016-07-11,0.005726825090986931
2016-07-12,-0.13290314941984505
2016-07-13,-0.2435069215557032
2016-07-14,-0.11272310045895051
2016-07-15,-0.05295696095969618
2016-07-18,0.2601327742837179
2016-07-19,-0.1039539212234017
2016-07-20,0.03360748723766323
2016-07-21,0.28766157461809644
2016-07-22,0.2082344565733263
2016-07-25,-0.3174400815910252
2016-07-26,0.0887077876428777
2016-07-27,0.16138938580799034
2016-07-28,-0.3902885006095083
2016-07-29,-0.1778508013374842
2016-08-01,0.22786395863318876
2016-08-02,-0.0009521290663854452
2016-08-03,-0.21033912324235
2016-08-04,0.2698668932313785
2016-08-05,0.08939663514061794
2016-08-08,-0.2829905137597435
2016-08-09,0.10281363786825763
2016-08-10,0.19429857464366304
2016-08-11,-0.08368696452187757
2016-08-12,-0.16373697243086863
2016-08-15,0.20304068691165394
2016-08-16,0.02516363729521194
2016-08-17,-0.026810865549875995
2016-08-18,-0.02985731808317823
2016-08-19,0.19257178526841273
2016-08-22,-0.1385513658778304
2016-08-23,-0.1762888054342327
2016-08-24,-0.17880808577180649
2016-08-25,0.17969515301124656
2016-08-26,-0.1279117566456554
2016-08-29,0.18456341834149592
2016-08-30,-0.0016417553100515903
2016-08-31,0.15607073624243362
2016-09-01,-0.3791699500919365
2016-09-02,0.10999615901670909
2016-09-05,-0.1574867597496384
2016-09-06,0.08700591715976186
2016-09-07,0.0862631024625111
2016-09-08,0.19492262215266865
2016-09-09,-0.17022602390528596
2016-09-12,0.1647251547142342
2016-09-13,-0.015999999999998953
2016-09-14,-0.31811023622047224
2016-09-19,0.048904538341158044
2016-09-20,0.16015295871410795
2016-09-21,-0.30445752733389614
2016-09-22,0.2065217391304359
2016-09-23,0.21801801801801785
2016-09-26,-0.027777777777776114
2016-09-27,-0.03619548752291882
2016-09-28,0.2683000604960702
2016-09-29,-0.33048868127919634
2016-09-30,0.08575556688764212
2016-10-10,0.06837606837606643
2016-10-11,-0.03284955752212412
2016-10-12,-0.028616623526030262
2016-10-13,-0.0030171848353662406
2016-10-14,0.06895368782161282
2016-10-17,-0.13814351023653254
2016-10-18,0.03233333333333245
2016-10-19,0.0663866684731082
2016-10-20,0.20969089390141993
2016-10-21,-0.3046717171717179
2016-10-24,0.15776744186046487
2016-10-25,0.10931372549019727
2016-10-26,-0.026805132666377185
2016-10-27,0.003182803634854417
2016-10-28,0.25623822975517985
2016-10-31,-0.10307537688442181
2016-11-01,-0.1533613445378163
2016-11-02,-0.10411445279866349
2016-11-03,-0.15692782191826865
2016-11-04,-0.2360584911930883
2016-11-07,0.3329561715864086
2016-11-08,0.09601579325197497
2016-11-09,0.16444745354697987
2016-11-10,0.18819306308160222
2016-11-11,0.20914298303591072
2016-11-14,-0.16771014623782196
2016-11-15,0.058392854480115025
2016-11-16,-0.19105685946673034
2016-11-17,-0.06363368495491706
2016-11-18,-0.035880950950348524
2016-11-21,-0.29878525803595324
2016-11-22,-0.19561743894088107
2016-11-23,0.05835543766578278
2016-11-24,0.07788912964969215
2016-11-25,-0.06433018739301179
2016-11-28,0.18466820218635077
2016-11-29,0.24766367601368355
2016-11-30,0.007118144773817376
2016-12-01,-0.12148569596850806
2016-12-02,0.09525428907700996
2016-12-05,0.022373373677573423
2016-12-06,-0.3002522763729836
2016-12-07,0.1075160015676462
2016-12-08,-0.09526372893190162
2016-12-09,-0.14983769582978995
2016-12-12,-0.04573661096218677
2016-12-13,0.10444902064077424
2016-12-14,-0.1197755345162714
2016-12-15,0.05691539588033491
2016-12-16,-0.043647561844651586
2016-12-19,-0.13103355059622124
2016-12-20,0.011639837849654968
2016-12-21,-0.1513211968592061
2016-12-22,0.04052054680336722
2016-12-23,0.033334746121895145
2016-12-26,0.10979618671926408
2016-12-27,0.09100902568849879
2016-12-28,0.14846258503401313
2016-12-29,-0.11693548387096857
2016-12-30,0.1668281827644387
2017-01-03,0.0659240577273364
2017-01-04,-0.1512296177492639
2017-01-05,-0.004552301255229839
2017-01-06,0.11331328594860561
2017-01-09,-0.006662124309182144
2017-01-10,-0.11891551071879053
2017-01-11,0.040856525606811696
2017-01-12,0.05492518261116306
2017-01-13,-0.00034449497037146275
2017-01-16,0.04465979940362949
2017-01-17,0.15728314238952712
2017-01-18,0.18812669107114421
2017-01-19,-0.07318520628590355
2017-01-20,0.06990460078010934
2017-01-23,-0.35425495113724614
2017-01-24,-0.0614981055085995
2017-01-25,-0.2613000707259039
2017-01-26,0.08636788048552396
2017-02-03,0.08336882669100686
2017-02-06,0.2413273612337305
2017-02-07,-0.12569200307107803
2017-02-08,0.1286875376279334
2017-02-09,-0.14126984126983844
2017-02-10,-0.15098684210526384
2017-02-13,0.05143219028041375
2017-02-14,0.011573223255769316
2017-02-15,-0.0053661616161627575
2017-02-16,0.25977571916138426
2017-02-17,-0.21971899224806196
2017-02-20,-0.12707196280573824
2017-02-21,0.1690194912945499
2017-02-22,-0.045830862000788536
2017-02-23,-0.2546475140331807
2017-02-24,0.34476049291207056
2017-02-27,0.20234778121775032
2017-02-28,-0.10439118926073174
2017-03-01,-0.0055859766644999476
2017-03-02,0.013278388278389536
2017-03-03,-0.19387741131692776
2017-03-06,-0.16912536816494006
2017-03-07,-0.08141037265391023
2017-03-08,0.046401406566524514
2017-03-09,0.11608818011256875
2017-03-10,-0.09661951570366982
2017-03-13,0.08705551463202266
2017-03-14,0.10952981157362114
2017-03-15,0.23341703285206236
2017-03-16,-0.03857640617222187
2017-03-17,0.19880980346096563
2017-03-20,-0.2655815329979256
2017-03-21,0.10760639123015706
2017-03-22,-0.39271611688233043
2017-03-23,-0.0894425361132347
2017-03-24,0.03335765696327197
2017-03-27,0.4289782802757025
2017-03-28,-0.18983496440139286
2017-03-29,0.1738576554669132
2017-03-30,0.17882351672124586
2017-03-31,0.02098450681285438
2017-04-05,-0.31811473964828063
2017-04-06,0.061834239698069074
2017-04-07,0.03748968894494882
2017-04-10,-0.17787687718728695
2017-04-11,-0.23710934654330917
2017-04-12,0.027614688795403942
2017-04-13,0.017042606516289915
2017-04-14,-0.23420526014865628
2017-04-17,0.19192817858298558
2017-04-18,0.2920573634859343
2017-04-19,0.02289773403706402
2017-04-20,0.08680646570554867
2017-04-21,0.2660456303781478
2017-04-24,-0.12890353920888342
2017-04-25,-0.27709223224173196
2017-04-26,0.08407079646017773
2017-04-27,-0.22291255371036867
2017-04-28,-0.18319083136256215
2017-05-02,-0.09055293024758529
2017-05-03,0.09444520893536756
2017-05-04,0.11596157996978171
2017-05-05,0.21035191198886327
2017-05-08,0.15458937198067813
2017-05-09,0.09224544518661869
2017-05-10,0.03876011074317596
2017-05-11,-0.137361419068736
2017-05-12,-0.11916786359634751
2017-05-15,-0.13185303372778612
2017-05-16,0.008672699849171257
2017-05-17,0.05486509694038887
2017-05-18,-0.24949494949494988
2017-05-19,0.24968394437420993
2017-05-22,0.005396654074474663
2017-05-23,0.10386029411764654
2017-05-24,0.011789975019260115
2017-05-25,0.2706803720019585
2017-05-26,-0.4369747899159672
2017-05-31,0.24801271860095486
2017-06-01,-0.1671401515151502
2017-06-02,-0.20753670095942578
2017-06-05,-0.031604217195467216
2017-06-06,0.2724128325363307
2017-06-07,-0.41024182076813864
2017-06-08,0.09520884520884527
2017-06-09,0.0330231065468545
2017-06-12,-0.08984663331419475
2017-06-13,-0.002479662417889626
2017-06-14,0.35639097744360954
2017-06-15,-0.02040451047073609
2017-06-16,0.171052631578948
2017-06-19,0.054587792754465375
2017-06-20,-0.14724409448818765
2017-06-21,-0.21172723475354988
2017-06-22,-0.029178907533735424
2017-06-23,-0.14929149797570962
2017-06-26,-0.09826175869120538
2017-06-27,0.42075471698112993
2017-06-28,-0.023611111111110916
2017-06-29,0.2130325814536354
2017-06-30,0.11025641025641038
2017-07-03,0.25860215053763314
2017-07-04,-0.26990725935401133
2017-07-05,0.17526881720429888
2017-07-06,-0.29047619047619233
2017-07-07,0.05000000000000125
2017-07-10,-0.21885856079404364
2017-07-11,-0.1675141242937862
2017-07-12,-0.05640089267599631
2017-07-13,0.06913580246913785
2017-07-14,-0.08970276008492639
2017-07-17,0.19871794871794932
2017-07-18,0.20238095238095388
2017-07-19,0.0074478649453806785
2017-07-20,0.11291547958214493
2017-07-21,-0.03154526519153711
2017-07-24,-0.0971643299229532
2017-07-25,-0.17706043956044054
2017-07-26,0.00013923698134398269
2017-07-27,-0.1696801480306624
2017-07-28,-0.0016333306557381397
2017-07-31,0.19301651695160893
2017-08-01,0.033414845527708965
2017-08-02,-0.07105682289025501
2017-08-03,0.1939373802678946
2017-08-04,0.10469702702070441
2017-08-07,-0.1592407227697519
2017-08-08,0.22833489576239274
2017-08-09,0.09057880792947876
2017-08-10,-0.12096052894052825
2017-08-11,0.13187701788299536
2017-08-14,-0.22610819940781451
2017-08-15,-0.28980657251857633
2017-08-16,-0.10106175725696516
2017-08-17,0.17608699223048954
2017-08-18,-0.2433580686368783
2017-08-21,0.3417909321799494
2017-08-22,0.12285126093669749
2017-08-23,0.2097239210204471
2017-08-24,-0.21500640614990363
2017-08-25,-0.03857361404531314
2017-08-28,-0.20845332999429472
2017-08-29,0.07840225794575958
2017-08-30,-0.2960865436787854
2017-08-31,0.04974001094690699
2017-09-01,0.0541364296081301
2017-09-04,0.018491245295366995
2017-09-05,-0.1624956950981517
2017-09-06,0.33004385964912086
2017-09-07,-0.08472946798433462
2017-09-08,0.11578947368420868
2017-09-11,-0.08860459606728177
2017-09-12,0.11397849462365613
2017-09-13,-0.2974674589700043
2017-09-14,0.19263328379890154
2017-09-15,-0.24075794783301396
2017-09-18,0.11904071873641359
2017-09-19,-0.07639553429026942
2017-09-20,0.023870967741937213
2017-09-21,-0.09860791731572882
2017-09-22,0.15030292230934075
2017-09-25,-0.06374343466496708
2017-09-26,-0.0201561898476625
2017-09-27,0.0849999999999955
2017-09-28,0.06815515102752343
2017-09-29,0.028291925465837222
2017-10-09,0.17767194798058122
2017-10-10,0.08797086605212394
2017-10-11,-0.05797101449274984
2017-10-12,-0.1761837344659432
2017-10-13,0.039999999999998856
2017-10-16,-0.22526581366011755
2017-10-17,0.07643800094295136
2017-10-18,0.09580885233058928
2017-10-19,0.07131410256410384
2017-10-20,0.04466973886328636
2017-10-23,0.14531788286877742
2017-10-24,-0.17063492063492158
2017-10-25,-0.0030119671910699072
2017-10-26,-0.10817307692307807
2017-10-27,-0.13545984261428273
2017-10-30,-0.180727597366366
2017-10-31,0.02970934510669647
2017-11-01,-0.08310173271573251
2017-11-02,0.34956800445930925
2017-11-03,-0.16368380557321216
2017-11-06,0.39144316730523465
2017-11-07,0.06326451110245435
2017-11-08,0.025287356321837904
2017-11-09,-0.18073316283034968
2017-11-10,0.23161676646706625
2017-11-13,-0.42958892958892947
2017-11-14,-0.0765095442150377
2017-11-15,0.23977172253034582
2017-11-16,-0.1271129141311703
2017-11-17,-0.059108280254776685
2017-11-20,0.20929070929071125
2017-11-21,0.03423013245033238
2017-11-22,-0.4014965925793962
2017-11-23,0.08664128496745592
2017-11-24,0.0477968698580399
2017-11-27,-0.09518525731949719
2017-11-28,0.06687790536179765
2017-11-29,0.22770057706825725
2017-11-30,0.08198185027343664
2017-12-01,-0.0750462054973042
2017-12-04,0.27150199613623566
2017-12-05,-0.002413619647513722
2017-12-06,0.03898001184267498
2017-12-07,0.0553406404470211
2017-12-08,0.11362218988507125
2017-12-11,-0.2530929038281987
2017-12-12,-0.010779787897690365
2017-12-13,-0.11150307809365792
2017-12-14,-0.2871321914800181
2017-12-15,-0.07762726829154798
2017-12-18,0.11634915746403221
2017-12-19,-0.08347818713698203
2017-12-20,-0.07760699216395314
2017-12-21,0.27515527950310725
2017-12-22,0.02574730968513383
2017-12-25,-0.12398857686815731
2017-12-26,0.03796167873837664
2017-12-27,0.12318563789152051
2017-12-28,-0.2353383458646619
2017-12-29,0.014555504375862519
2018-01-02,-0.09989429175475736
2018-01-03,-0.009826152683292202
2018-01-04,0.011734997029112685
2018-01-05,0.2629445234708375
2018-01-08,-0.024022959997165427
2018-01-09,0.05711354309165605
2018-01-10,0.03331138907175447
2018-01-11,-0.04051663128096178
2018-01-12,-0.1999564080209228
2018-01-15,-0.1292048309961899
2018-01-16,0.20542279411764758
2018-01-17,-0.06884728175050864
2018-01-18,-0.009483368719033932
2018-01-19,-0.017693059628542965
2018-01-22,0.06591062205254819
2018-01-23,0.03063858695651872
2018-01-24,0.03321678321678441
2018-01-25,0.13850129198966238
2018-01-26,0.10353535353535315
2018-01-29,0.07764731945059916
2018-01-30,-0.35974661675784503
2018-01-31,0.157181054239879
2018-02-01,-0.2496124031007777
2018-02-02,-0.09615384615385052
2018-02-05,0.0347756012893617
2018-02-06,0.2988770515404578
2018-02-07,-0.2304537815126067
2018-02-08,0.11563421828908779
2018-02-09,0.15846615846616857
2018-02-12,-0.15421942527864108
2018-02-13,-0.1511767052253698
2018-02-14,0.1450196078431379
2018-02-22,0.11115705896947999
2018-02-23,-0.1499191499191566
2018-02-26,0.16280991735537315
2018-02-27,0.10695522622127591
2018-02-28,-0.14738026358084086
2018-03-01,-0.1843670348343255
2018-03-02,0.029829059829059763
2018-03-05,0.1219306466729168
2018-03-06,-0.11230026012633955
2018-03-07,0.1637812164853641
2018-03-08,0.22248803827751784
2018-03-09,0.2005426356589162
2018-03-12,-0.27165972554107004
2018-03-13,0.062318840579707144
2018-03-14,0.014871410055261061
2018-03-15,-0.2261735419630216
2018-03-16,-0.3720351729723476
2018-03-19,0.2169338367271152
2018-03-20,0.08162654210084697
2018-03-21,-0.1572150477259986
2018-03-22,0.1445945945945966
2018-03-23,0.6459369817578761
2018-03-26,-0.2627092533634581
2018-03-27,-0.08703839313735379
2018-03-28,0.17948717948717974
2018-03-29,-0.05000000000000091
2018-03-30,-0.723514211886304
2018-04-02,0.3415455512229707
2018-04-03,0.11265822784810159
2018-04-04,-0.06871242792295286
2018-04-09,0.01843495699795616
2018-04-10,0.2685801245441434
2018-04-11,-0.29685690653432617
2018-04-12,-0.1570602045950037
2018-04-13,-0.14496278575226107
2018-04-16,0.11391798417851579
2018-04-17,-0.002497370089296208
2018-04-18,0.03454790823211804
2018-04-19,0.16122687126166818
2018-04-20,0.16142557651991668
2018-04-23,-0.12037689327228095
2018-04-24,-0.004764466302927371
2018-04-25,0.0586556753329112
2018-04-26,-0.2538672654690599
2018-04-27,-0.06439897245105794
2018-05-02,-0.13340461933276165
2018-05-03,0.025881560590752695
2018-05-04,-0.022153128643605944
2018-05-07,0.24806125454009767
2018-05-08,-0.082930418330882
2018-05-09,0.005726092089727616
2018-05-10,-0.017475875693335606
2018-05-11,0.1576384662203268
2018-05-14,-0.2057986722666268
2018-05-15,0.18960751796572872
2018-05-16,0.20892281832189669
2018-05-17,-0.02941389552995578
2018-05-18,-0.2463481436396806
2018-05-21,0.2245551336460394
2018-05-22,-0.09259259259259388
2018-05-23,-0.14967195188627935
2018-05-24,0.02166567282846302
2018-05-25,0.14831697054698106
2018-05-28,-0.16711711711711533
2018-05-29,0.04385964912280647
2018-05-30,0.14048522634860527
2018-05-31,0.08686145895448101
2018-06-01,-0.04347826086956352
2018-06-04,-0.00797101449275383
2018-06-05,-0.1284750337381901
2018-06-06,-0.1680672268907596
2018-06-07,-0.07894175378707151
2018-06-08,-0.11111111111111145
2018-06-11,0.057971014492754665
2018-06-12,0.06378205128204761
2018-06-13,0.06275701770069946
2018-06-14,-0.08865177502991628
2018-06-15,0.14725568942436496
2018-06-19,0.44186046511627625
2018-06-20,-0.03561827956988982
2018-06-21,0.02127659574468426
2018-06-22,0.13201412114455752
2018-06-25,0.021706661356167826
2018-06-26,-0.7387354651162759
2018-06-27,0.04534050179211591
2018-06-28,-0.0112359550561843
2018-06-29,-0.01146076146076419
2018-07-02,-0.0022956841138662767
2018-07-03,0.23371710526315526
2018-07-04,0.02234706616729
2018-07-05,0.044569288389514974
2018-07-06,-0.06573802541543936
2018-07-09,-0.15667915106117145
2018-07-10,0.06315789473684306
2018-07-11,0.22626404494382063
2018-07-12,-0.07373737373737457
2018-07-13,0.011431805319748876
2018-07-16,0.03590620420126814
2018-07-17,-0.0232558139534886
2018-07-18,-0.49940476190476335
2018-07-19,0.07266210492017383
2018-07-20,0.06282894736841854
2018-07-23,0.03491436100131945
2018-07-24,0.03888081395348688
2018-07-25,0.26190476190475903
2018-07-26,-0.15533498759306097
2018-07-27,0.3547149122807076
2018-07-30,0.11891062523973886
2018-07-31,-0.027252906976741265
2018-08-01,0.28235294117647586
2018-08-02,0.16894848270995688
2018-08-03,-0.4824561403508822
2018-08-06,0.2803244438982391
2018-08-07,0.09673428995546655
2018-08-08,-0.3577511263405056
2018-08-09,-0.03425929400588459
2018-08-10,0.10640981694398649
2018-08-13,-0.6148107721584308
2018-08-14,0.06308531486556392
2018-08-15,0.044148185164033855
2018-08-16,0.3109683795341488
2018-08-17,0.05105702088228928
2018-08-20,0.28610861838095386
2018-08-21,-0.14266683596583318
2018-08-22,0.08070054945054861
2018-08-23,-0.5162979226482052
2018-08-24,-0.19084573962622953
2018-08-27,0.004546234345513191
2018-08-28,-0.19838200473559767
2018-08-29,-0.13794612467178657
2018-08-30,0.2131347532150686
2018-08-31,0.10129870129870124
2018-09-03,-0.22124670763827908
2018-09-04,0.21666666666666728
2018-09-05,0.007100226384026437
2018-09-06,0.10716480275285398
2018-09-07,0.1634028892455856
2018-09-10,0.18637157833430257
2018-09-11,0.03501400560224242
2018-09-12,0.18324720068906486
2018-09-13,-0.17700244654823474
2018-09-14,-0.223327035895394
2018-09-17,-0.009900990099008886
2018-09-18,-0.06853226727584635
2018-09-19,-0.13126361655773755
2018-09-20,-0.040488922841868225
2018-09-21,0.02182890855456998
2018-09-25,-0.047619047619047956
2018-09-26,-0.015291262135920174
2018-09-27,0.0422322775263951
2018-09-28,0.1921749136939036
2018-10-08,0.17011494252873818
2018-10-09,0.17261904761904756
2018-10-10,0.043518518518518824
2018-10-11,0.03263403263403638
2018-10-12,-0.14474408365437655
2018-10-15,-0.09435736677116513
2018-10-16,-0.2240990990990973
2018-10-17,0.1914814814814826
2018-10-18,0.045454545454540696
2018-10-19,0.035902503293807765
2018-10-22,0.029077029840392038
2018-10-23,0.11380498145203896
2018-10-24,-0.21000000000000124
2018-10-25,-0.1996047430830005
2018-10-26,0.04009608277900985
2018-10-29,-0.0696640019234224
2018-10-30,-0.02283596365375432
2018-10-31,-0.1475409836065569
2018-11-01,0.22408026755852656
2018-11-02,0.13989346790019583
2018-11-05,0.031496062992123604
2018-11-06,0.03018890483022492
2018-11-07,0.1043755159806574
2018-11-08,-0.18305378831694571
2018-11-09,-0.3175750834260286
2018-11-12,0.07547169811320774
2018-11-13,0.013028895768831848
2018-11-14,0.0431654676258995
2018-11-15,-0.034025742321904875
2018-11-16,0.15459525258673262
2018-11-19,-0.05678010932816009
2018-11-20,0.019958152261388584
2018-11-21,0.3565217391304349
2018-11-22,0.15938722294654328
2018-11-23,0.08753573470554421
2018-11-26,-0.002117003149688209
2018-11-27,-0.04417630634224032
2018-11-28,-0.5124357176250585
2018-11-29,-0.1213865752082312
2018-11-30,-0.22659476324208938
2018-12-03,0.27273202566545596
2018-12-04,-0.08421980044653267
2018-12-05,0.13681246760819787
2018-12-06,0.17880744798973097
2018-12-07,0.16087506627239423
2018-12-10,-0.5741550961492996
2018-12-11,0.03945193014439555
2018-12-12,0.010329581061865045
2018-12-13,-0.2301574282614175
2018-12-14,-0.14125000000000348
2018-12-17,0.27361252979230477
2018-12-18,-0.0001926040061625764
2018-12-19,-0.08534571723426491
2018-12-20,0.2319273646707287
2018-12-21,0.08674418604651461
2018-12-24,0.09456928838951369
2018-12-25,0.14398101898101637
2018-12-26,0.13372160745486655
2018-12-27,-0.12640692640692905
2018-12-28,0.013640429338101612
2019-01-02,-0.16100323624595228
2019-01-03,-0.13094274146905435
2019-01-04,0.06792292132438786
2019-01-07,-0.048728617660655074
2019-01-08,0.03023394131641905
2019-01-09,0.07766990291261414
2019-01-10,-0.07995746943116011
2019-01-11,-0.32101002778784604
2019-01-14,0.1011095700416075
2019-01-15,0.04787459398389853
2019-01-16,-0.07692307692307133
2019-01-17,0.15656565656566684
2019-01-18,0.5819041986989983
2019-01-21,-0.03324175824175542
2019-01-22,-0.011350293542073439
2019-01-23,0.05890505890505733
2019-01-24,-0.03720693170235345
2019-01-25,-0.5846372688477957
2019-01-28,0.5421087533156475
2019-01-29,-0.0423280423280442
2019-01-30,0.3391859012296996
2019-01-31,0.08662375183740277
2019-02-01,0.5162162162162123
2019-02-11,-0.8094164456233409
2019-02-12,0.10435616964114547
2019-02-13,-0.3674641795079767
2019-02-14,-0.09526363782653358
2019-02-15,-0.4778846153846128
2019-02-18,0.4623706702654057
2019-02-19,-0.27451079028120196
2019-02-20,0.057790549169858166
2019-02-21,-0.07220873786407644
2019-02-22,0.20212703962704004
2019-02-25,-0.11592096612339388
2019-02-26,0.2042528493035039
2019-02-27,-0.1047585015782264
2019-02-28,0.07964285714285617
2019-03-01,-0.03547837929860528
2019-03-04,-0.07171194190425195
2019-03-05,-0.06008622783580471
2019-03-06,0.12716255378940972
2019-03-07,-0.022607338017172334
2019-03-08,-0.07118162736140309
2019-03-11,-0.17872210125203622
2019-03-12,0.04688747007183049
2019-03-13,-0.08907071887784947
2019-03-14,0.16604842248015422
2019-03-15,0.11386412329808752
2019-03-18,0.2470425003651191
2019-03-19,-0.04133226324237707
2019-03-20,0.3376582894993196
2019-03-21,-0.25309495482169664
2019-03-22,-0.08969896806497227
2019-03-25,-0.19876791551420617
2019-03-26,-0.05833551084400405
2019-03-27,-0.6613678632838572
2019-03-28,-0.017488986784144137
2019-03-29,0.6762299552743621
2019-04-01,0.3217353951890044
2019-04-02,0.21337877572841793
2019-04-03,0.6488819875776435
2019-04-04,0.1493700787401604
2019-04-08,-0.6634320735444396
2019-04-09,-0.21651273363209056
2019-04-10,-0.22520818753081195
2019-04-11,-0.41305729446134004
2019-04-12,0.028783892882001075
2019-04-15,-0.04250446393913493
2019-04-16,0.047727422897626055
2019-04-17,0.17904376973970565
2019-04-18,0.08394399396872734
2019-04-19,-0.17286601350697628
2019-04-22,0.09965491582642873
2019-04-23,-0.2360798145063837
2019-04-24,-0.22556302783860033
2019-04-25,0.0755067431155613
2019-04-26,0.1530991386590106
2019-04-29,-0.08861898335582354
2019-04-30,0.2965317919075158
2019-05-06,0.19048397645520143
2019-05-07,0.21764911056853942
2019-05-08,-0.031145717463848248
2019-05-09,0.0373750543242037
2019-05-10,-0.02941176470588526
2019-05-13,-0.14510489510489405
2019-05-14,-0.2876139817629189
2019-05-15,0.045651702450659505
2019-05-16,0.2407314545515344
2019-05-17,0.027933932193568323
2019-05-20,0.11279751638495882
2019-05-21,0.070887445887446
2019-05-22,-0.020339890271642333
2019-05-23,-0.33995894215674394
2019-05-24,-0.27861695421754107
2019-05-27,0.24736255475776847
2019-05-28,0.014215514215512738
2019-05-29,-0.06438725262473302
2019-05-30,0.2146683673469374
2019-05-31,0.2298873178501894
2019-06-03,-0.4176243459983082
2019-06-04,-0.15025299271874304
2019-06-05,-0.0714301875692931
2019-06-06,0.02696428571428823
2019-06-10,-0.013523101068519998
2019-06-11,0.27938735177865703
2019-06-12,0.13182189786843707
2019-06-13,0.19240217973914625
2019-06-14,-0.13815126050420445
2019-06-17,-0.07285479590547048
2019-06-18,-0.17875527426160376
2019-06-19,0.10043668122270347
2019-06-20,0.11262677484787097
2019-06-21,0.06765657719398643
2019-06-24,0.10555088309503674
2019-06-25,-0.007300444213470633
2019-06-26,-0.12271142983053186
2019-06-27,-0.3259622367465505
2019-06-28,-0.09508022958177079
2019-07-01,0.02397128573259845
2019-07-02,0.10908292935942857
2019-07-03,-0.029042248582949487
2019-07-04,0.22346905404300457
2019-07-05,0.29555359093036676
2019-07-08,-0.09535811048003083
2019-07-09,-0.07045439535037404
2019-07-10,0.01631875029057511
2019-07-11,-0.24359988138776223
2019-07-12,-0.482835820895523
2019-07-15,-0.0435557039881975
2019-07-16,-0.05379771513237466
2019-07-17,0.09849355489982917
2019-07-18,0.11456551235915212
2019-07-19,0.411290322580646
2019-07-22,-0.002634099616861167
2019-07-23,0.0014803740509470656
2019-07-24,-0.014819682904787392
2019-07-25,-0.005691699604744506
2019-07-26,-0.27323062108810936
2019-07-29,-0.08164098972922476
2019-07-30,0.1610247187841634
2019-07-31,-0.17967999190706735
2019-08-01,0.10578816859405778
2019-08-02,0.1620371409920361
2019-08-05,0.43975630160785817
2019-08-06,-0.17177477648179146
2019-08-07,0.32173204582039006
2019-08-08,-0.08381794369700159
2019-08-09,0.058294765907036666
2019-08-12,-0.34420451622493553
2019-08-13,0.12431811265683994
2019-08-14,-0.33345774531901573
2019-08-15,0.04603751204685265
2019-08-16,-0.22063650635079296
2019-08-19,-0.0036138607877954296
2019-08-20,-0.17037731427232292
2019-08-21,0.16998837402424988
2019-08-22,-0.05117388114453296
2019-08-23,0.11659272404613988
2019-08-26,0.029656167587199998
2019-08-27,0.15085509490422602
2019-08-28,-0.09498059313411723
2019-08-29,-0.07582375478927468
2019-08-30,0.04905023216547196
2019-09-02,-0.023600055858118366
2019-09-03,-0.07739654813890638
2019-09-04,0.03481986854147935
2019-09-05,0.1400000000000013
2019-09-06,-0.03904399126678221
2019-09-09,0.13131466828971233
2019-09-10,0.06813815655017438
2019-09-11,0.02813531353135104
2019-09-12,-0.04729109274563621
2019-09-16,-0.08402619813318597
2019-09-17,-0.22680990773834037
2019-09-18,0.020462132050113654
2019-09-19,0.09262820512820447
2019-09-20,-0.07376664621603471
2019-09-23,0.07434502834380224
2019-09-24,0.19286958303452223
2019-09-25,-0.15967535618190598
2019-09-26,-0.2088046757164383
2019-09-27,0.0545131724171041
2019-09-30,0.1008826583592924
2019-10-08,-0.1404931634918765
2019-10-09,0.24503987089424767
2019-10-10,0.17482878318791312
2019-10-11,0.03789484058542444
2019-10-14,-0.15359049005337005
2019-10-15,0.038679636715688304
2019-10-16,-0.0692028985507243
2019-10-17,-0.17412850307586877
2019-10-18,0.018094170403587278
2019-10-21,-0.042874156411275816
2019-10-22,-0.01067117334620881
2019-10-23,-0.2489871086556169
2019-10-24,0.09362934362934373
2019-10-25,-0.1682876712328762
2019-10-28,0.09872159090909174
2019-10-29,0.0008567931456523459
2019-10-30,0.1904505232897586
2019-10-31,-0.042938099389712776
2019-11-01,0.1916637396089459
2019-11-04,-0.04781250000000057
2019-11-05,0.13817829457364636
2019-11-06,-0.07683237137714381
2019-11-07,0.1384188260179789
2019-11-08,-0.09867909867910152
2019-11-11,0.0009375000000012915
2019-11-12,0.06280487804877902
2019-11-13,0.08278679711859013
2019-11-14,-0.040300546448087324
2019-11-15,0.010303030303031934
2019-11-18,0.039062499999999084
2019-11-19,-0.3245395719263302
2019-11-20,0.051489263449547976
2019-11-21,-0.12628205128205028
2019-11-22,0.07042016806722708
2019-11-25,0.1759999999999988
2019-11-26,0.299319727891155
2019-11-27,-0.0535255777207196
2019-11-28,0.07866300366300409
2019-11-29,-0.12826447944447414
2019-12-02,-0.14353246753246723
2019-12-03,-0.28019509690668676
2019-12-04,0.07684069611780527
2019-12-05,0.012755102040814752
2019-12-06,0.09163549982596951
2019-12-09,0.14008793178883724
2019-12-10,0.24617036811771792
2019-12-11,-0.14839407870831176
2019-12-12,0.04089551762953448
2019-12-13,0.05287547821794279
2019-12-16,-0.2454721309230343
2019-12-17,-0.11769888200366163
2019-12-18,-0.003713200985173859
2019-12-19,0.013651454533564769
2019-12-20,-0.08400770712909184
2019-12-23,-0.09178921568627518
2019-12-24,-0.040908371577783306
2019-12-25,0.07073718779707631
2019-12-26,-0.17328999175899795
2019-12-27,0.034147763151502766
2019-12-30,0.10685464268351805
2019-12-31,0.05460835186558107
2020-01-02,0.06327766318450946
2020-01-03,0.16979153817688536
2020-01-06,-0.11836922268907775
2020-01-07,-0.02910528206970838
2020-01-08,0.1897243107769422
2020-01-09,0.09049386240365868
2020-01-10,-0.17590679522497596
2020-01-13,0.14880659448819153
2020-01-14,0.23733246158875426
2020-01-15,-0.3182072829131657
2020-01-16,-0.29765395894428526
2020-01-17,0.17945906432748265
2020-01-20,-0.08856640853777872
2020-01-21,-0.2969276639875536
2020-01-22,0.34937611408199987
2020-01-23,0.3530303030303064
2020-02-03,-0.21208844027877627
2020-02-04,0.42035457211410365
2020-02-05,0.27520669489816335
2020-02-06,-0.20693986497095726
2020-02-07,-0.3713058419244024
2020-02-10,0.27873371199465286
2020-02-11,-0.40065387968613725
2020-02-12,-0.15627928015249834
2020-02-13,-0.09609043805934853
2020-02-14,0.12963917525773516
2020-02-17,-0.0062539086929318255
2020-02-18,-0.20123552123552116
2020-02-19,-0.02384627884302855
2020-02-20,0.37773079633544676
2020-02-21,0.07921686746987629
2020-02-24,-0.11608058608058802
2020-02-25,0.31376623376623547
2020-02-26,0.15563725490196034
2020-02-27,-0.4141801959923944
2020-02-28,0.00524259198958265
2020-03-02,0.17795918367347222
2020-03-03,-0.056426332288403026
2020-03-04,-0.095833333333332
2020-03-05,0.09430063932636916
2020-03-06,-0.11074151074151173
2020-03-09,-0.3368266225409107
2020-03-10,0.024027879677183027
2020-03-11,-0.08371021775544528
2020-03-12,0.1254491555874952
2020-03-13,0.26023727516264794
2020-03-16,0.09965521076632328
2020-03-17,-0.1454671600370038
2020-03-18,0.15632926537449116
2020-03-19,0.10584658111472924
2020-03-20,-0.186896400351185
2020-03-23,0.09666341001272977
2020-03-24,0.13178410794602907
2020-03-25,-0.13045733144743007
2020-03-26,-0.39268232990699936
2020-03-27,-0.24619675456389442
2020-03-30,-0.12094324540367755
2020-03-31,-0.21641393158842362
2020-04-01,0.29636498022031554
2020-04-02,0.528036983414818
2020-04-03,0.3271853922507054
2020-04-07,0.11044128660096073
2020-04-08,0.2933254758163076
2020-04-09,-0.3398832855392195
2020-04-10,-0.5515412569190916
2020-04-13,-0.17955019345666123
2020-04-14,-0.06224930763975256
2020-04-15,-0.274178154825026
2020-04-16,0.02827505437510537
2020-04-17,0.24871794871794953
2020-04-20,0.046651985971782904
2020-04-21,0.09112426035503259
2020-04-22,0.2828738069989408
2020-04-23,0.09679948349012882
2020-04-24,-0.08666985188724641
2020-04-27,0.016692851531814323
2020-04-28,-0.10153846153846433
2020-04-29,-0.30404589371980817
2020-04-30,-0.06566472742942933
2020-05-06,0.055900621118014505
2020-05-07,0.06533180778031816
2020-05-08,0.006942148760333715
2020-05-11,0.23344017094017339
2020-05-12,-0.02283816752507739
2020-05-13,0.03418803418803677
2020-05-14,-0.16787639238232066
2020-05-15,0.25735691666022803
2020-05-18,0.40581979513277083
2020-05-19,0.15540994623656057
2020-05-20,-0.038927370680929455
2020-05-21,0.26332152695789335
2020-05-22,-0.25749408616744696
2020-05-25,-0.6501982111850092
2020-05-26,-0.01474780701754519
2020-05-27,0.11153545299774748
2020-05-28,-0.23095238095238374
2020-05-29,0.23415195854593038
2020-06-01,0.2921190773387127
2020-06-02,-0.09140477092010722
2020-06-03,-0.16476713099760837
2020-06-04,0.244871794871795
2020-06-05,-0.36983110998447455
2020-06-08,0.023904382470123164
2020-06-09,-0.05618603708582114
2020-06-10,0.09556499945515902
2020-06-11,-0.27748049052396695
2020-06-12,0.2959233525133007
2020-06-15,-0.26601955813111355
2020-06-16,0.11800213042963381
2020-06-17,-0.0176736662373055
2020-06-18,0.10812952898550432
2020-06-19,-0.2687814637924375
2020-06-22,0.04280233527940078
2020-06-23,-0.16573295985060488
2020-06-24,-0.09378395508873653
2020-06-29,0.20413151840491114
2020-06-30,0.15198869372097917
2020-07-01,0.07143855073813488
2020-07-02,0.1007484168105915
2020-07-03,0.011036411232746693
2020-07-06,-0.34157041505295455
2020-07-07,0.12046254399195463
2020-07-08,0.08966873037762962
2020-07-09,0.0752275591653836
2020-07-10,0.08313179365880859
2020-07-13,0.3840573667972999
2020-07-14,-0.15481533979053375
2020-07-15,-0.12286210423654337
2020-07-16,-0.056169212690952416
2020-07-17,0.07883336250656482
2020-07-20,-0.44272753877670645
2020-07-21,0.1669535283993095
2020-07-22,0.10522208031786831
2020-07-23,-0.004597291518174302
2020-07-24,-0.017505277973259126
2020-07-27,0.2793932667406602
2020-07-28,-0.23759398496240308
2020-07-29,-0.051724137931036876
2020-07-30,-0.03510611259372252
2020-07-31,-0.10563265306122371
2020-08-03,-0.02219300958861939
2020-08-04,0.05582633626868401
2020-08-05,-0.012145748987851559
2020-08-06,0.10477824374126345
2020-08-07,-0.0027175572519097975
2020-08-10,-0.13955319832851099
2020-08-11,0.14060245830014917
2020-08-12,0.07464012451773527
2020-08-13,0.0059306567509423425
2020-08-14,-0.0016345171315146033
2020-08-17,0.08915760323357104
2020-08-18,-0.08654043731205602
2020-08-19,-0.10727049493286703
2020-08-20,-0.1812636485542221
2020-08-21,0.05009120481820514
2020-08-24,-0.0582022423658192
2020-08-25,-0.03767403767403821
2020-08-26,0.012518054886856249
2020-08-27,0.101562500000002
2020-08-28,0.006832298136648023
2020-08-31,0.19883766745468806
2020-09-01,-0.10298355035197089
2020-09-02,-0.014038231780168255
2020-09-03,-0.0048543689320394
2020-09-04,-0.048083623693381136
2020-09-07,-0.17336926478717435
2020-09-08,0.2537112010796204
2020-09-09,0.22356902356902442
2020-09-10,0.055047419125088065
2020-09-11,-0.024605451936870935
2020-09-14,-0.058610792192882025
2020-09-15,-0.10710808179162477
2020-09-16,-0.1359504132231424
2020-09-17,-0.1335263835263839
2020-09-18,0.044117647058822644
2020-09-21,0.26595071595071673
2020-09-22,-0.006391164060560426
2020-09-23,-0.10653970535393333
2020-09-24,0.09883720930232666
2020-09-25,-0.011450381679390043
2020-09-28,-0.32420732420732623
2020-09-29,-0.11425339366515919
2020-09-30,0.07526764256062801
2020-10-09,0.06409811408075833
2020-10-12,-0.030024272698489615
2020-10-13,0.15152583902583966
2020-10-14,0.1665331572452326
2020-10-15,-0.10870495977645907
2020-10-16,-0.1741293532338299
2020-10-19,0.28323289613612074
2020-10-20,-0.0357811436351246
2020-10-21,-0.1446112167092698
2020-10-22,0.1085556986191888
2020-10-23,0.20727246122329443
2020-10-26,-0.37391683206661114
2020-10-27,0.02082116706347297
2020-10-28,0.1904460835967665
2020-10-29,-0.10206688871652297
2020-10-30,-0.026450681795560177
2020-11-02,0.08542961834575444
2020-11-03,0.05917189210709691
2020-11-04,-0.19693266235322182
2020-11-05,0.2044107965766983
2020-11-06,-0.30647790248218826
2020-11-09,0.30555250137437934
2020-11-10,-0.020982224665566245
2020-11-11,0.09774851316907333
2020-11-12,-0.1301821176901275
2020-11-13,0.2521469565581692
2020-11-16,-0.34289432587194124
2020-11-17,-0.047361054675155945
2020-11-18,-0.08752798925212683
2020-11-19,0.08176700696498361
2020-11-20,-0.0019634703196368467
2020-11-23,0.13746885471260564
2020-11-24,-0.026759277811170858
2020-11-25,0.18500273672687437
2020-11-26,-0.11600370027751869
2020-11-27,-0.05293577981651458
2020-11-30,-0.10973608642144256
2020-12-01,0.061008322443083955
2020-12-02,-0.062091503267973434
2020-12-03,0.05217391304347604
2020-12-04,0.3079825087884794
2020-12-07,0.15503845865774674
2020-12-08,0.10167362455349482
2020-12-09,-0.006349982044526838
2020-12-10,0.22803097131400163
2020-12-11,-0.10421653270084455
2020-12-14,-0.04774501647599454
2020-12-15,-0.0681141492029741
2020-12-16,-0.04652319034581685
2020-12-17,-0.3286112421070376
2020-12-18,-0.2862065403571411
2020-12-21,0.15096766291033936
2020-12-22,0.1635151515151516
2020-12-23,0.1606192411148636
2020-12-24,0.12625787421671814
2020-12-25,0.1290202940164805
2020-12-28,-0.31061872909698984
2020-12-29,-0.33852439024390324
2020-12-30,-0.2702037219428758
2020-12-31,-0.07685870578588523
2021-01-04,-0.07343648105079129
2021-01-05,0.016992595405354097
2021-01-06,0.01835131332082618
2021-01-07,0.10265637421618883
2021-01-08,0.11112660644939647
2021-01-11,0.04722183703292856
2021-01-12,0.22056903615000112
2021-01-13,0.10588997190024553
2021-01-14,0.001628353081226424
2021-01-15,-0.1292295687523184
2021-01-18,0.002570694087403064
2021-01-19,-0.21819600419533788
2021-01-20,-0.0004416906174965732
2021-01-21,-0.034562528916731894
2021-01-22,0.14642692180798372
2021-01-25,-0.042440318302385614
2021-01-26,0.09487019101888162
2021-01-27,0.010989258450245601
2021-01-28,0.1885245901639337
2021-01-29,-0.12487555404023229
2021-02-01,0.0023400676758190825
2021-02-02,0.11456427243731093
2021-02-03,-0.05255350709896177
2021-02-04,-0.20334532853525236
2021-02-05,0.08918347409944685
2021-02-08,0.05253806157184
2021-02-09,-0.2011855197233785
2021-02-10,0.08439599616070112
2021-02-18,-0.016013543168850897
2021-02-19,0.08354922279792765
2021-02-22,0.15052515201769093
2021-02-23,0.08532736558214296
2021-02-24,0.010633005845045292
2021-02-25,0.16106924322283384
2021-02-26,-0.13425925925925902
2021-03-01,-0.2788508134302544
2021-03-02,-0.0380729229788631
2021-03-03,-0.02885811964230475
2021-03-04,-0.14861761575879273
2021-03-05,0.0435058346017252
2021-03-08,0.1423779166924574
2021-03-09,0.3478051331014589
2021-03-10,-0.07752831925279399
2021-03-11,0.14008810245714498
2021-03-12,-0.043892877593269694
2021-03-15,0.0027307129956124533
2021-03-16,-0.5332213968318607
2021-03-17,0.03948486501677999
2021-03-18,-0.1827123939942843
2021-03-19,0.014233458214107163
2021-03-22,0.018724426258672478
2021-03-23,0.18438451440864104
2021-03-24,0.0680803520532635
2021-03-25,0.04463695569793155
2021-03-26,-0.07992962171672885
2021-03-29,-0.0627600202942672
2021-03-30,0.09250249807525099
2021-03-31,-0.049549067645201235
2021-04-01,0.31156052159524245
2021-04-02,0.08970087718740072
2021-04-06,-0.050137122831643614
2021-04-07,-0.07555716026472578
2021-04-08,-0.035924895124608516
2021-04-09,-0.4388226165588508
2021-04-12,0.07546194784746112
2021-04-13,-0.04493817224365068
2021-04-14,-0.04690176482577811
2021-04-15,0.16226809816529147
2021-04-16,0.14641225935885946
2021-04-19,-0.17823499342777765
2021-04-20,0.30721452460582854
2021-04-21,0.05643492654665934
2021-04-22,-0.199135406498398
2021-04-23,0.08639021796916571
2021-04-26,0.26232767762460235
2021-04-27,-0.33559601965398955
2021-04-28,0.148781034399962
2021-04-29,0.10057328898011356
2021-04-30,0.08381374722838172
2021-05-06,-0.19983097004413525
2021-05-07,0.29348224795379063
2021-05-10,0.11679655060523678
2021-05-11,0.09656680348306407
2021-05-12,-0.0764227642276429
2021-05-13,0.21253311318106022
2021-05-14,-0.08471172761421816
2021-05-17,-0.3818177575273164
2021-05-18,-0.18921755725190914
2021-05-19,-0.06272207166516068
2021-05-20,-0.37240072277478703
2021-05-21,-0.14859998737679872
2021-05-24,0.22761009401286497
2021-05-25,0.01581325301204934
2021-05-26,0.02725411035047592
2021-05-27,0.21063025665649562
2021-05-28,0.04476773864216344
2021-05-31,-0.1312031993667919
2021-06-01,0.17088029537504756
2021-06-02,-0.1335899057345733
2021-06-03,-0.0508187464709208
2021-06-04,0.03500000000000053
2021-06-07,0.05317156880642933
2021-06-08,-0.22484289903644672
2021-06-09,0.13606793426184305
2021-06-10,-0.08022066429146052
2021-06-11,0.05179867986798602
2021-06-15,-0.10014637258704104
2021-06-16,0.08845422869813056
2021-06-17,0.013066215031719279
2021-06-18,0.1838839332933751
2021-06-21,0.0648340989366972
2021-06-22,0.0024606971975395103
2021-06-23,0.04249815225424951
2021-06-24,-0.020811084055989783
2021-06-25,-0.11187727721592186
2021-06-28,-0.2758215693651559
2021-06-29,0.14205500381970926
2021-06-30,-0.08924212657022045
2021-07-01,-0.08309193749954948
2021-07-02,0.058907135311629236
2021-07-05,0.17068001863064813
2021-07-06,-0.2208428826075884
2021-07-07,0.08444930034882447
2021-07-08,0.2525732506569461
2021-07-09,-0.0710348905972803
2021-07-12,-0.04627047751829927
2021-07-13,0.27936903279369063
2021-07-14,-0.10445757250268702
2021-07-15,-0.3068667650757202
2021-07-16,0.07144141761438678
2021-07-19,-0.008554083885210048
2021-07-20,-0.18156232117623744
2021-07-21,0.3302987197724055
2021-07-22,0.20950798661381648
2021-07-23,-0.09086267993352985
2021-07-26,0.03100568585643241
2021-07-27,0.13344981920804372
2021-07-28,-0.3571397745050454
2021-07-29,-0.1511975470533765
2021-07-30,0.4700432718885209
2021-08-02,0.025993178425226644
2021-08-03,-0.15860043971303
2021-08-04,0.09303796778028738
2021-08-05,0.2373726210409956
2021-08-06,-0.6335610455872891
2021-08-09,0.07206053936347158
2021-08-10,0.08958679540544369
2021-08-11,0.012946239488786978
2021-08-12,-0.3750496855376816
2021-08-13,0.2292548254915957
2021-08-16,-0.2173662117795233
2021-08-17,-0.03816675939300292
2021-08-18,-0.00960017283011466
2021-08-19,0.2584388185654013
2021-08-20,0.12012012012012009
2021-08-23,0.16214505657049666
2021-08-24,0.23782863477985397
2021-08-25,0.033009538929326745
2021-08-26,-0.057990340471830666
2021-08-27,-0.22327801485696214
2021-08-30,0.04059837128220551
2021-08-31,-0.3285515359913598
2021-09-01,0.028504030926844358
2021-09-02,-0.04533542976939237
2021-09-03,0.1378973488311351
2021-09-06,0.03274563447833348
2021-09-07,0.1550382813501226
2021-09-08,-0.1316070890912283
2021-09-09,0.05634648370497422
2021-09-10,-0.09117286267217128
2021-09-13,-0.20360171193188992
2021-09-14,-0.17215487033723217
2021-09-15,0.14084760120132434
2021-09-16,-0.006818181818181709
2021-09-17,0.16915017158365855
2021-09-22,0.16042378673957672
2021-09-23,0.17928829453995934
2021-09-24,-0.059007772876826306
2021-09-27,0.018691588785046755
2021-09-28,-0.08290024924431239
2021-09-29,-0.16478755097908832
2021-09-30,0.10735498431688972
2021-10-08,0.019209803763223843
2021-10-11,0.04881895973815997
2021-10-12,-0.04365050585632944
2021-10-13,0.24874247381176592
2021-10-14,-0.24926686217008726
2021-10-15,-0.08550521251002446
2021-10-18,-0.09856644914432462
2021-10-19,-0.07163609337522395
2021-10-20,-0.3495636132077235
2021-10-21,0.4292803970223318
2021-10-22,0.13664071304169634
2021-10-25,-0.018225413547259907
2021-10-26,0.1545845563124177
2021-10-27,0.25579628056263587
2021-10-28,-0.45613837589566597
2021-10-29,-0.05075740010819939
2021-11-01,0.010654704726317937
2021-11-02,0.04249267201481076
2021-11-03,-0.11075818425216008
2021-11-04,0.018150268673086598
2021-11-05,-0.12455512289075919
2021-11-08,0.04926490731439974
2021-11-09,-0.32476503759398506
2021-11-10,0.06492189493760864
2021-11-11,0.1597659542817466
2021-11-12,0.09947072419686302
2021-11-15,0.005184486937787482
2021-11-16,0.17265945236924077
2021-11-17,-0.09759805411979229
2021-11-18,-0.14958471760797284
2021-11-19,0.05453797334197874
2021-11-22,0.02553059864851914
2021-11-23,0.19934320771056224
2021-11-24,0.17813650523930966
2021-11-25,0.07064060581252592
2021-11-26,-0.08961869332713342
2021-11-29,0.09626129544043538
2021-11-30,-0.15346842125693916
2021-12-01,-0.10690577358731317
2021-12-02,0.052128285214889054
2021-12-03,0.03474330012621761
2021-12-06,-0.3143684256634869
2021-12-07,0.07360989264017358
2021-12-08,-0.02808283477275613
2021-12-09,-0.06082307821953338
2021-12-10,-0.03546904496960957
2021-12-13,0.28148347649413513
2021-12-14,-0.23800764345402428
2021-12-15,0.022306648575305094
2021-12-16,0.038214101904271894
2021-12-17,0.07613576015063059
2021-12-20,-0.20150392327811695
2021-12-21,0.19076743847386018
2021-12-22,0.0639160839160838
2021-12-23,-0.04076838032061978
2021-12-24,-0.09486702888189907
2021-12-27,0.16616194865042694
2021-12-28,-0.1233490851811453
2021-12-29,-0.05526826115061367
2021-12-30,0.028490028490029587
2021-12-31,0.0576923076923066
2022-01-04,-0.11249120337790201
2022-01-05,0.051062512894573885
2022-01-06,0.007417051327572623
2022-01-07,0.027504354518571777
2022-01-10,0.05116279069767535
2022-01-11,-0.009993896856882498
2022-01-12,0.0825966153068942
2022-01-13,0.013873976294237485
2022-01-14,-0.041278774542992336
2022-01-17,-0.07399384092598403
2022-01-18,0.01571416756265219
2022-01-19,-0.01292986117411997
2022-01-20,-0.07052204078179083
2022-01-21,0.03747294372294324
2022-01-24,0.11735841341238955
2022-01-25,0.12374681393372805
2022-01-26,-0.0291262135922341
2022-01-27,0.10369463961474626
2022-01-28,0.28726783968719555
2022-02-07,-0.09143138795188298
2022-02-08,-0.10488215488215377
2022-02-09,0.08805031446540879
2022-02-10,0.10685176675454233
2022-02-11,-0.35544965786901306
2022-02-14,0.020904024767803793
2022-02-15,0.22424768518518384
2022-02-16,-0.12260754988657538
2022-02-17,-0.10647735060971884
2022-02-18,-0.022400731452455386
2022-02-21,-0.007682983682985242
2022-02-22,-0.3456374235474
2022-02-23,0.06389056875450051
2022-02-24,-0.17015567224211992
2022-02-25,0.25752058672156364
2022-02-28,-0.0693473193473185
2022-03-01,0.15324159021406789
2022-03-02,-0.045122807017545036
2022-03-03,0.3112687373583446
2022-03-04,-0.25691948421159405
2022-03-07,0.2662655971479503
2022-03-08,0.045252525252524475
2022-03-09,0.061591000401768105
2022-03-10,-0.17731956750849037
2022-03-11,0.08758038734619474
2022-03-14,-0.24740795598815082
2022-03-15,-0.09955420123017862
2022-03-16,0.03769361891351132
2022-03-17,-0.12010438741072071
2022-03-18,-0.0981163090319421
2022-03-21,-0.10138289368505285
2022-03-22,0.004978625420669645
2022-03-23,-0.21149514563106814
2022-03-24,0.07546611423498115
2022-03-25,0.14287384087898353
2022-03-28,0.1838939241356172
2022-03-29,-0.02892134309633306
2022-03-30,0.27696172075920855
2022-03-31,0.14701731266160648
2022-04-01,-0.028751317398617287
2022-04-06,-0.07734971907756125
2022-04-07,0.17056216597108917
2022-04-08,-0.2534061652036531
2022-04-11,-0.0074296634557268065
2022-04-12,0.0391166333455905
2022-04-13,0.10104524880258578
2022-04-14,-0.11750881316098584
2022-04-15,0.026444444444444645
2022-04-18,-0.20523406339654443
2022-04-19,-0.06057403309442779
2022-04-20,-0.16382133791861309
2022-04-21,-0.07058910100075921
2022-04-22,0.16495652173912906
2022-04-25,0.40179320318149037
2022-04-26,-0.06296937316577692
2022-04-27,0.0634031601375463
2022-04-28,0.134132201769067
2022-04-29,-0.08695652173912893
2022-05-05,-0.564700854700855
2022-05-06,0.1671070532394121
2022-05-09,0.08115472802479315
2022-05-10,0.028515107994705254
2022-05-11,0.05104408352668188
2022-05-12,0.3574602365993089
2022-05-13,-0.18257516152874237
2022-05-16,-0.07902865423808902
2022-05-17,-0.19480724282616596
2022-05-18,-0.038353728196733355
2022-05-19,-0.09611777788843073
2022-05-20,0.012910363280848915
2022-05-23,0.09077433472153532
2022-05-24,0.18026330722959888
2022-05-25,-0.09799841220198613
2022-05-26,0.0074343890815143825
2022-05-27,0.07900706888048602
2022-05-30,-0.15103012394320003
2022-05-31,-0.11858135674291628
2022-06-01,0.044131586283800775
2022-06-02,-0.07102895832671256
2022-06-06,-0.07707061150769733
2022-06-07,0.05844381947234631
2022-06-08,0.05292479108634944
2022-06-09,0.03395625398173835
2022-06-10,-0.002744004461795624
2022-06-13,0.1350315482087927
2022-06-14,0.09011397105903288
2022-06-15,0.0721649484536111
2022-06-16,0.02004072942701056
2022-06-17,0.22193325661680166
2022-06-20,0.11463000826554014
2022-06-21,0.03517842660178567
2022-06-22,0.016442646483099177
2022-06-23,0.10345855694692958
2022-06-24,-0.14904184247538785
2022-06-27,-0.2717673782894104
2022-06-28,-0.11045473639991651
2022-06-29,-0.2246229206072073
2022-06-30,-0.21605734027742035
2022-07-01,-0.023621373836889725
2022-07-04,0.058144047986592215
2022-07-05,0.010648534849528815
2022-07-06,0.23446092152542056
2022-07-07,0.10213676107601645
2022-07-08,-0.0011416980585346945
2022-07-11,0.05415146964170733
2022-07-12,-0.02786098554303005
2022-07-13,-0.11535380841530923
2022-07-14,0.005012516804969591
2022-07-15,0.0477474892395989
2022-07-18,-0.07217581704646725
2022-07-19,0.018007153925921032
2022-07-20,0.044616021124619064
2022-07-21,-0.0661945367827723
2022-07-22,-0.001283028455284975
2022-07-25,-0.02054601745004326
2022-07-26,0.05591607181483915
2022-07-27,-0.10843697523089826
2022-07-28,0.27412097983669304
2022-07-29,-0.08349723193473205
2022-08-01,0.07129235734193946
2022-08-02,-0.08781323623902323
2022-08-03,0.06011060996563429
2022-08-04,-0.3389816609512442
2022-08-05,0.1463491463491456
2022-08-08,-0.04088053839582662
2022-08-09,0.03624236410346776
2022-08-10,-0.012759493319198966
2022-08-11,0.04513711526347479
2022-08-12,-0.137861777613635
2022-08-15,0.06544874750269057
2022-08-16,0.0009497541231326938
2022-08-17,0.1664715752000852
2022-08-18,0.08489630161204768
2022-08-19,0.003152936280189242
2022-08-22,-0.10037037037037194
2022-08-23,-0.017768174885613372
2022-08-24,-0.27907892663970824
2022-08-25,-0.04908424908424999
2022-08-26,0.12952061739522214
2022-08-29,0.12142461964038795
2022-08-30,0.08373456144023733
2022-08-31,0.10154095701540988
2022-09-01,0.08149473265752427
2022-09-02,-0.09828091684434852
2022-09-05,-0.050457698520793626
2022-09-06,-0.22170231729055576
2022-09-07,0.12136752136752021
2022-09-08,0.015862158817014735
2022-09-09,-0.009484450258667444
2022-09-13,-0.18458832029654995
2022-09-14,0.1828787878787907
2022-09-15,-0.07202111613876226
2022-09-16,-0.15706087312974026
2022-09-19,0.0536116403949425
2022-09-20,0.3099334559145457
2022-09-21,0.00816901408450586
2022-09-22,0.017929089443997962
2022-09-23,0.048867595818816556
2022-09-26,-0.08777686628383963
2022-09-27,-0.22388781431334748
2022-09-28,-0.039280125195618146
2022-09-29,-0.0621568929249416
2022-09-30,0.05941938178780063
2022-10-10,0.07185168933742692
2022-10-11,0.24119810825013116
2022-10-12,0.016136236739251054
2022-10-13,0.05432584269662882
2022-10-14,0.04833923890185509
2022-10-17,0.06427950445555679
2022-10-18,-0.2550925107908214
2022-10-19,-0.06356171099399313
2022-10-20,-0.020181347150257656
2022-10-21,-0.028145525451561303
2022-10-24,-0.11577873713174647
2022-10-25,0.1260800891944627
2022-10-26,0.17832825203252
2022-10-27,0.019134835522350707
2022-10-28,0.010655581039756428
2022-10-31,0.09878262432056281
2022-11-01,0.07956374038977217
2022-11-02,-0.1617763994910944
2022-11-03,-0.06574631705735096
2022-11-04,0.059941407755762136
2022-11-07,-0.07991726850439063
2022-11-08,-0.15989545424469
2022-11-09,-0.004040371778083751
2022-11-10,0.029863004123855393
2022-11-11,0.037890492519877625
2022-11-14,0.07820332258113308
2022-11-15,0.028979930140312443
2022-11-16,0.15842820537770658
2022-11-17,0.07071031236628081
2022-11-18,-0.32722017788239527
2022-11-21,-0.047268172872036496
2022-11-22,0.06696043387156209
2022-11-23,-0.1519287924748019
2022-11-24,-0.11462410920405437
2022-11-25,0.3072284748342546
2022-11-28,-0.06340376388685764
2022-11-29,-0.036885245901637956
2022-11-30,-0.027701199056695283
2022-12-01,0.09737515293070888
2022-12-02,-0.1887732527941833
2022-12-05,0.10174136773808837
2022-12-06,-0.03257686357712795
2022-12-07,0.25616828253284796
2022-12-08,0.04765502787415876
2022-12-09,0.07478061662770706
2022-12-12,-0.0683089761646655
2022-12-13,0.04021045136338909
2022-12-14,-0.3063656342007877
2022-12-15,-0.10493763236706413
2022-12-16,0.09196620444841204
2022-12-19,0.08634001694372691
2022-12-20,0.003773256320202243
2022-12-21,0.22268740031897805
2022-12-22,-0.011663893025021282
2022-12-23,-0.20911878706744708
2022-12-26,-0.09648387096774197
2022-12-27,-0.028004354479908254
2022-12-28,-0.26560071063735247
2022-12-29,0.012289337845691858
2022-12-30,0.14753560890313483
2023-01-03,-0.04399999999999924
2023-01-04,0.022032292982140343
2023-01-05,0.19817539058045458
2023-01-06,0.1032506281407024
2023-01-09,0.02704317944120814
2023-01-10,0.08456621004566146
2023-01-11,-0.03270750988142195
2023-01-12,-0.028492043445315446
2023-01-13,-0.03182870370370462
2023-01-16,-0.0358471206874445
2023-01-17,-0.02621123169068301
2023-01-18,0.022847948511664558
2023-01-19,-0.013790238836967467
2023-01-20,-0.14897486772486504
2023-01-30,-0.16640250077048083
2023-01-31,0.01583106815664715
2023-02-01,0.02781659162655832
2023-02-02,0.16444444444444348
2023-02-03,0.14701354679802695
2023-02-06,0.18201445602177282
2023-02-07,0.0967230443974656
2023-02-08,-0.04839181286549574
2023-02-09,-0.2796581196581186
2023-02-10,-0.0977330336218843
2023-02-13,-0.006966618287369407
2023-02-14,-0.10085933966531027
2023-02-15,0.05515075376884269
2023-02-16,0.1586825099020207
2023-02-17,0.02522904416792114
2023-02-20,-0.09357116313638142
2023-02-21,0.00995024875621858
2023-02-22,-0.1177796197482242
2023-02-23,-0.1520187405263861
2023-02-24,0.06638557459406152
2023-02-27,0.11188168696837729
2023-02-28,-0.16959064327485265
2023-03-01,0.29185421809205525
2023-03-02,0.08960253741698647
2023-03-03,-0.07414470422213112
2023-03-06,0.006820866516783146
2023-03-07,0.29900240798073374
2023-03-08,-0.3552670187793409
2023-03-09,0.17676604599433307
2023-03-10,0.14231112243597926
2023-03-13,-0.16166985188724062
2023-03-14,-0.12941176470588112
2023-03-15,0.17254704301075205
2023-03-16,-0.10600581207620252
2023-03-17,-0.020955843045008415
2023-03-20,0.2539173789173785
2023-03-21,-0.02822580645161345
2023-03-22,0.1029759514567452
2023-03-23,-0.054748494853369994
2023-03-24,-0.11888438474902727
2023-03-27,-0.22507122507122596
2023-03-28,0.0115591397849487
2023-03-29,-0.2515999718686277
2023-03-30,-0.050872353383728294
2023-03-31,-0.1521097612386475
2023-04-03,0.07059396299902695
2023-04-04,0.13131634819532603
2023-04-06,0.19269499874760107
2023-04-07,0.06249881876027182
2023-04-10,0.41464244587501387
2023-04-11,0.07974752504862942
2023-04-12,-0.1393510021129255
2023-04-13,0.030753920549551603
2023-04-14,0.03341051218988309
2023-04-17,-0.3056883387915415
2023-04-18,-0.18258871680143463
2023-04-19,0.019799359799948988
2023-04-20,-0.1702219008451175
2023-04-21,0.036811181340695574
2023-04-24,0.09641488342382865
2023-04-25,0.13344215033704965
2023-04-26,0.05229532571322422
2023-04-27,0.05126719122662171
2023-04-28,-0.19020882584712606
2023-05-04,-0.056451194857706846
2023-05-05,0.051815111861545596
2023-05-08,0.0031116855761428863
2023-05-09,-0.01102941176470586
2023-05-10,0.13066611387507152
2023-05-11,0.15919823426752702
2023-05-12,-0.09792101765711195
2023-05-15,-0.05496933621933699
2023-05-16,0.04710676095205227
2023-05-17,0.07357020208690856
2023-05-18,-0.2648254423720689
2023-05-19,0.0076160516566986716
2023-05-22,0.028502747252746555
2023-05-23,0.0616644560938123
2023-05-24,-0.08849557522123994
2023-05-25,0.22087904285156423
2023-05-26,0.22474432526814803
2023-05-29,-0.09761705685618802
2023-05-30,-0.08955780410501482
2023-05-31,-0.06227106227106003
2023-06-01,0.06983487991266334
2023-06-02,-0.3703902613677062
2023-06-05,0.11001584228129054
2023-06-06,0.0652216832129961
2023-06-07,0.043683701676265514
2023-06-08,-0.30374053030303094
2023-06-09,0.13744242091455608
2023-06-12,0.014021468632766203
2023-06-13,-0.09881618449781629
2023-06-14,-0.018109887111625894
2023-06-15,0.12196969696969778
2023-06-16,-0.021913450705783755
2023-06-19,-0.1432422207509706
2023-06-20,-0.048555974593094194
2023-06-21,0.10587963764353078
2023-06-26,0.02745098039215843
2023-06-27,0.21001544874224004
2023-06-28,0.03186979957088582
2023-06-29,0.07496928746929085
2023-06-30,-0.06918238993710887
2023-07-03,0.01140721481962782
2023-07-04,-0.34699915469146064
2023-07-05,0.05420229618777943
2023-07-06,0.041891891891890035
2023-07-07,0.01986754966887395
2023-07-10,0.07889072253713086
2023-07-11,0.24718694479173553
2023-07-12,0.04603725209260407
2023-07-13,-0.05810810810810774
2023-07-14,0.01384031549966511
2023-07-17,-0.10071993224167246
2023-07-18,-0.0934925728653222
2023-07-19,0.00044688457609999566
2023-07-20,0.11980505095258948
2023-07-21,-0.07411190557258086
2023-07-24,-0.09422196796338499
2023-07-25,0.08679590702540278
2023-07-26,-0.039772727272728875
2023-07-27,-0.03727447568458273
2023-07-28,0.12596553773024638
2023-07-31,0.20412237490277513
2023-08-01,-0.10872114718268533
2023-08-02,-0.0710900473933659
2023-08-03,-0.044692737430170826
2023-08-04,-0.1714411400420174
2023-08-07,-0.14141646588824747
2023-08-08,0.02719887204717622
2023-08-09,0.12385121663435608
2023-08-10,0.02932000773032359
2023-08-11,0.16041380420649742
2023-08-14,0.11140422180384857
2023-08-15,0.10930719924150178
2023-08-16,-0.08776116924099073
2023-08-17,0.10021367102615694
2023-08-18,-0.17545159268334548
2023-08-21,-0.038073610947271005
2023-08-22,0.032446463335498804
2023-08-23,0.17722222222222384
2023-08-24,-0.21902784218060378
2023-08-25,0.19066102093625076
2023-08-28,0.04115646258503611
2023-08-29,-0.22234416154521514
2023-08-30,-0.18730418943533766
2023-08-31,0.0723267814498758
2023-09-01,-0.13341171201433286
2023-09-04,-0.08036529680365437
2023-09-05,0.11220043572984581
2023-09-06,-0.028312528199730867
2023-09-07,0.1359792631623672
2023-09-08,0.03039378598755683
2023-09-11,0.004730020271515563
2023-09-12,-0.04998324115971009
2023-09-13,0.13471525012982746
2023-09-14,-0.2877007700770061
2023-09-15,0.0025791491174105927
2023-09-18,-0.09373409283723177
2023-09-19,0.06482036744262101
2023-09-20,-0.13779134295227752
2023-09-21,0.34723283793347326
2023-09-22,0.097181673652262
2023-09-25,0.2818071803146433
2023-09-26,-0.03253520410756891
2023-09-27,0.06795994993742396
2023-09-28,-0.27276454990295457
2023-10-09,-0.06278980402203117
2023-10-10,-0.34114151464897724
2023-10-11,-0.008135767069960987
2023-10-12,0.01412861582595969
2023-10-13,0.0329680868918894
2023-10-16,-0.005839539607312247
2023-10-17,0.13279727095516491
2023-10-18,0.03464687479198769
2023-10-19,0.04763646034173502
2023-10-20,0.3535873454271539
2023-10-23,-0.10481366459627374
2023-10-24,0.18638262322472882
2023-10-25,-0.026302741831523008
2023-10-26,-0.06985194824326647
2023-10-27,-0.3680841985492814
2023-10-30,0.03216200119118474
2023-10-31,-0.3455486542443051
2023-11-01,0.1570399764844187
2023-11-02,0.032141551824218975
2023-11-03,-0.01588736760527007
2023-11-06,0.10535631830075562
2023-11-07,0.20444857785010997
2023-11-08,-0.21196741854636414
2023-11-09,-0.08295977178785409
2023-11-10,0.14605360216375785
2023-11-13,-0.010561797752810777
2023-11-14,-0.059998824704704884
2023-11-15,0.19534180278281732
2023-11-16,0.1841669993726115
2023-11-17,-0.017853231106244587
2023-11-20,0.03456140350877416
2023-11-21,0.10109890109889985
2023-11-22,-0.23643101229307947
2023-11-23,-0.013302993173465158
2023-11-24,-0.08714488636363539
2023-11-27,-0.11982889322070689
2023-11-28,0.12389162561576417
2023-11-29,0.07140038891863604
2023-11-30,-0.11854261548470982
2023-12-01,0.016298491379309513
2023-12-04,0.088918283362727
2023-12-05,-0.3445325816179371
2023-12-06,0.10557398805574153
2023-12-07,-0.09507515190278125
2023-12-08,0.2205371803893984
2023-12-11,-0.07563935621089059
2023-12-12,0.19172957957433934
2023-12-13,0.01593808609074586
2023-12-14,0.09379582794252188
2023-12-15,-0.25298355562697605
2023-12-18,0.044646790408198425
2023-12-19,-0.08656481404835695
2023-12-20,-0.19043527032244428
2023-12-21,0.18386134831196413
2023-12-22,0.007857403900461482
2023-12-25,-0.07095419197366123
2023-12-26,0.13452380952381063
2023-12-27,0.09292035398230156
2023-12-28,-0.24784482758620552
2023-12-29,0.02994551636557388
2024-01-02,0.2432959641255599
2024-01-03,-0.02977697408077283
2024-01-04,-0.02340850699400674
2024-01-05,0.06785714285714145
2024-01-08,0.0797591249846366
2024-01-09,-0.3335943775100401
2024-01-10,0.014907252607278078
2024-01-11,0.1300358422939078
2024-01-12,0.08537449392712737
2024-01-15,-0.03931215667542324
2024-01-16,0.14486303422645877
2024-01-17,-0.09877393823758146
2024-01-18,-0.07832252485949007
2024-01-19,-0.17211113514849988
2024-01-22,-0.06640550047969147
2024-01-23,0.08444883207281893
2024-01-24,-0.053833123533342596
2024-01-25,-0.17014018442513662
2024-01-26,0.04009685627513634
2024-01-29,0.06651331719128063
2024-01-30,-0.08071748878923728
2024-01-31,0.15343319970930844
2024-02-01,0.18259982512386935
2024-02-02,0.2498614344307733
2024-02-05,0.05350649350649492
2024-02-06,-0.044715447154471115
2024-02-07,-0.14299795648515418
2024-02-08,0.037529550827423645
2024-02-19,-0.2296826884455755
2024-02-20,0.09722709722709781
2024-02-21,0.16487048591416054
2024-02-22,0.12583376279172603
2024-02-23,-0.08600073583517184
2024-02-26,0.0962000962000966
2024-02-27,-0.21311757617490126
2024-02-28,-0.20740336090733982
2024-02-29,-0.0045415224913506885
2024-03-01,0.09076123838719333
2024-03-04,-0.09671274144958364
2024-03-05,-0.04835965448041244
2024-03-06,0.07964375941000776
2024-03-07,-0.08258677034032022
2024-03-08,-0.13420494699646568
2024-03-11,0.17564389697648394
2024-03-12,0.06560720332461112
2024-03-13,0.10062781855159554
2024-03-14,0.0917909839406548
2024-03-15,0.07689189189189179
2024-03-18,-0.16274828585565843
2024-03-19,0.12927100510028014
2024-03-20,-0.18648119973918575
2024-03-21,0.04313811508371794
2024-03-22,-0.04833843277239504
2024-03-25,-0.14549984898822066
2024-03-26,-0.013210198755269367
2024-03-27,0.1224434511716094
2024-03-28,-0.21731897655826005
2024-03-29,0.06390649323189289
2024-04-01,0.3829777810052021
2024-04-02,-0.24037600822369848
2024-04-03,0.06729469609612192
2024-04-08,0.35046139732954573
2024-04-09,-0.01131191609761334
2024-04-10,-0.3292430541935524
2024-04-11,0.19493581872508045
2024-04-12,-0.1286426628894239
2024-04-15,-0.4500061934844541
2024-04-16,-0.038389415564121024
2024-04-17,0.3507993356171487
2024-04-18,-0.06538250256753257
2024-04-19,-0.022582595398129235
2024-04-22,0.22020429856628015
2024-04-23,-0.021669126526231045
2024-04-24,-0.28103913630229477
2024-04-25,0.07953358067691232
2024-04-26,0.030653556969345165
2024-04-29,0.03707098973913594
2024-04-30,0.03087837732251951
2024-05-06,-0.0931174089068814
2024-05-07,-0.07464873544760887
2024-05-08,0.09675526609165229
2024-05-09,-0.03769952525139238
2024-05-10,0.008032128514056137
2024-05-13,0.24124791617051589
2024-05-14,0.12235033775914095
2024-05-15,-0.13613418010096118
2024-05-16,0.09250450450450394
2024-05-17,-0.025735294117647748
2024-05-20,-0.15615128489712218
2024-05-21,-0.15876543209876454
2024-05-22,0.06792573113395449
2024-05-23,-0.13461016949152468
2024-05-24,0.021290849673203185
2024-05-27,-0.014824797843665631
2024-05-28,0.13211538461538402
2024-05-29,-0.0266768438126142
2024-05-30,0.1291789768309756
2024-05-31,-0.029453860640299957
2024-06-03,0.1328320802004994
2024-06-04,-0.18781786395422684
2024-06-05,0.04578601064498766
2024-06-06,-0.2332537388463
2024-06-07,0.09841443411700215
2024-06-11,0.004253056884638277
2024-06-12,0.05883044142415103
2024-06-13,0.062062649697081765
2024-06-14,0.14605530187721893
2024-06-17,-0.004051012753188261
2024-06-18,-0.11390217969165406
2024-06-19,0.10756328215432151
2024-06-20,-0.12928678480119943
2024-06-21,0.018391097519540028
2024-06-24,-0.11928864569083501
2024-06-25,-0.06233130904183654
2024-06-26,0.08444389089550647
2024-06-27,-0.041854636591477506
2024-06-28,-0.06063646788991052
2024-07-01,0.08614593378335159
2024-07-02,0.046747135842883064
2024-07-03,-0.1862714987714999
2024-07-04,0.09170230966638283
2024-07-05,0.14806547619047689
2024-07-08,0.05916408211490002
2024-07-09,0.1732825235524471
2024-07-10,0.033199143905420725
2024-07-11,0.1127334372351158
2024-07-12,-0.19098639455782251
2024-07-15,-0.10890801115016308
2024-07-16,-0.13238851613491992
2024-07-17,0.03202172677319741
2024-07-18,-0.20205479452054498
2024-07-19,0.12514945372088193
2024-07-22,-0.0751394509460798
2024-07-23,0.13644929333002814
2024-07-24,-0.15000683713934146
2024-07-25,0.0833333333333304
2024-07-26,0.07138803768017402
2024-07-29,0.08740869134579882
2024-07-30,-0.04684684684684681
2024-07-31,0.33077891419095806
2024-08-01,0.05695042309769913
2024-08-02,-0.06275240256663994
2024-08-05,0.11755816258871629
2024-08-06,-0.1283098447963213
2024-08-07,-0.2632019078348783
2024-08-08,-0.03764540379267812
2024-08-09,-0.0856558371337364
2024-08-12,-0.16274184670420455
2024-08-13,0.04909087687442319
2024-08-14,0.11071820509693947
2024-08-15,-0.023370059955425418
2024-08-16,0.021258503401361054
2024-08-19,0.08866930171277988
2024-08-20,-0.04793156971251146
2024-08-21,-0.029497344875245524
2024-08-22,-0.03830784070552739
2024-08-23,-0.06808741195593308
2024-08-26,0.07346278317152097
2024-08-27,0.06486983588002306
2024-08-28,-0.1264126543846177
2024-08-29,0.007890122735243844
2024-08-30,0.1599241466498103
2024-09-02,-0.13536754507628357
2024-09-03,0.07404540763673803
2024-09-04,0.14535529972211253
2024-09-05,0.10496734011848763
2024-09-06,-0.01793062904173933
2024-09-09,-0.010491071428571159
2024-09-10,-0.10688665710186454
2024-09-11,0.0644161278052498
2024-09-12,-0.06666778760466889
2024-09-13,-0.09152075607504476
2024-09-18,0.07463562252964512
2024-09-19,0.12387513188108996
2024-09-20,-0.11714023296837958
2024-09-23,-0.014492950476758512
2024-09-24,0.19989331728533477
2024-09-25,-0.06962885008382479
2024-09-26,-0.15311215502055261
2024-09-27,-0.013107682097228086
2024-09-30,0.4719437622174321
2024-10-08,-0.04138857588627805
2024-10-09,0.021152501747728075
2024-10-10,0.09690799396681801
2024-10-11,0.02562786120737503
2024-10-14,-0.672684096120061
2024-10-15,-0.3939403727510583
2024-10-16,0.005523152005713971
2024-10-17,0.09461331000801791
2024-10-18,0.04773000652988302
2024-10-21,0.08523352518657307
2024-10-22,0.2842887699499622
2024-10-23,0.032380073800737735
2024-10-24,-0.35334119140447917
2024-10-25,-0.07952283372365315
2024-10-28,0.17734575599736013
2024-10-29,-0.04180377623718108
2024-10-30,-0.06609589041095737
2024-10-31,0.1623693379790944
2024-11-01,0.014926046176044688
2024-11-04,-0.06152548499819303
2024-11-05,0.088565074364082
2024-11-06,0.07079886070798655
2024-11-07,0.15810439560439507
2024-11-08,0.13442283092938387
2024-11-11,0.026110725796580553
2024-11-12,-0.11960712691261706
2024-11-13,-0.13300875542099622
2024-11-14,-0.174694257355547
2024-11-15,-0.16887179821417167
2024-11-18,0.06890805316002141
2024-11-19,0.17908867460767583
2024-11-20,0.07710491176152114
2024-11-21,0.019921059701183776
2024-11-22,-0.00190988187026786
2024-11-25,-0.1907166907166898
2024-11-26,-0.2865646961554366
2024-11-27,0.13504441077741314
2024-11-28,0.11516135244435746
2024-11-29,0.09629345533243702
2024-12-02,0.05578127645166746
2024-12-03,0.16360917248255227
2024-12-04,-0.15618081552147653
2024-12-05,-0.017871432381965764
2024-12-06,-0.06444398568675962
2024-12-09,0.0870891455598578
2024-12-10,0.13605986773407672
2024-12-11,0.044564722174835855
2024-12-12,-0.10409847871683857
2024-12-13,-0.012132708340682169
2024-12-16,-0.09190900465447731
2024-12-17,-0.22625674462240639
2024-12-18,0.09305033370945143
2024-12-19,0.07972849810204885
2024-12-20,-0.014355386897412455
2024-12-23,0.11470183771017972
2024-12-24,0.10857922982950555
2024-12-25,-0.21990740740740633
2024-12-26,-0.05456927316257687
2024-12-27,0.25477941176470476
2024-12-30,-0.07187258765692901
2024-12-31,-0.07461180124223366
