date,FCT_Cr_Atr_Dfive
2018-12-10,
2018-12-11,
2018-12-12,
2018-12-13,
2018-12-14,
2018-12-17,
2018-12-18,
2018-12-19,
2018-12-20,
2018-12-21,
2018-12-24,0.2272982145492105
2018-12-25,0.2929093684223484
2018-12-26,0.030804543030512603
2018-12-27,0.49446063116509276
2018-12-28,-0.699302577914851
2019-01-02,0.00011055831951369173
2019-01-03,-0.1131625399551549
2019-01-04,-0.052276559865092775
2019-01-07,-0.5687561935502137
2019-01-08,0.2861653593227502
2019-01-09,-0.04244830891414503
2019-01-10,0.02397027993587388
2019-01-11,-0.021521872358834047
2019-01-14,0.30335369783208294
2019-01-15,-0.04599752522368167
2019-01-16,-0.035431059377568276
2019-01-17,-0.021348300911706017
2019-01-18,0.021194471117400315
2019-01-21,0.13221359144332842
2019-01-22,0.20152182012947695
2019-01-23,0.07860957245679771
2019-01-24,0.022643425789009963
2019-01-25,0.08595167408873483
2019-01-28,-0.23108057041707258
2019-01-29,-0.4827010248791059
2019-01-30,0.011592379103856892
2019-01-31,-0.012787292436485308
2019-02-01,-0.1322857741462392
2019-02-11,0.06649974537429963
2019-02-12,0.2215870246823359
2019-02-13,-0.00861441603059912
2019-02-14,0.018567639257294502
2019-02-15,0.14039222148978264
2019-02-18,0.21402305704631283
2019-02-19,0.09733727810650875
2019-02-20,-0.10026619343389516
2019-02-21,0.009876543209876508
2019-02-22,-0.15569652334665168
2019-02-25,-0.42385392385392384
2019-02-26,0.008823529411764779
2019-02-27,0.08163265306122452
2019-02-28,-0.016412490922294902
2019-03-01,0.2796535194955604
2019-03-04,0.472451790633609
2019-03-05,-0.1428943258719419
2019-03-06,0.21256038647343006
2019-03-07,0.13203395568054582
2019-03-08,-0.27549487657196087
2019-03-11,-0.3762002579658913
2019-03-12,0.08850538626062045
2019-03-13,-0.3560482451930769
2019-03-14,-0.3084876986897769
2019-03-15,0.15712570838335066
2019-03-18,-0.006808717418450905
2019-03-19,0.009170852376427455
2019-03-20,0.1367764493236737
2019-03-21,0.09853023126218999
2019-03-22,-0.21593118139383294
2019-03-25,0.2537097403496407
2019-03-26,0.05177917320774454
2019-03-27,0.15472584982918616
2019-03-28,0.5278556858745537
2019-03-29,0.23826061790029668
2019-04-01,-0.10000681245316427
2019-04-02,-0.059525240384615416
2019-04-03,-0.2509270617924363
2019-04-04,-0.4758637588826267
2019-04-08,-0.030925121726542965
2019-04-09,-0.05360886492961982
2019-04-10,-0.053789658224400724
2019-04-11,0.16469751838439478
2019-04-12,-0.14425660546350194
2019-04-15,-0.10376330861941754
2019-04-16,0.14371410992616923
2019-04-17,0.03073126602538351
2019-04-18,-0.049284897025171526
2019-04-19,0.0828969774372073
2019-04-22,-0.055993837111431306
2019-04-23,-0.28315543804674254
2019-04-24,0.09019171792894429
2019-04-25,-0.0397108843537414
2019-04-26,0.47494604161270815
2019-04-29,0.18125064670782617
2019-04-30,0.18647950275857247
2019-05-06,-0.08295065894584025
2019-05-07,-0.06291926529789928
2019-05-08,-0.6493905922108858
2019-05-09,-0.32301657447596005
2019-05-10,0.08024571259032778
2019-05-13,0.32963008936345495
2019-05-14,0.6211860502727613
2019-05-15,0.2966692770149266
2019-05-16,0.31133205646232903
2019-05-17,-0.01079345941714345
2019-05-20,-0.42153970330373886
2019-05-21,-0.8051579800162061
2019-05-22,0.11743576741041399
2019-05-23,-0.1519230769230782
2019-05-24,-0.01487251487251369
2019-05-27,0.08801075922317125
2019-05-28,0.3630950536339619
2019-05-29,-0.25120967741935846
2019-05-30,0.060576923076922924
2019-05-31,-0.2321747468088984
2019-06-03,0.15461927627613395
2019-06-04,-0.12755338554993187
2019-06-05,0.28986832269565027
2019-06-06,0.0595698037853815
2019-06-10,0.1466944107886048
2019-06-11,-0.2886653331002813
2019-06-12,0.00747232840950255
2019-06-13,-0.3877005347593614
2019-06-14,0.03539018588937317
2019-06-17,-0.021879988731339027
2019-06-18,0.22257819443249732
2019-06-19,0.08546874755411991
2019-06-20,0.16595927248211328
2019-06-21,-0.08053691275167726
2019-06-24,0.3172877846790941
2019-06-25,-0.06299308168466955
2019-06-26,-0.07054694640776177
2019-06-27,0.17809435409015545
2019-06-28,0.08641975308642035
2019-07-01,-0.3609307359307402
2019-07-02,0.0713053088765658
2019-07-03,0.06980612849848936
2019-07-04,-0.16448143405889923
2019-07-05,-0.22236016276984738
2019-07-08,0.0914315569487992
2019-07-09,0.09941588160917388
2019-07-10,-0.01915708812260651
2019-07-11,0.037671451355663035
2019-07-12,0.1203694754273727
2019-07-15,-0.05351948366765648
2019-07-16,-0.4319413262675207
2019-07-17,-0.11330049261083489
2019-07-18,-0.07285861713106498
2019-07-19,0.41898002516514116
2019-07-22,0.23544395665383552
2019-07-23,0.386056664122184
2019-07-24,0.05329220846462043
2019-07-25,0.031088552524247418
2019-07-26,-0.5793203428900692
2019-07-29,-0.2593117408906873
2019-07-30,-0.016186821123588768
2019-07-31,0.02922922922923002
2019-08-01,0.0830855303930538
2019-08-02,0.24234481841454925
2019-08-05,0.10201450692188574
2019-08-06,-0.3316256122220116
2019-08-07,-0.08815144304275056
2019-08-08,-0.11427032171116042
2019-08-09,-0.048516901771001986
2019-08-12,-0.16088202828940648
2019-08-13,0.12062699534787708
2019-08-14,0.3043890883126574
2019-08-15,0.11901592205177783
2019-08-16,-0.1086196125083699
2019-08-19,0.11448808534219808
2019-08-20,0.09574280879864581
2019-08-21,-0.28054740957967306
2019-08-22,-0.08697787427625937
2019-08-23,0.04097919093972647
2019-08-26,0.1540842660789894
2019-08-27,0.08443792436418177
2019-08-28,0.0723431498079401
2019-08-29,0.04312301973405145
2019-08-30,0.04059133681475363
2019-09-02,-0.27026845997213805
2019-09-03,-0.13472683245360842
2019-09-04,-0.13708527861691985
2019-09-05,0.10159309560051576
2019-09-06,0.10314951410842205
2019-09-09,0.24561971966205948
2019-09-10,0.10844461607454178
2019-09-11,0.20684598677187133
2019-09-12,-0.22374070855008163
2019-09-16,-0.016568346864476058
2019-09-17,0.19457474453840895
2019-09-18,0.29922769680847117
2019-09-19,-0.04586834367511962
2019-09-20,0.18274117603094314
2019-09-23,-0.10194288985762662
2019-09-24,-0.47467618194743416
2019-09-25,-0.6223020666106048
2019-09-26,0.23742019170836098
2019-09-27,-0.14647274539367944
2019-09-30,-0.02640406088780971
2019-10-08,0.13026738115245512
2019-10-09,0.13853104427520133
2019-10-10,-0.3924526304646973
2019-10-11,0.14590906944903534
2019-10-14,0.1296383610731305
2019-10-15,0.07800087499136313
2019-10-16,0.22482024733966355
2019-10-17,-0.06819637899532559
2019-10-18,-0.2230422236226724
2019-10-21,-0.0626851116087557
2019-10-22,-0.1259247664398337
2019-10-23,-0.1998050682261237
2019-10-24,0.14661575751257627
2019-10-25,0.2208451112560686
2019-10-28,-0.09297812279463825
2019-10-29,0.2811810798889498
2019-10-30,0.16360398860398778
2019-10-31,-0.02883621326244351
2019-11-01,-0.07407407407407617
2019-11-04,-0.012665300800891136
2019-11-05,-0.3682746392761091
2019-11-06,-0.012645312886465997
2019-11-07,0.1917710393320154
2019-11-08,-0.04619565217390785
2019-11-11,0.1180784062139976
2019-11-12,0.2947559969352273
2019-11-13,-0.05960065102616313
2019-11-14,-0.1169884403558678
2019-11-15,0.11533145464304394
2019-11-18,0.0638887243968087
2019-11-19,-0.22336357194309714
2019-11-20,-0.028002904865649797
2019-11-21,0.02666739115997277
2019-11-22,0.04407174470067721
2019-11-25,-0.2216160410224306
2019-11-26,0.17933879621199145
2019-11-27,0.06905855796043103
2019-11-28,-0.03816611802871852
2019-11-29,-0.21847070506454752
2019-12-02,0.22237454303755724
2019-12-03,0.07684963940078603
2019-12-04,-0.1021367989655718
2019-12-05,0.0501949913714618
2019-12-06,0.021669799119683836
2019-12-09,-0.08369248679752354
2019-12-10,-0.2831112539664298
2019-12-11,0.05310373254789898
2019-12-12,-0.04859839758134273
2019-12-13,0.3471592502479195
2019-12-16,-0.07488444090607706
2019-12-17,0.15684912328377318
2019-12-18,0.06397951471506404
2019-12-19,-0.09222663798053483
2019-12-20,-0.447422393715018
2019-12-23,0.11214296950493484
2019-12-24,-0.13343326613713666
2019-12-25,-0.11264740749984042
2019-12-26,0.05029099190283237
2019-12-27,0.2100860104388722
2019-12-30,-0.04031352034546772
2019-12-31,0.16530433695787905
2020-01-02,0.007691362143743052
2020-01-03,0.11965981012658457
2020-01-06,0.22450795493012216
2020-01-07,-0.037050153716321726
2020-01-08,0.3192445834781604
2020-01-09,0.13678463179461336
2020-01-10,0.04447903352162544
2020-01-13,-0.2857228858673689
2020-01-14,0.07597759790229874
2020-01-15,-0.5977701362811698
2020-01-16,-0.08104398739026104
2020-01-17,-0.3017656886666601
2020-01-20,-0.062299645132775194
2020-01-21,-0.042810954879645424
2020-01-22,0.2132080924855501
2020-01-23,-0.011898680091768851
2020-02-03,0.15912113435855368
2020-02-04,0.25874340120663286
2020-02-05,0.024399563932250064
2020-02-06,-0.0714192139737993
2020-02-07,0.06915190610261386
2020-02-10,0.03877356780275517
2020-02-11,-0.3685067914831125
2020-02-12,-0.12412805181863303
2020-02-13,0.03334229089687523
2020-02-14,-0.2745357384476187
2020-02-17,0.08086943793910739
2020-02-18,0.28195482519098014
2020-02-19,-0.031697638404954584
2020-02-20,0.19107692307692162
2020-02-21,0.22588704527375902
2020-02-24,-0.021848501978514456
2020-02-25,-0.05882919662319376
2020-02-26,0.2839831517664163
2020-02-27,-0.21923287671232564
2020-02-28,0.13408981118888225
2020-03-02,-0.10849626733025491
2020-03-03,-0.01340337362656116
2020-03-04,-0.17906329113924074
2020-03-05,0.0712328767123275
2020-03-06,-0.25110014991053464
2020-03-09,-0.17492670008512182
2020-03-10,1.2453882187124243
2020-03-11,0.09813793103448365
2020-03-12,0.16051364365971021
2020-03-13,0.14666802711833338
2020-03-16,0.33866874878001085
2020-03-17,-1.5652789966359446
2020-03-18,-0.0033261866476091417
2020-03-19,-0.24922332107906525
2020-03-20,-0.0011725969718090548
2020-03-23,-0.13617746203196845
2020-03-24,0.6831963625753741
2020-03-25,-0.1072897318082577
2020-03-26,0.1370125494820189
2020-03-27,0.0395177376872113
2020-03-30,0.09512296839529252
2020-03-31,-0.4818136003593462
2020-04-01,-0.004387397194000782
2020-04-02,0.12212319310024386
2020-04-03,-0.1255649984933369
2020-04-07,-0.14757320949010808
2020-04-08,-0.012392195973284836
2020-04-09,0.0068707976694215925
2020-04-10,-0.31530659169769376
2020-04-13,0.2208676599746074
2020-04-14,0.04354185520025432
2020-04-15,0.0982127723245303
2020-04-16,0.05368516359856479
2020-04-17,0.08557018170719972
2020-04-20,-0.364374288042954
2020-04-21,0.3290204763569953
2020-04-22,0.12393629449850364
2020-04-23,0.1356124536504285
2020-04-24,0.11504804974561933
2020-04-27,0.18854544240238505
2020-04-28,-0.5024655721931561
2020-04-29,-0.20930726731831695
2020-04-30,-0.288636363636364
2020-05-06,-0.15272767147321686
2020-05-07,-0.07385553255118504
2020-05-08,0.21491946548699256
2020-05-11,0.12712629835917547
2020-05-12,0.03468729851708695
2020-05-13,0.07123889359380953
2020-05-14,0.11337085984663148
2020-05-15,-0.03041752294397977
2020-05-18,-0.03097245220532939
2020-05-19,0.19014930279010211
2020-05-20,-0.008181062767168047
2020-05-21,-0.05397385954053932
2020-05-22,0.07779799818016334
2020-05-25,-0.027828054298643178
2020-05-26,-0.20672960542241503
2020-05-27,0.010676321775053923
2020-05-28,-0.00013774104683321117
2020-05-29,-0.24334140435835194
2020-06-01,0.12600619195046597
2020-06-02,0.1260664458496447
2020-06-03,0.05810836087037939
2020-06-04,-0.05328151986183076
2020-06-05,0.15798525632810986
2020-06-08,-0.16086827237585627
2020-06-09,0.056852199291221345
2020-06-10,-0.16741738841545145
2020-06-11,0.11978207357168696
2020-06-12,0.2164592221712947
2020-06-15,0.16876300921796084
2020-06-16,-0.0337940026075596
2020-06-17,0.17940324899270596
2020-06-18,-0.08339093402305435
2020-06-19,-0.2742909048288834
2020-06-22,-0.1890864942905887
2020-06-23,-0.17556497175141397
2020-06-24,-0.10185458872391823
2020-06-29,0.10889951273328999
2020-06-30,-0.14798596367067535
2020-07-01,0.07775459310906244
2020-07-02,0.3215829846583015
2020-07-03,0.016009089031189465
2020-07-06,-0.09748268715563774
2020-07-07,0.5404999399110667
2020-07-08,0.027346938775512496
2020-07-09,-0.27678241485773236
2020-07-10,0.26929100387050847
2020-07-13,-0.041962342700351894
2020-07-14,-0.3919875936934579
2020-07-15,0.05908975979772188
2020-07-16,0.041310541310543514
2020-07-17,-0.31263685284839493
2020-07-20,0.14102564102564147
2020-07-21,-0.047814742335292135
2020-07-22,-0.1227577134656759
2020-07-23,0.274980015987208
2020-07-24,0.1678986638903332
2020-07-27,-0.13670568561872734
2020-07-28,0.18841178089733007
2020-07-29,0.07432432432432393
2020-07-30,-0.2727577937649869
2020-07-31,-0.1052640325730175
2020-08-03,0.10288605697151096
2020-08-04,-0.0004936384337318467
2020-08-05,0.040610197826691015
2020-08-06,0.09000814995924993
2020-08-07,-0.06518735051820643
2020-08-10,0.016174902239605035
2020-08-11,-0.14186322414590735
2020-08-12,-0.0934937900803624
2020-08-13,-0.01481689312864808
2020-08-14,0.010223561784602611
2020-08-17,-0.05084550214894936
2020-08-18,0.03231947356657552
2020-08-19,0.051102074322653984
2020-08-20,-0.09883054611242503
2020-08-21,0.11137934629917987
2020-08-24,-0.1824741463016171
2020-08-25,0.08353037002049932
2020-08-26,-0.10762240654140252
2020-08-27,-0.059391013748479174
2020-08-28,-0.12880251086431843
2020-08-31,0.4735582061476602
2020-09-01,-0.027987254381309314
2020-09-02,0.12153143659993018
2020-09-03,0.24350649350649298
2020-09-04,0.12113752122241414
2020-09-07,-0.38415640664515915
2020-09-08,-0.045691806284057765
2020-09-09,0.1651716952070318
2020-09-10,-0.06856718948707186
2020-09-11,-0.029032258064519135
2020-09-14,0.1932109270040269
2020-09-15,-0.010415195593841523
2020-09-16,-0.25532884988031446
2020-09-17,0.0016542174016870442
2020-09-18,2.9465641331012693e-15
2020-09-21,-0.20801894238358146
2020-09-22,0.2897033710707755
2020-09-23,0.044860109376240326
2020-09-24,-0.10789905798980418
2020-09-25,0.005376344086019591
2020-09-28,0.09409992022926748
2020-09-29,-0.40438023616333707
2020-09-30,0.029210159783406398
2020-10-09,0.055050876402364536
2020-10-12,0.1703425057542346
2020-10-13,-0.021826319460591187
2020-10-14,0.27881900642758395
2020-10-15,0.03522197927559535
2020-10-16,-0.001667417755746952
2020-10-19,-0.21436619283542505
2020-10-20,0.009585973344985479
2020-10-21,-0.23287945248539027
2020-10-22,-0.1424772688282703
2020-10-23,0.10982711555960133
2020-10-26,-0.03402707560948224
2020-10-27,0.052070698319183706
2020-10-28,0.04027745485546108
2020-10-29,0.10421580740574356
2020-10-30,-0.04376146599880739
2020-11-02,0.10344364937388288
2020-11-03,-0.0344827586206907
2020-11-04,0.1204432383536863
2020-11-05,0.2605307965649958
2020-11-06,-0.09438083213606646
2020-11-09,-0.0026661862727443003
2020-11-10,0.05011389521639902
2020-11-11,-0.044238676465828936
2020-11-12,-0.3489420062695916
2020-11-13,0.13884502831638684
2020-11-16,-0.032385699742740325
2020-11-17,-0.05871604575403063
2020-11-18,0.12798264642082616
2020-11-19,-0.007969605063622848
2020-11-20,-0.19498362725371873
2020-11-23,0.025261676225275496
2020-11-24,0.06339667108557653
2020-11-25,-0.2860053901268657
2020-11-26,0.16384574862449566
2020-11-27,0.15099602786482605
2020-11-30,0.015138360510818957
2020-12-01,-0.18115617632136663
2020-12-02,0.23879694702637405
2020-12-03,-0.1427869312862763
2020-12-04,0.08074839404186696
2020-12-07,-0.0220147057370806
2020-12-08,0.13159687569666964
2020-12-09,-0.13235938624732108
2020-12-10,0.2611809666342218
2020-12-11,-0.2342431713133739
2020-12-14,0.08488722323713786
2020-12-15,0.038882427135576915
2020-12-16,0.029232520313562684
2020-12-17,-0.2853968829986327
2020-12-18,0.1209621110827106
2020-12-21,-0.18409628196862218
2020-12-22,0.20112548190523333
2020-12-23,0.06677885650063496
2020-12-24,0.03971146259909034
2020-12-25,0.04170958122126632
2020-12-28,0.1896079906957662
2020-12-29,-0.32530135312708486
2020-12-30,-0.06992112785025192
2020-12-31,0.21298921256970155
2021-01-04,-0.055870164762397694
2021-01-05,-0.18333978199090073
2021-01-06,0.004983149087951277
2021-01-07,0.05632500410981561
2021-01-08,-0.23948962592760936
2021-01-11,0.001239438751852783
2021-01-12,0.11768952562520812
2021-01-13,0.05556287995312516
2021-01-14,0.07045669918804248
2021-01-15,0.012446937111692133
2021-01-18,-0.09187495222807769
2021-01-19,-0.13709696538643673
2021-01-20,0.06815032741766901
2021-01-21,-0.27105966764815537
2021-01-22,0.26913910538125946
2021-01-25,0.14780285844591678
2021-01-26,0.0426900584795317
2021-01-27,-0.008196955825129852
2021-01-28,0.17739958174082365
2021-01-29,-0.17564143173899732
2021-02-01,-0.11705999912290954
2021-02-02,0.22431677638140912
2021-02-03,-0.011255308575044823
2021-02-04,-0.009656663678075165
2021-02-05,-0.09596895693006971
2021-02-08,0.1645530139891623
2021-02-09,-0.24933676039419927
2021-02-10,-0.1277774171913179
2021-02-18,0.19170294361525644
2021-02-19,0.12063481109431484
2021-02-22,0.3165719379379735
2021-02-23,0.3390460139149077
2021-02-24,0.2370530877573125
2021-02-25,-0.056315690690690146
2021-02-26,0.04760126743998886
2021-03-01,-0.45269951966797284
2021-03-02,-0.25071424165958117
2021-03-03,-0.13241425973696488
2021-03-04,-0.27101240584847186
2021-03-05,-0.09965738742063743
2021-03-08,-0.06981394457350659
2021-03-09,0.04795407371970388
2021-03-10,-0.02913434996467953
2021-03-11,0.20339602173985302
2021-03-12,-0.0743088889945035
2021-03-15,0.03849717568411552
2021-03-16,-0.31438082663789935
2021-03-17,-0.029544507707262396
2021-03-18,-0.2461167935134487
2021-03-19,0.1888917817629731
2021-03-22,0.07399923193679836
2021-03-23,0.2839730504842399
2021-03-24,0.07516376778856951
2021-03-25,0.2410246611307606
2021-03-26,-0.263767509009356
2021-03-29,-0.04097969299937086
2021-03-30,-0.04536614206385191
2021-03-31,-0.057200337936175835
2021-04-01,-0.15390534385665927
2021-04-02,0.18562867827607324
2021-04-06,-0.06119827952637409
2021-04-07,0.02909975638913983
2021-04-08,0.024220387900945363
2021-04-09,0.1576388899024071
2021-04-12,-0.0746228201182769
2021-04-13,0.06047276281880382
2021-04-14,-0.03309629495425278
2021-04-15,-0.026532207989330703
2021-04-16,-0.14768989441930613
2021-04-19,0.08796348280323014
2021-04-20,0.0910423886963484
2021-04-21,0.07987410386430979
2021-04-22,0.004674535996869483
2021-04-23,0.03431138088012157
2021-04-26,-0.10874873313246342
2021-04-27,-0.0964698340139102
2021-04-28,-0.11320525783619459
2021-04-29,-0.07470563692421217
2021-04-30,0.1519927513512818
2021-05-06,0.015529132617376151
2021-05-07,0.08883366369831502
2021-05-10,0.16604692129073242
2021-05-11,0.2797685451937615
2021-05-12,0.18086413972327312
2021-05-13,0.2861856024137009
2021-05-14,-0.02134425364915534
2021-05-17,-0.16151154192159478
2021-05-18,-0.19345954529007983
2021-05-19,-0.47419180136644024
2021-05-20,-0.39915052264119244
2021-05-21,-0.15478233733811897
2021-05-24,0.10437107649383826
2021-05-25,-0.013880062357821469
2021-05-26,0.2763608428445986
2021-05-27,0.06339536257569159
2021-05-28,0.19306184012066424
2021-05-31,-0.0781631178545639
2021-06-01,0.04034582132564991
2021-06-02,-0.12978659710045679
2021-06-03,0.10021467603434843
2021-06-04,-0.21742661561666005
2021-06-07,0.28182038013251565
2021-06-08,-0.02224720524432321
2021-06-09,-0.09263898448880267
2021-06-10,-0.07015783841626637
2021-06-11,0.17631715164371134
2021-06-15,-0.5039286326985757
2021-06-16,0.003238483370930304
2021-06-17,0.17239386099759016
2021-06-18,0.18652305403041147
2021-06-21,0.0211440134597521
2021-06-22,0.3357127406446029
2021-06-23,0.08824503311258537
2021-06-24,-0.07971489516674594
2021-06-25,-0.12714851444092448
2021-06-28,-0.07486680651209177
2021-06-29,-0.19586741282823883
2021-06-30,-0.17870370370370164
2021-07-01,0.05580434364789304
2021-07-02,-0.011396262652985278
2021-07-05,0.06684015614052366
2021-07-06,0.15221797770327916
2021-07-07,0.3263452131376625
2021-07-08,-0.017051831445768537
2021-07-09,-0.09317189497338652
2021-07-12,-0.04569257660614044
2021-07-13,-0.005310540845604679
2021-07-14,-0.29751671742065
2021-07-15,0.14234168220978652
2021-07-16,0.31380159122403956
2021-07-19,0.013935692538417466
2021-07-20,0.09182350564531722
2021-07-21,0.03391957658737193
2021-07-22,-0.10829770347423108
2021-07-23,-0.2845857917828347
2021-07-26,-0.07170564690504391
2021-07-27,-0.2195298139468655
2021-07-28,0.030810703863086104
2021-07-29,-0.11172188846568573
2021-07-30,0.17368565323864565
2021-08-02,0.20676448824155697
2021-08-03,0.029256362029203425
2021-08-04,0.16698138866223614
2021-08-05,0.027467260687885568
2021-08-06,-0.14222344904266224
2021-08-09,-0.15328545714338826
2021-08-10,0.11308497945114779
2021-08-11,-0.29829987576015204
2021-08-12,0.048667439165700925
2021-08-13,0.006107435499945572
2021-08-16,-0.10574778587901774
2021-08-17,-0.17243191172607275
2021-08-18,0.07265184113644545
2021-08-19,0.1404740986593771
2021-08-20,0.06833223643981373
2021-08-23,0.10197002207545341
2021-08-24,0.09443717844392868
2021-08-25,0.07795234132219911
2021-08-26,-0.20931467836952103
2021-08-27,0.19023470731681896
2021-08-30,0.019138583265794182
2021-08-31,0.009565366025137936
2021-09-01,0.024567097344041174
2021-09-02,0.1216356107660437
2021-09-03,-0.41359342538709637
2021-09-06,-0.13044705882353055
2021-09-07,0.09288112164297248
2021-09-08,-0.002760089539913097
2021-09-09,-0.10908020929229661
2021-09-10,0.4123518476163647
2021-09-13,0.27640319630306964
2021-09-14,0.007662429378527763
2021-09-15,-0.034854025628625204
2021-09-16,0.06412831549129912
2021-09-17,-0.2056326115937313
2021-09-22,-0.22430883670833104
2021-09-23,-0.04348028815890663
2021-09-24,0.10430255118890411
2021-09-27,0.39671868747498923
2021-09-28,0.09433968539026993
2021-09-29,0.23441404702120028
2021-09-30,0.13235944261072843
2021-10-08,0.031167786896922497
2021-10-11,-0.34418258321292516
2021-10-12,-0.11894821518350975
2021-10-13,-0.028325974943462146
2021-10-14,-0.22014629184935158
2021-10-15,-0.1087069452286841
2021-10-18,-0.07799849377309054
2021-10-19,0.07152241263959669
2021-10-20,-0.1997731524678369
2021-10-21,0.1315059629727643
2021-10-22,-0.0037824675324679632
2021-10-25,-0.06800400541014384
2021-10-26,-0.08735188589231224
2021-10-27,0.07632411055414154
2021-10-28,-0.019997850886567387
2021-10-29,-0.06515188578544709
2021-11-01,0.06821681728332595
2021-11-02,0.0043438274443483894
2021-11-03,-0.15545683616966283
2021-11-04,-0.28051764072858126
2021-11-05,-0.005101240717678812
2021-11-08,-0.053565880411947805
2021-11-09,-0.04861519452776768
2021-11-10,0.16894901763110595
2021-11-11,0.11609225056141158
2021-11-12,0.003983437821372053
2021-11-15,0.10181344229021719
2021-11-16,0.033019191357413595
2021-11-17,-0.1129648760330595
2021-11-18,0.12730242985642232
2021-11-19,0.014062483236596715
2021-11-22,-0.04434060228452752
2021-11-23,0.023663692322375765
2021-11-24,0.028738294966836594
2021-11-25,-0.0426030061147262
2021-11-26,-0.01059589335477696
2021-11-29,-0.03704203545628726
2021-11-30,0.0772490160763113
2021-12-01,0.1374804039988693
2021-12-02,0.012529284273561328
2021-12-03,-0.009427722704143243
2021-12-06,0.023640931450165735
2021-12-07,-0.08955164765526064
2021-12-08,-0.1830879184558916
2021-12-09,0.02287110177617532
2021-12-10,0.08014669948574574
2021-12-13,0.07420676087942124
2021-12-14,0.03375941028858245
2021-12-15,0.1221073847682949
2021-12-16,-0.09008470409158789
2021-12-17,-0.13582394176788645
2021-12-20,0.05384410722515698
2021-12-21,-0.09605592670618766
2021-12-22,-0.06433328312322761
2021-12-23,0.0014173646865767997
2021-12-24,0.18346025413318628
2021-12-27,-0.2863354684944431
2021-12-28,0.17498591035700126
2021-12-29,0.030973600570800383
2021-12-30,0.13349290804393266
2021-12-31,-0.2025338424158299
2022-01-04,0.3070899470899504
2022-01-05,-0.11369745845552597
2022-01-06,0.11927981073524357
2022-01-07,0.019956312310969754
2022-01-10,0.21537053359549957
2022-01-11,-0.20501468147581026
2022-01-12,0.0030182984342604774
2022-01-13,-0.14341048404142936
2022-01-14,-0.0682823515472275
2022-01-17,-0.14881325010284713
2022-01-18,0.14193344898281113
2022-01-19,0.1280051981806341
2022-01-20,0.047279003655070415
2022-01-21,0.007804639508742446
2022-01-24,0.18448907078874677
2022-01-25,-0.03834160170092015
2022-01-26,-0.033830367163698985
2022-01-27,0.013967089364459265
2022-01-28,-0.0422439436467828
2022-02-07,-0.15500750940534447
2022-02-08,-0.043183403306758406
2022-02-09,-0.08700242846584316
2022-02-10,-0.10855528227059562
2022-02-11,0.14664472379079002
2022-02-14,0.05019573782460475
2022-02-15,0.11044050821683565
2022-02-16,-0.08134525280841498
2022-02-17,0.1765267515417529
2022-02-18,-0.29480340850381187
2022-02-21,-0.1029235655524328
2022-02-22,-0.29325627400023135
2022-02-23,0.13292650522808191
2022-02-24,-0.08446096422896264
2022-02-25,0.36911009040357223
2022-02-28,0.14839623698846915
2022-03-01,0.3202499662815257
2022-03-02,0.11668494152046911
2022-03-03,0.1266166500326946
2022-03-04,-0.20816111832108006
2022-03-07,0.18326915452814097
2022-03-08,-0.05977972417914997
2022-03-09,-0.012545643294895603
2022-03-10,-0.06781087283764727
2022-03-11,-0.0011677782561725133
2022-03-14,-0.33182483578868194
2022-03-15,-0.1369915339735325
2022-03-16,-0.2880201471686265
2022-03-17,-0.28109355682853443
2022-03-18,-0.074628444248243
2022-03-21,-0.08651531436401226
2022-03-22,0.07670519991713384
2022-03-23,0.01897822010778369
2022-03-24,0.240076712532817
2022-03-25,0.1210085347459805
2022-03-28,0.30170550084074077
2022-03-29,-0.012615384615385972
2022-03-30,0.17324774777928031
2022-03-31,-0.0065233289454429445
2022-04-01,-0.1355515681073479
2022-04-06,-0.2297545104998539
2022-04-07,0.01794871794871854
2022-04-08,-0.06958106221356608
2022-04-11,0.05505940992356328
2022-04-12,0.1412043978010977
2022-04-13,0.09377956168617188
2022-04-14,-0.06824512534818865
2022-04-15,0.033216822691578426
2022-04-18,-0.1839057442894689
2022-04-19,-0.13667781493868503
2022-04-20,-0.06982748085383901
2022-04-21,0.12192305775375334
2022-04-22,-0.014702315480722936
2022-04-25,0.44209184890842507
2022-04-26,0.180173210653757
2022-04-27,0.07907612225419788
2022-04-28,0.17156262847625944
2022-04-29,0.059927781410165054
2022-05-05,-0.5861261683292869
2022-05-06,-0.12587220730927373
2022-05-09,0.010122783449162502
2022-05-10,-0.36166620890365087
2022-05-11,0.0212102554910842
2022-05-12,0.28552067462707786
2022-05-13,0.1976595135908443
2022-05-16,0.01572539160176892
2022-05-17,0.03953569586871673
2022-05-18,-0.1937583043009747
2022-05-19,-0.015841850457234862
2022-05-20,-0.3104690374003681
2022-05-23,-0.034801405491060325
2022-05-24,0.26912193809335605
2022-05-25,0.1243285641947233
2022-05-26,-0.05421785421785555
2022-05-27,0.09429238985313629
2022-05-30,0.05796304190043994
2022-05-31,-0.25830397342068534
2022-06-01,0.011773222977551425
2022-06-02,0.005527561459766614
2022-06-06,0.1261954556347083
2022-06-07,-0.12449642694932217
2022-06-08,0.31454298923790835
2022-06-09,-0.043178121386714494
2022-06-10,0.08820078226857662
2022-06-13,-0.03671328671328633
2022-06-14,0.07988624840174474
2022-06-15,-0.4188195272266385
2022-06-16,0.13389752626742166
2022-06-17,-0.051677270098320655
2022-06-20,0.21466127295723736
2022-06-21,-0.03322772533298691
2022-06-22,0.32531785062254426
2022-06-23,-0.13342580991587874
2022-06-24,0.09677825849539996
2022-06-27,-0.47353714885439024
2022-06-28,0.004231888765350109
2022-06-29,-0.26963599182003994
2022-06-30,0.05400408112272451
2022-07-01,-0.08318545295213042
2022-07-04,0.21947297110963337
2022-07-05,0.07437955609697307
2022-07-06,0.29968782322519705
2022-07-07,0.12491745542593242
2022-07-08,-0.18433857175393908
2022-07-11,0.08661233252792133
2022-07-12,0.027115648998070313
2022-07-13,-0.28285899439636947
2022-07-14,-0.30702831980249756
2022-07-15,0.22896430525902
2022-07-18,0.06734542755519378
2022-07-19,-0.14862656971427257
2022-07-20,0.13320275461120412
2022-07-21,0.1895429987884186
2022-07-22,-0.09732181193645521
2022-07-25,-0.3497733756852184
2022-07-26,0.09179088388699952
2022-07-27,-0.01072095392506692
2022-07-28,-0.021299622855613425
2022-07-29,-0.0020799604245349892
2022-08-01,0.2810775741726075
2022-08-02,-0.10441695209856214
2022-08-03,-0.11947649873346905
2022-08-04,-0.005902358444727939
2022-08-05,0.11610344751721638
2022-08-08,-0.10578249141024895
2022-08-09,0.04992843774083271
2022-08-10,0.2063818316598175
2022-08-11,-0.08244696309212655
2022-08-12,-0.15637384828979284
2022-08-15,-0.10976645502278204
2022-08-16,0.14913777618106894
2022-08-17,-0.1817453742060209
2022-08-18,0.1453003337041171
2022-08-19,0.018452221925376024
2022-08-22,0.21907066175203965
2022-08-23,-0.20325838009096137
2022-08-24,0.10339685497347514
2022-08-25,-0.13902394494215087
2022-08-26,0.16759585537849395
2022-08-29,-0.1615815764247533
2022-08-30,0.11347168869286094
2022-08-31,-0.00035281080334235645
2022-09-01,0.1716203581520359
2022-09-02,0.018484931518767775
2022-09-05,0.3775770692860546
2022-09-06,-0.06013042422560615
2022-09-07,-0.016913006389166735
2022-09-08,-0.055074714875379314
2022-09-09,-0.17086986925046688
2022-09-13,-0.49107699175121755
2022-09-14,0.014661046157109583
2022-09-15,0.06399654749972089
2022-09-16,-0.12295231501324289
2022-09-19,0.0031111335447184182
2022-09-20,0.13771924144080178
2022-09-21,0.05158405158405174
2022-09-22,-0.07112553670005911
2022-09-23,0.03549242539701797
2022-09-26,0.177004244322959
2022-09-27,0.028710897826531905
2022-09-28,-0.05432198848568895
2022-09-29,-0.07410542568464634
2022-09-30,0.04726714585205138
2022-10-10,-0.28685477243376595
2022-10-11,0.3033753229974122
2022-10-12,0.08320931737301776
2022-10-13,0.1041028743388096
2022-10-14,-0.023796207521037727
2022-10-17,0.0799042168367764
2022-10-18,-0.5350550344768474
2022-10-19,-0.14284428442844516
2022-10-20,-0.016115246760404645
2022-10-21,-0.031807222412150435
2022-10-24,0.07710921821777753
2022-10-25,0.3290189749001581
2022-10-26,0.10538593126328571
2022-10-27,0.010066929997802225
2022-10-28,0.10903492007752491
2022-10-31,0.06548709662152585
2022-11-01,-0.048589263420724796
2022-11-02,0.14085018909495836
2022-11-03,-0.022048782338213134
2022-11-04,-0.04603475408906375
2022-11-07,-0.01636486234706489
2022-11-08,-0.04729154462019021
2022-11-09,-0.3163087751057302
2022-11-10,0.03889198896547289
2022-11-11,0.18979778172446196
2022-11-14,-0.14152492743290715
2022-11-15,-0.0313585073008882
2022-11-16,0.07418176131031742
2022-11-17,0.16270938363961548
2022-11-18,-0.40885606411869974
2022-11-21,0.1315231572080861
2022-11-22,0.0736861269571531
2022-11-23,0.09208395223349634
2022-11-24,-0.2841657298859782
2022-11-25,0.20967741935483758
2022-11-28,0.07422003284072581
2022-11-29,0.09937193953587567
2022-11-30,0.015981894962786857
2022-12-01,-0.04643983476213909
2022-12-02,0.030864197530865944
2022-12-05,-0.2336155275655601
2022-12-06,-0.2604254927242595
2022-12-07,0.1267188309073112
2022-12-08,0.20827529897699582
2022-12-09,0.057743397405844964
2022-12-12,0.0420090052453234
2022-12-13,0.18948970037453283
2022-12-14,-0.33463616208507785
2022-12-15,-0.009736462781148196
2022-12-16,-0.09997123130034681
2022-12-19,0.2517673272726142
2022-12-20,-0.030533675822801358
2022-12-21,0.2817028810735641
2022-12-22,-0.11049351395545703
2022-12-23,0.0733921373918913
2022-12-26,-0.21185063168080623
2022-12-27,-0.05840863186950754
2022-12-28,-0.183401424217554
2022-12-29,0.0483220481695334
2022-12-30,-0.12005558033192981
2023-01-03,0.017530417726562973
2023-01-04,0.12834372834372926
2023-01-05,0.07856088724382401
2023-01-06,-0.05913820035957428
2023-01-09,-0.11067210768819383
2023-01-10,-0.014574536983578718
2023-01-11,-0.13505678078542582
2023-01-12,0.0007264765383405126
2023-01-13,0.11633186018481577
2023-01-16,0.2385246234008454
2023-01-17,-0.05235921372840593
2023-01-18,0.00976400992303457
2023-01-19,0.04736147757256294
2023-01-20,-0.03270676691729585
2023-01-30,0.00370397535573036
2023-01-31,0.15231343998467362
2023-02-01,-0.0024508483705900225
2023-02-02,0.009866962305979658
2023-02-03,0.004640261742220882
2023-02-06,-0.11018928956511351
2023-02-07,-0.2125942444515268
2023-02-08,0.03305452454388613
2023-02-09,-0.21333230884063942
2023-02-10,-0.09444811470796902
2023-02-13,-0.03544043567921599
2023-02-14,0.22737272155877258
2023-02-15,0.09122193904802864
2023-02-16,0.17638798263780986
2023-02-17,0.04764361885104816
2023-02-20,0.11495745633676396
2023-02-21,-0.060440577563869
2023-02-22,-0.1638509316770248
2023-02-23,-0.01422698392924112
2023-02-24,-0.023495605138605342
2023-02-27,0.0021879021879055785
2023-02-28,-0.08774208786017815
2023-03-01,0.08000000000000519
2023-03-02,0.01576917963036921
2023-03-03,0.0848944930519821
2023-03-06,-0.019257079429000807
2023-03-07,0.04079175496050945
2023-03-08,0.05982905982905914
2023-03-09,-0.05941106836342345
2023-03-10,-0.013935891572777356
2023-03-13,-0.15586926642905413
2023-03-14,0.06939730938582048
2023-03-15,-0.006416596921049275
2023-03-16,0.30818567317886114
2023-03-17,-0.052191436389182874
2023-03-20,0.21398152757037772
2023-03-21,-0.0017270819484084612
2023-03-22,-0.08135657468445902
2023-03-23,-0.4662579171125343
2023-03-24,-0.006198067959199312
2023-03-27,0.0184619779670413
2023-03-28,-0.10287905957361887
2023-03-29,-0.014877046913729423
2023-03-30,0.31933426996650066
2023-03-31,0.0772633231076579
2023-04-03,-0.1537014904386955
2023-04-04,0.017114845938375985
2023-04-06,0.13084071859237767
2023-04-07,-0.21395623891188867
2023-04-10,-0.03441370102665854
2023-04-11,-0.06058285540493826
2023-04-12,0.07600322320708752
2023-04-13,-0.21466863641935033
2023-04-14,0.13597881801826306
2023-04-17,-0.09478687629280065
2023-04-18,0.06748498102088474
2023-04-19,-0.02532379083250872
2023-04-20,0.3371267856803735
2023-04-21,-0.05111293917012321
2023-04-24,0.32330930169191985
2023-04-25,0.06553420651184143
2023-04-26,-0.004767910741132858
2023-04-27,-0.3026908239173236
2023-04-28,-0.05591617433092893
2023-05-04,-0.2864012454957515
2023-05-05,0.05930496363674824
2023-05-08,0.01499135114357012
2023-05-09,0.037667660208644115
2023-05-10,0.06830612953637549
2023-05-11,-0.12110311750599484
2023-05-12,0.0938837042354638
2023-05-15,-0.040287444123804333
2023-05-16,0.0916741674167442
2023-05-17,0.023797503212778653
2023-05-18,0.26597382602001646
2023-05-19,-0.31714285714285806
2023-05-22,0.1567375125232585
2023-05-23,-0.02207494943042709
2023-05-24,0.011078637595566425
2023-05-25,-0.15813068876511427
2023-05-26,0.12777093596059133
2023-05-29,-0.28850238125885036
2023-05-30,-0.07675042153854894
2023-05-31,-0.04997097747852319
2023-06-01,0.07259763409496099
2023-06-02,0.03954272863568206
2023-06-05,0.08778854134622649
2023-06-06,0.08429552815418456
2023-06-07,-0.10225535457504002
2023-06-08,-0.0044861789866022395
2023-06-09,0.009285809549214121
2023-06-12,0.10255098426591194
2023-06-13,-0.04539089284851991
2023-06-14,0.10481935473478904
2023-06-15,-0.08823529411764576
2023-06-16,-0.0877105852565982
2023-06-19,-0.06503295959213459
2023-06-20,0.002173466090991564
2023-06-21,0.006424223824869435
2023-06-26,0.1733529628266473
2023-06-27,0.07313758304173656
2023-06-28,-0.04234078811723253
2023-06-29,0.15149103992250962
2023-06-30,-0.03911708053516469
2023-07-03,-0.21748251748251946
2023-07-04,-0.08583599574015056
2023-07-05,0.03951493152945457
2023-07-06,-0.19650954885854555
2023-07-07,0.17610417637393458
2023-07-10,0.06148272017837367
2023-07-11,0.10527670527670793
2023-07-12,0.09323028761494573
2023-07-13,0.030793860062156675
2023-07-14,-0.028582510367872502
2023-07-17,0.30185394315829084
2023-07-18,-0.10929066688229333
2023-07-19,-0.11198492067647453
2023-07-20,0.03484320557490888
2023-07-21,-0.244656720232579
2023-07-24,-0.3797155225726667
2023-07-25,0.2366885334105944
2023-07-26,0.1671043208402966
2023-07-27,-0.042296072507551484
2023-07-28,0.1075067697719187
2023-07-31,0.16534574995046858
2023-08-01,-0.2732634256430724
2023-08-02,-0.16797029406480335
2023-08-03,0.33118496139644177
2023-08-04,-0.0034990391239690284
2023-08-07,-0.0643515060990811
2023-08-08,0.06725552050473059
2023-08-09,0.023500498323820302
2023-08-10,-0.5085610200364304
2023-08-11,0.024533951511638993
2023-08-14,0.18614086335605265
2023-08-15,0.10617647058823744
2023-08-16,-0.022391688770997727
2023-08-17,0.1655205065988051
2023-08-18,0.07060334714117429
2023-08-21,-0.20908093581365236
2023-08-22,-0.1093672396974186
2023-08-23,0.27348948048002225
2023-08-24,0.072913529310644
2023-08-25,-0.07878556739769983
2023-08-28,0.17425427549594225
2023-08-29,0.015021755024674132
2023-08-30,-0.24895174934559178
2023-08-31,0.03449253310791402
2023-09-01,0.19777715935576223
2023-09-04,-0.22185740391329933
2023-09-05,0.06806263110578392
2023-09-06,-0.07433930093776561
2023-09-07,0.12471166382509324
2023-09-08,-0.338870476652389
2023-09-11,0.205322019789756
2023-09-12,-0.021805761724119178
2023-09-13,0.21899463824373488
2023-09-14,-0.3111489459387077
2023-09-15,0.17691471822542118
2023-09-18,-0.1039508682395193
2023-09-19,-0.010395547604849991
2023-09-20,-0.2236021234548778
2023-09-21,0.1416574205149806
2023-09-22,-0.017835259103640914
2023-09-25,0.013204618426926641
2023-09-26,-0.007692307692307145
2023-09-27,0.11585713983632956
2023-09-28,-0.0193737588324955
2023-10-09,-0.06345348056578105
2023-10-10,-0.08159442245353236
2023-10-11,-0.03797468354430194
2023-10-12,-0.08898891966758662
2023-10-13,-0.09902989545287535
2023-10-16,0.02199466596424203
2023-10-17,-0.006621236286310672
2023-10-18,0.037974683544299614
2023-10-19,0.1264224751066844
2023-10-20,0.1911256592107638
2023-10-23,0.18210163299371762
2023-10-24,0.024023938444004557
2023-10-25,-0.01831501831501452
2023-10-26,-0.05778539733763641
2023-10-27,-0.006290214155382251
2023-10-30,-0.2786492404732076
2023-10-31,0.25942390250657715
2023-11-01,-0.011785316133144107
2023-11-02,0.027869274318064678
2023-11-03,-0.051337343472173294
2023-11-06,0.15871997065835378
2023-11-07,-0.3097775718257676
2023-11-08,0.12362551430427697
2023-11-09,-0.050453720508166405
2023-11-10,-0.11478523978524226
2023-11-13,0.11494815104676286
2023-11-14,0.05685709513071492
2023-11-15,-0.041978788103539305
2023-11-16,-0.03250773993807954
2023-11-17,0.10163288288288354
2023-11-20,-0.25810242849295617
2023-11-21,0.4490044233767204
2023-11-22,-0.13789736668293973
2023-11-23,0.08016499282639741
2023-11-24,-0.10892412935323366
2023-11-27,0.100282196581782
2023-11-28,-0.7133854760313907
2023-11-29,0.1060554084279028
2023-11-30,0.060784140450100804
2023-12-01,0.3217217484008532
2023-12-04,0.08954899212065381
2023-12-05,0.3505119219404926
2023-12-06,0.04608504018667049
2023-12-07,-0.11298980139559939
2023-12-08,-0.2678002729754331
2023-12-11,-0.07965936739659427
2023-12-12,-0.010523672556270274
2023-12-13,-0.07234685073339144
2023-12-14,0.004461557266838449
2023-12-15,0.02166264645941603
2023-12-18,0.04674555204012661
2023-12-19,-0.0981113511917543
2023-12-20,0.37503700681673635
2023-12-21,0.12208158579982797
2023-12-22,0.3415279919645232
2023-12-25,0.021649509688270452
2023-12-26,0.08458819571448566
2023-12-27,-0.531308577135977
2023-12-28,-0.10353749170476034
2023-12-29,-0.5205848491825951
2024-01-02,0.035045798486659216
2024-01-03,0.08958073390358015
2024-01-04,0.1895779185618398
2024-01-05,0.2603635561890018
2024-01-08,0.29798019801980347
2024-01-09,-0.13619025194254986
2024-01-10,0.07978379567866536
2024-01-11,-0.0422128887191925
2024-01-12,-0.44229558593627416
2024-01-15,-0.15577382875605844
2024-01-16,-0.05508565981889786
2024-01-17,-0.4601662216018887
2024-01-18,0.1210048146234011
2024-01-19,0.316282222694274
2024-01-22,0.019519591467921323
2024-01-23,0.13865182858833494
2024-01-24,0.3167757179936699
2024-01-25,-0.2504388562812998
2024-01-26,-0.09546539379474933
2024-01-29,0.13053201506591444
2024-01-30,-0.10784437789119936
2024-01-31,0.04342427598241561
2024-02-01,0.2436374549819936
2024-02-02,-0.05779489543071324
2024-02-05,-0.21601451648111758
2024-02-06,0.11762685178558763
2024-02-07,-0.19023927979151808
2024-02-08,-0.15389537109808185
2024-02-19,-0.06460191592821463
2024-02-20,0.2402618783681425
2024-02-21,-0.043907521613023894
2024-02-22,0.24486923764728252
2024-02-23,0.08579044860392032
2024-02-26,0.057400282367141904
2024-02-27,-0.2595800847197465
2024-02-28,0.0002577136929741153
2024-02-29,-0.3273792611394185
2024-03-01,-0.09688063008649299
2024-03-04,0.08802433006254633
2024-03-05,0.1514652014652021
2024-03-06,-0.11219360437509175
2024-03-07,0.17565372746467622
2024-03-08,-0.005956109282647351
2024-03-11,-0.1202019139762302
2024-03-12,0.022756410256405745
2024-03-13,0.13429949199309077
2024-03-14,0.06871088861075872
2024-03-15,0.14309768845303855
2024-03-18,0.3588307867514435
2024-03-19,-0.06420709793351026
2024-03-20,-0.1161875466491806
2024-03-21,-0.04793161166905522
2024-03-22,-0.12256725491085332
2024-03-25,-0.5747342088805512
2024-03-26,0.05736185983827484
2024-03-27,0.1929691883584234
2024-03-28,0.02844728250432126
2024-03-29,0.08220608366783222
2024-04-01,0.33019943019943243
2024-04-02,-0.0011200151438666775
2024-04-03,-0.14031217418896313
2024-04-08,-0.002924634420697656
2024-04-09,0.03196564885496615
2024-04-10,-0.06775599128540336
2024-04-11,-0.054534746760895224
2024-04-12,0.04493497196038078
2024-04-15,-0.05238095238095222
2024-04-16,-0.031141114982580542
2024-04-17,0.02636459989401156
2024-04-18,0.060178970917225974
2024-04-19,0.09154718081357908
2024-04-22,-0.002775799121195747
2024-04-23,-0.10774886199677429
2024-04-24,0.04392769209553532
2024-04-25,-0.04209745401561191
2024-04-26,-0.24241193535219469
2024-04-29,-0.031176409921266666
2024-04-30,-0.023226881258196358
2024-05-06,-0.10600359778846061
2024-05-07,0.03326983444973551
2024-05-08,0.16804510241777626
2024-05-09,0.16505787019104012
2024-05-10,0.17326026909026293
2024-05-13,-0.0024425839158176213
2024-05-14,0.008801905353631945
2024-05-15,-0.08321225729758291
2024-05-16,-0.233280389307557
2024-05-17,0.029960192750891276
2024-05-20,0.1475576512193312
2024-05-21,-0.06801842524430872
2024-05-22,0.05223880597014616
2024-05-23,0.2275467519685025
2024-05-24,-0.13906459651140946
2024-05-27,-0.13759003601440037
2024-05-28,0.06050352117768126
2024-05-29,0.09469696969697262
2024-05-30,-0.0323583477508631
2024-05-31,0.05164222268126831
2024-06-03,0.08282596478081082
2024-06-04,-0.00392040392040607
2024-06-05,-0.10984848484848483
2024-06-06,-0.2015118445568293
2024-06-07,-0.09774151346140655
2024-06-11,-0.11611292821483413
2024-06-12,0.009825468648998602
2024-06-13,-0.0012419274714369766
2024-06-14,0.2739743589743575
2024-06-17,0.05236320339597051
2024-06-18,0.005893111156265035
2024-06-19,-0.11464097834255742
2024-06-20,-0.09521370023418997
2024-06-21,-0.29242043551088304
2024-06-24,0.17712607437481326
2024-06-25,0.1885900317804815
2024-06-26,0.038504968383019186
2024-06-27,0.29209494773518524
2024-06-28,0.20447277710867748
2024-07-01,-0.15969369996519198
2024-07-02,-0.2046719031255064
2024-07-03,0.12079492155911348
2024-07-04,-0.27028372324538674
2024-07-05,-0.12546788718822655
2024-07-08,0.050412048877518816
2024-07-09,0.22150239940937155
2024-07-10,-0.045177637608502116
2024-07-11,0.24642242439144016
2024-07-12,0.2627211011459931
2024-07-15,-0.07071731384065193
2024-07-16,-0.03685906416362658
2024-07-17,0.04693398632793337
2024-07-18,-0.28259051630687687
2024-07-19,-0.320383986928106
2024-07-22,0.01179970057520965
2024-07-23,-0.2899252181138403
2024-07-24,-0.17033779070455113
2024-07-25,0.12596401028278512
2024-07-26,0.20560224089635495
2024-07-29,0.015845491509216596
2024-07-30,0.44544061302682203
2024-07-31,0.24461991966153918
2024-08-01,0.1366459627329152
2024-08-02,-0.07892271662763507
2024-08-05,0.05921929930900238
2024-08-06,-0.3397979797979787
2024-08-07,-0.3087646161667511
2024-08-08,-0.228796133381387
2024-08-09,-0.008545955051559199
2024-08-12,-0.1612583988749397
2024-08-13,0.0355899419729195
2024-08-14,0.29348777348777333
2024-08-15,0.06426172443332606
2024-08-16,0.029860187878249754
2024-08-19,0.292744463557812
2024-08-20,0.18887373876829291
2024-08-21,-0.1915372317560692
2024-08-22,0.02045906310279496
2024-08-23,-0.06316797965067728
2024-08-26,-0.21628058523081906
2024-08-27,-0.2057195382857283
2024-08-28,0.04238808260692421
2024-08-29,0.04516523216895499
2024-08-30,0.01913144180660057
2024-09-02,-0.0035820895522323017
2024-09-03,0.11463599092464705
2024-09-04,0.38888888888887707
2024-09-05,-0.029627740948504778
2024-09-06,0.1460979770899372
2024-09-09,0.04554381204027159
2024-09-10,0.011902479987588789
2024-09-11,-0.3703703703703609
2024-09-12,0.018797721488309074
2024-09-13,-0.18396220892796722
2024-09-18,-0.0003067108330238426
2024-09-19,-0.06589425978581873
2024-09-20,-0.2027972027972032
2024-09-23,-0.07661343193559547
2024-09-24,0.29408800806180635
2024-09-25,0.03334498834498356
2024-09-26,-0.06264194209864889
2024-09-27,0.2183010787661927
2024-09-30,0.4033971697692055
2024-10-08,-0.326633892423363
2024-10-09,0.027765072765076275
2024-10-10,0.14199213679018083
2024-10-11,0.013534236553696049
2024-10-14,-0.5388747526152078
2024-10-15,0.14564821143768222
2024-10-16,-0.25420837173414457
2024-10-17,-0.11065061605452076
2024-10-18,-0.11061705989110865
2024-10-21,0.20524249177544276
2024-10-22,-0.1958509655138867
2024-10-23,0.13868014107433324
2024-10-24,-0.04652592034762118
2024-10-25,0.14195630585899152
2024-10-28,-0.016498587729047647
2024-10-29,0.40138656466650646
2024-10-30,0.07948632173654699
2024-10-31,0.10569585287976113
2024-11-01,-0.08986797511255395
2024-11-04,-0.07814435422032856
2024-11-05,-0.449348999682437
2024-11-06,0.17809165097300414
2024-11-07,0.13913903103608838
2024-11-08,0.04004470633174624
2024-11-11,0.13463785468026643
2024-11-12,0.1546209837511937
2024-11-13,-0.40199430199430075
2024-11-14,-0.3636896976225309
2024-11-15,-0.09421942835518254
2024-11-18,-0.24266091497332853
2024-11-19,0.0660046116759271
2024-11-20,0.40997741464063114
2024-11-21,0.27176121477838183
2024-11-22,0.20318725099602078
2024-11-25,0.26090051059880204
2024-11-26,-0.023295414647849837
2024-11-27,-0.35437687482956337
2024-11-28,-0.05977144324602538
2024-11-29,-0.11952191235060015
2024-12-02,0.000953468072240865
2024-12-03,0.003692676960005016
2024-12-04,0.12116228070175118
2024-12-05,-0.05992822966506818
2024-12-06,-0.044609665427511665
2024-12-09,-0.2504515086997946
2024-12-10,-0.021077514035261157
2024-12-11,0.08184523809524039
2024-12-12,0.07836257309941305
2024-12-13,-0.01191207370292243
2024-12-16,0.21215548247429267
2024-12-17,-0.03332399459580402
2024-12-18,-0.04388614714791502
2024-12-19,0.19087387595838037
2024-12-20,0.09756089429137305
2024-12-23,0.04326126952242702
2024-12-24,0.09271594500375259
2024-12-25,-0.07707802799582761
2024-12-26,-0.38899186365291505
2024-12-27,-0.05289686267082222
2024-12-30,-0.004210526315785695
2024-12-31,-0.011974110032361387
