date,FCT_Demark_Atr_Dfive
2014-08-08,
2014-08-11,
2014-08-12,
2014-08-13,
2014-08-14,
2014-08-15,
2014-08-18,
2014-08-19,
2014-08-20,
2014-08-21,0.3334974981285212
2014-08-22,0.41596638655462176
2014-08-25,0.4626168224299053
2014-08-26,0.4759615384615382
2014-08-27,0.0
2014-08-28,0.0
2014-08-29,0.021276595744682426
2014-09-01,0.020270270270271847
2014-09-02,0.15862068965517304
2014-09-03,0.6388888888888827
2014-09-04,0.8095238095238063
2014-09-05,0.7380952380952311
2014-09-09,0.9354838709677333
2014-09-10,0.9466666666666596
2014-09-11,0.876543209876543
2014-09-12,0.74074074074074
2014-09-15,0.7977528089887651
2014-09-16,0.48888888888888976
2014-09-17,0.09166666666666695
2014-09-18,0.12068965517241562
2014-09-19,0.21551724137931222
2014-09-22,0.4240506329113927
2014-09-23,0.5500000000000008
2014-09-24,1.0
2014-09-25,1.0
2014-09-26,1.0
2014-09-29,0.7215909090909074
2014-09-30,0.6763005780346806
2014-10-08,0.6190476190476176
2014-10-09,0.12149532710280221
2014-10-10,0.03571428571428675
2014-10-13,0.18055555555556474
2014-10-14,0.29729729729730653
2014-10-15,0.23076923076923828
2014-10-16,0.2608695652174019
2014-10-17,0.3214285714285832
2014-10-20,0.12857142857143064
2014-10-21,0.0
2014-10-22,0.058139534883721505
2014-10-23,0.16129032258064557
2014-10-24,0.15151515151515169
2014-10-27,0.1923076923076946
2014-10-28,0.5882352941176477
2014-10-29,0.25423728813559116
2014-10-30,0.21428571428570867
2014-10-31,0.7291666666666665
2014-11-03,0.801324503311257
2014-11-04,0.8666666666666663
2014-11-05,1.0
2014-11-06,1.0
2014-11-07,0.537444933920705
2014-11-10,0.45299145299145455
2014-11-11,0.09053497942386907
2014-11-12,0.0
2014-11-13,0.0
2014-11-14,0.006289308176100221
2014-11-17,0.04255319148936192
2014-11-18,0.28813559322033666
2014-11-19,0.6923076923076936
2014-11-20,1.0
2014-11-21,0.8571428571428558
2014-11-24,0.7209302325581286
2014-11-25,0.5714285714285657
2014-11-26,0.46428571428570065
2014-11-27,0.444444444444424
2014-11-28,0.5909090909090626
2014-12-01,0.9032258064516034
2014-12-02,0.7999999999999765
2014-12-03,0.26666666666665956
2014-12-04,0.35294117647058665
2014-12-05,0.5769230769230771
2014-12-08,0.5643564356435675
2014-12-09,0.6890756302521053
2014-12-10,1.0
2014-12-11,1.0
2014-12-12,1.0
2014-12-15,0.8807339449541297
2014-12-16,0.7244897959183692
2014-12-17,0.3461538461538433
2014-12-18,0.2903225806451582
2014-12-19,0.0
2014-12-22,0.2885906040268441
2014-12-23,0.3947368421052612
2014-12-24,0.4962962962962965
2014-12-25,0.503759398496242
2014-12-26,0.8869565217391315
2014-12-29,0.702380952380955
2014-12-30,0.47736398206964115
2014-12-31,0.3992367063238224
2015-01-05,0.6450695745250166
2015-01-06,0.3913352132673349
2015-01-07,0.33294186729300956
2015-01-08,0.40080382929735414
2015-01-09,0.4887931034482775
2015-01-12,0.3332481537321492
2015-01-13,0.4338900718658571
2015-01-14,0.7187500000000056
2015-01-15,0.8157894736842097
2015-01-16,0.5641025641025553
2015-01-19,0.1568627450980311
2015-01-20,0.1159420289855006
2015-01-21,0.11428571428570779
2015-01-22,0.060606060606069455
2015-01-23,0.0625000000000098
2015-01-26,0.0816326530612372
2015-01-27,0.7400000000000059
2015-01-28,0.8571428571428618
2015-01-29,0.8869047619047647
2015-01-30,0.944162436548224
2015-02-02,1.0
2015-02-03,0.8190954773869346
2015-02-04,0.7592592592592594
2015-02-05,0.518518518518519
2015-02-06,0.2993630573248405
2015-02-09,0.0
2015-02-10,0.15068493150685072
2015-02-11,0.13095238095238168
2015-02-12,0.16793893129770995
2015-02-13,0.2870370370370358
2015-02-16,0.6142857142857097
2015-02-17,0.19266055045871527
2015-02-25,0.2234042553191494
2015-02-26,0.38260869565217487
2015-02-27,0.3931623931623959
2015-03-02,0.46212121212121254
2015-03-03,0.8591549295774665
2015-03-04,1.0
2015-03-05,1.0
2015-03-06,1.0
2015-03-09,0.7596153846153852
2015-03-10,0.7916666666666672
2015-03-11,0.4470588235294144
2015-03-12,0.22556390977443716
2015-03-13,0.10738255033557056
2015-03-16,0.11428571428571435
2015-03-17,0.0
2015-03-18,0.0
2015-03-19,0.0
2015-03-20,0.0
2015-03-23,0.32558139534883435
2015-03-24,0.43749999999999667
2015-03-25,0.5957446808510586
2015-03-26,0.5957446808510586
2015-03-27,0.8431372549019602
2015-03-30,0.5321100917431195
2015-03-31,0.5370370370370371
2015-04-01,0.6236559139784953
2015-04-02,0.6236559139784953
2015-04-03,0.0
2015-04-07,0.7083333333333339
2015-04-08,0.7148148148148155
2015-04-09,0.7189781021897819
2015-04-10,0.7930107526881728
2015-04-13,1.0
2015-04-14,0.5699658703071679
2015-04-15,0.6347826086956526
2015-04-16,0.6684210526315788
2015-04-17,0.42391304347826014
2015-04-20,0.34365325077399334
2015-04-21,0.4805194805194788
2015-04-22,0.2598039215686259
2015-04-23,0.06763285024154632
2015-04-24,0.4729064039408861
2015-04-27,0.5367965367965357
2015-04-28,0.5535714285714286
2015-04-29,0.7964601769911508
2015-04-30,0.9401330376940136
2015-05-04,0.7386609071274305
2015-05-05,0.5597014925373139
2015-05-06,0.589390962671906
2015-05-07,0.28413284132841343
2015-05-08,0.0
2015-05-11,0.0
2015-05-12,0.0
2015-05-13,0.0
2015-05-14,0.0
2015-05-15,
2015-05-18,
2015-05-19,1.0
2015-05-20,1.0
2015-05-21,1.0
2015-05-22,1.0
2015-05-25,1.0
2015-05-26,0.842105263157897
2015-05-27,0.8169014084507066
2015-05-28,0.47887323943662163
2015-05-29,0.3190184049079758
2015-06-01,0.15950920245398528
2015-06-02,0.19696969696969285
2015-06-03,0.04054054054053863
2015-06-04,0.07894736842104895
2015-06-05,0.0
2015-06-08,0.0
2015-06-09,0.0
2015-06-10,0.0
2015-06-11,0.0
2015-06-12,0.0
2015-06-15,0.0
2015-06-16,0.05000000000000419
2015-06-17,1.0
2015-06-18,1.0
2015-06-19,1.0
2015-06-23,1.0
2015-06-24,0.0
2015-06-25,0.0
2015-06-26,0.0
2015-06-29,0.989071038251365
2015-06-30,0.9891304347826076
2015-07-01,1.0
2015-07-02,1.0
2015-07-03,1.0
2015-07-06,0.0054945054945060474
2015-07-07,0.44984802431610976
2015-07-08,0.6148936170212771
2015-07-09,0.6422924901185776
2015-07-10,0.6721014492753629
2015-07-13,1.0
2015-07-14,0.769620253164557
2015-07-15,0.42894736842105263
2015-07-16,0.4783653846153846
2015-07-17,0.40263157894736823
2015-07-20,0.22429906542056066
2015-07-21,0.28125000000000006
2015-07-22,0.762295081967213
2015-07-23,0.5615763546798027
2015-07-24,0.4978165938864626
2015-07-27,0.4285714285714281
2015-07-28,0.48148148148148145
2015-07-29,0.011627906976745211
2015-07-30,0.009868421052632444
2015-07-31,0.011194029850747252
2015-08-03,0.014354066985647193
2015-08-04,0.0
2015-08-05,0.11904761904761643
2015-08-06,0.30612244897958385
2015-08-07,0.38181818181817573
2015-08-10,0.38181818181817573
2015-08-11,0.9545454545454684
2015-08-12,0.27272727272728475
2015-08-13,0.27272727272728475
2015-08-14,0.9252336448598156
2015-08-17,0.9252336448598156
2015-08-18,0.9496674588452747
2015-08-19,1.0
2015-08-20,1.0
2015-08-21,0.42299471510254066
2015-08-24,0.5485563285869515
2015-08-25,0.41935027031021044
2015-08-26,0.253192616036354
2015-08-27,0.3709808748506797
2015-08-28,0.7818181818181829
2015-08-31,0.6507936507936516
2015-09-01,0.7327327327327328
2015-09-02,0.9094076655052263
2015-09-07,0.719696969696969
2015-09-08,0.212927756653992
2015-09-09,0.2817460317460318
2015-09-10,0.10921501706484633
2015-09-11,0.051194539249147165
2015-09-14,0.05597014925373185
2015-09-15,0.6026490066225167
2015-09-16,0.5890410958904103
2015-09-17,0.8353909465020593
2015-09-18,0.9087301587301596
2015-09-21,1.0
2015-09-22,0.6600985221674872
2015-09-23,0.44791666666666785
2015-09-24,0.44405594405594256
2015-09-25,0.4321428571428557
2015-09-28,0.19999999999999765
2015-09-29,0.21120689655172203
2015-09-30,0.527918781725886
2015-10-08,0.3048780487804876
2015-10-09,0.25327510917030466
2015-10-12,0.27488151658767757
2015-10-13,0.36024844720496924
2015-10-14,0.394117647058826
2015-10-15,0.7807017543859679
2015-10-16,0.8803827751196195
2015-10-19,0.9340101522842642
2015-10-20,0.8479262672811047
2015-10-21,0.5555555555555541
2015-10-22,0.611336032388663
2015-10-23,0.23981900452488633
2015-10-26,0.3924528301886782
2015-10-27,0.5768025078369903
2015-10-28,0.8080000000000003
2015-10-29,0.730994152046784
2015-10-30,0.9305555555555556
2015-11-02,0.9342105263157895
2015-11-03,0.7816091954022996
2015-11-04,0.3648068669527893
2015-11-05,0.3556485355648532
2015-11-06,0.247232472324723
2015-11-09,0.0
2015-11-10,0.0
2015-11-11,0.08750000000000002
2015-11-12,0.3181818181818181
2015-11-13,0.4488188976377966
2015-11-16,1.0
2015-11-17,0.9843749999999984
2015-11-18,0.429824561403512
2015-11-19,0.07526881720430591
2015-11-20,0.14851485148514962
2015-11-23,0.2649572649572645
2015-11-24,0.4407894736842108
2015-11-25,0.8055555555555561
2015-11-26,1.0
2015-11-27,0.8272727272727272
2015-11-30,0.5519999999999984
2015-12-01,0.21568627450980196
2015-12-02,0.1724137931034478
2015-12-03,0.08510638297872443
2015-12-04,0.20289855072463855
2015-12-07,0.4710144927536244
2015-12-08,0.917431192660551
2015-12-09,0.6717557251908399
2015-12-10,0.5986394557823135
2015-12-11,0.46753246753246697
2015-12-14,0.20348837209302312
2015-12-15,0.0
2015-12-16,0.05755395683453269
2015-12-17,0.0592592592592594
2015-12-18,0.2727272727272729
2015-12-21,0.43333333333333524
2015-12-22,0.7325581395348862
2015-12-23,0.6250000000000034
2015-12-24,0.8421052631579037
2015-12-25,0.6734693877551127
2015-12-28,0.8426966292134854
2015-12-29,0.6455696202531712
2015-12-30,0.8705035971223047
2015-12-31,0.8530203306146201
2016-01-04,0.854319560820578
2016-01-05,0.6045481311162868
2016-01-06,0.6288922919857093
2016-01-07,0.0
2016-01-08,0.2749090123989868
2016-01-11,0.398311009568833
2016-01-12,0.549793210451812
2016-01-13,0.5871545061189131
2016-01-14,1.0
2016-01-15,1.0
2016-01-18,1.0
2016-01-19,0.6363636363636357
2016-01-20,0.6258992805755385
2016-01-21,0.1485148514851468
2016-01-22,0.024999999999997396
2016-01-25,0.011695906432748322
2016-01-26,0.05645161290322392
2016-01-27,0.03571428571428423
2016-01-28,0.22307692307692012
2016-01-29,0.26126126126125887
2016-02-01,0.38157894736841735
2016-02-02,0.2999999999999994
2016-02-03,0.38095238095237893
2016-02-04,0.0
2016-02-05,0.0
2016-02-15,0.4180327868852465
2016-02-16,0.48333333333333256
2016-02-17,0.5821917808219192
2016-02-18,0.7589285714285757
2016-02-19,0.9252336448598167
2016-02-22,0.6486486486486532
2016-02-23,0.5466666666666702
2016-02-24,0.24561403508771748
2016-02-25,0.4615384615384565
2016-02-26,0.5569620253164557
2016-02-29,0.6027397260273949
2016-03-01,0.8264462809917335
2016-03-02,0.9340659340659325
2016-03-03,0.93142857142857
2016-03-04,0.9289940828402351
2016-03-07,0.8051282051282054
2016-03-08,0.8382978723404256
2016-03-09,0.5474137931034478
2016-03-10,0.7445255474452548
2016-03-11,0.767699115044247
2016-03-14,0.8691406249999993
2016-03-15,0.6547842401500931
2016-03-16,0.7621951219512194
2016-03-17,0.39451476793248985
2016-03-18,0.2561983471074392
2016-03-21,0.06250000000000103
2016-03-22,0.08387096774193692
2016-03-23,0.09841269841269698
2016-03-24,0.2191780821917784
2016-03-25,0.34042553191488895
2016-03-28,0.7192982456140308
2016-03-29,0.8055555555555514
2016-03-30,0.3783783783783766
2016-03-31,0.35947712418300454
2016-04-01,0.4652777777777779
2016-04-05,0.12056737588652781
2016-04-06,0.07228915662650759
2016-04-07,0.1263157894736863
2016-04-08,0.0909090909090926
2016-04-11,0.0
2016-04-12,0.0
2016-04-13,0.43697478991596744
2016-04-14,0.5677419354838719
2016-04-15,0.8659217877094988
2016-04-18,0.9305019305019321
2016-04-19,1.0
2016-04-20,1.0
2016-04-21,1.0
2016-04-22,0.7134502923976587
2016-04-25,0.18090452261306406
2016-04-26,0.04102564102564134
2016-04-27,0.03225806451612964
2016-04-28,0.06666666666666571
2016-04-29,0.44673539518900346
2016-05-03,0.7120710703567678
2016-05-04,0.6512016044130425
2016-05-05,0.6481435380277083
2016-05-06,0.47963567037672955
2016-05-09,0.0
2016-05-10,0.16445447305548144
2016-05-11,0.3868672950017437
2016-05-12,0.4585798278027578
2016-05-13,0.6976955427011381
2016-05-16,0.9045454545454551
2016-05-17,0.773399014778326
2016-05-18,0.6052631578947352
2016-05-19,0.5167785234899304
2016-05-20,0.0
2016-05-23,0.0
2016-05-24,0.08771929824561507
2016-05-25,0.06849315068493354
2016-05-26,0.06250000000000216
2016-05-27,0.04310344827586355
2016-05-30,0.10483870967742402
2016-05-31,0.05839416058394486
2016-06-01,0.10810810810810836
2016-06-02,0.46666666666666695
2016-06-03,0.8593750000000026
2016-06-06,0.7445255474452549
2016-06-07,0.8712121212121184
2016-06-08,0.8161764705882374
2016-06-13,0.47321428571428825
2016-06-14,0.13402061855669992
2016-06-15,0.13402061855670086
2016-06-16,0.0
2016-06-17,0.0103092783505125
2016-06-20,0.012987012987009315
2016-06-21,0.015384615384611196
2016-06-22,0.014925373134324217
2016-06-23,0.016949152542368326
2016-06-24,0.1714285714285702
2016-06-27,0.633333333333334
2016-06-28,0.8025477707006374
2016-06-29,0.9302325581395361
2016-06-30,1.0
2016-07-01,0.8609625668449201
2016-07-04,0.659863945578229
2016-07-05,0.6666666666666656
2016-07-06,0.5641025641025612
2016-07-07,0.5405405405405409
2016-07-08,0.7807017543859618
2016-07-11,0.6218367245224735
2016-07-12,0.24805315688099727
2016-07-13,0.46345272779964275
2016-07-14,0.5028797947044568
2016-07-15,0.5982454629181772
2016-07-18,0.70652677871006
2016-07-19,0.6521863183100315
2016-07-20,0.3562074874244006
2016-07-21,0.2512796216432513
2016-07-22,0.0
2016-07-25,0.0
2016-07-26,0.0
2016-07-27,0.0
2016-07-28,0.0
2016-07-29,
2016-08-01,
2016-08-02,
2016-08-03,
2016-08-04,
2016-08-05,
2016-08-08,
2016-08-09,
2016-08-10,
2016-08-11,1.0
2016-08-12,1.0
2016-08-15,1.0
2016-08-16,1.0
2016-08-17,1.0
2016-08-18,0.5962732919254662
2016-08-19,0.5962732919254662
2016-08-22,0.5962732919254662
2016-08-23,0.5962732919254662
2016-08-24,0.0
2016-08-25,0.0
2016-08-26,0.0
2016-08-29,0.0
2016-08-30,0.0
2016-08-31,0.0
2016-09-01,0.0
2016-09-02,0.0
2016-09-05,0.6358024691358048
2016-09-06,0.6358024691358048
2016-09-07,1.0
2016-09-08,1.0
2016-09-09,1.0
2016-09-12,0.6240875912408752
2016-09-13,0.6240875912408752
2016-09-14,0.19708029197080226
2016-09-19,0.0
2016-09-20,0.2346368715083799
2016-09-21,0.3294117647058826
2016-09-22,0.4622641509433963
2016-09-23,0.778688524590164
2016-09-26,1.0
2016-09-27,0.8490566037735864
2016-09-28,0.9039343508174514
2016-09-29,0.8793132537830982
2016-09-30,0.896254236468725
2016-10-10,0.9406464682302392
2016-10-11,1.0
2016-10-12,0.9914159732196253
2016-10-13,0.9913866969328571
2016-10-14,0.8379318783076819
2016-10-17,0.24215735367757354
2016-10-18,0.04803493449781564
2016-10-19,0.21245421245421164
2016-10-20,0.17279411764705874
2016-10-21,0.20524017467248967
2016-10-24,0.4476190476190465
2016-10-25,0.4433962264150939
2016-10-26,0.0
2016-10-27,0.31428571428571345
2016-10-28,0.3831775700934586
2016-10-31,0.3942307692307733
2016-11-01,0.4141414141414186
2016-11-02,0.33884297520661477
2016-11-03,0.10112359550562558
2016-11-04,0.02439024390244025
2016-11-07,0.4579439252336467
2016-11-08,0.42982456140350983
2016-11-09,0.4454545454545452
2016-11-10,0.2711864406779653
2016-11-11,0.2655367231638424
2016-11-14,0.2972972972972972
2016-11-15,0.5752895752895757
2016-11-16,0.7261904761904777
2016-11-17,0.9336734693877559
2016-11-18,0.9423076923076918
2016-11-21,0.6588785046728964
2016-11-22,0.21076233183856474
2016-11-23,0.07853403141361225
2016-11-24,0.3166666666666651
2016-11-25,0.269230769230768
2016-11-28,0.3922651933701638
2016-11-29,0.9669811320754712
2016-11-30,0.9684684684684679
2016-12-01,0.8279569892473111
2016-12-02,0.8611111111111107
2016-12-05,0.7101449275362315
2016-12-06,0.06161137440758008
2016-12-07,0.004347826086955462
2016-12-08,0.004784688995214152
2016-12-09,0.0
2016-12-12,0.0
2016-12-13,0.14084507042254307
2016-12-14,0.4736842105263209
2016-12-15,0.369863013698632
2016-12-16,0.2647058823529404
2016-12-19,0.23893805309734617
2016-12-20,0.21818181818181243
2016-12-21,0.43046357615894104
2016-12-22,0.5599999999999998
2016-12-23,0.8552631578947387
2016-12-26,1.0
2016-12-27,1.0
2016-12-28,0.8057553956834514
2016-12-29,0.6690647482014358
2016-12-30,0.7341040462427734
2017-01-03,0.4218750000000003
2017-01-04,0.3305785123966955
2017-01-05,0.2605863192182422
2017-01-06,0.24169184290030346
2017-01-09,0.0
2017-01-10,0.0
2017-01-11,0.0
2017-01-12,0.0
2017-01-13,0.0
2017-01-16,
2017-01-17,1.0
2017-01-18,1.0
2017-01-19,1.0
2017-01-20,1.0
2017-01-23,1.0
2017-01-24,0.7280701754386001
2017-01-25,0.20731707317073125
2017-01-26,0.18749999999999556
2017-02-03,0.133333333333338
2017-02-06,0.1875000000000009
2017-02-07,0.7834394904458584
2017-02-08,0.8145695364238401
2017-02-09,0.7018633540372657
2017-02-10,0.6807228915662621
2017-02-13,0.7309644670050743
2017-02-14,0.19251336898395724
2017-02-15,0.4170616113744087
2017-02-16,0.511848341232229
2017-02-17,0.5793991416309022
2017-02-20,0.41596638655462326
2017-02-21,0.7897085870116703
2017-02-22,0.7336653271452629
2017-02-23,0.779466811322205
2017-02-24,0.7874430586661001
2017-02-27,1.0
2017-02-28,0.8571184907107045
2017-03-01,0.7366221809087499
2017-03-02,0.5826266279249955
2017-03-03,0.5702127659574495
2017-03-06,0.14835164835165104
2017-03-07,0.26666666666666916
2017-03-08,0.37226277372262995
2017-03-09,0.7352941176470593
2017-03-10,0.7258883248730964
2017-03-13,0.9662162162162143
2017-03-14,0.6363636363636347
2017-03-15,0.5173913043478248
2017-03-16,0.07352941176470594
2017-03-17,0.0
2017-03-20,0.0
2017-03-21,0.0
2017-03-22,0.0
2017-03-23,0.0
2017-03-24,0.0
2017-03-27,
2017-03-28,
2017-03-29,
2017-03-30,
2017-03-31,
2017-04-05,
2017-04-06,
2017-04-07,
2017-04-10,
2017-04-11,
2017-04-12,1.0
2017-04-13,1.0
2017-04-14,1.0
2017-04-17,1.0
2017-04-18,1.0
2017-04-19,0.6881720430107517
2017-04-20,0.5268817204301081
2017-04-21,0.0
2017-04-24,0.0
2017-04-25,0.0
2017-04-26,0.0
2017-04-27,0.0
2017-04-28,
2017-05-02,
2017-05-03,
2017-05-04,
2017-05-05,
2017-05-08,
2017-05-09,
2017-05-10,
2017-05-11,
2017-05-12,
2017-05-15,
2017-05-16,
2017-05-17,
2017-05-18,
2017-05-19,1.0
2017-05-22,1.0
2017-05-23,1.0
2017-05-24,1.0
2017-05-25,1.0
2017-05-26,0.8010899182561299
2017-05-31,0.8063660477453574
2017-06-01,0.8063660477453574
2017-06-02,0.026525198938992526
2017-06-05,0.026525198938992526
2017-06-06,0.024630541871921662
2017-06-07,0.0
2017-06-08,0.0
2017-06-09,0.0
2017-06-12,0.0
2017-06-13,0.9253731343283566
2017-06-14,1.0
2017-06-15,1.0
2017-06-16,1.0
2017-06-19,1.0
2017-06-20,0.4123222748815176
2017-06-21,0.44144144144144204
2017-06-22,0.4144144144144161
2017-06-23,0.18468468468468502
2017-06-26,0.18468468468468502
2017-06-27,0.41836734693877575
2017-06-28,0.0
2017-06-29,0.0
2017-06-30,0.04054054054054499
2017-07-03,0.04054054054054499
2017-07-04,0.04054054054054499
2017-07-05,1.0
2017-07-06,1.0
2017-07-07,0.0
2017-07-10,0.0
2017-07-11,0.0
2017-07-12,0.0
2017-07-13,0.0
2017-07-14,
2017-07-17,
2017-07-18,
2017-07-19,
2017-07-20,
2017-07-21,
2017-07-24,
2017-07-25,
2017-07-26,
2017-07-27,
2017-07-28,
2017-07-31,
2017-08-01,
2017-08-02,1.0
2017-08-03,1.0
2017-08-04,1.0
2017-08-07,1.0
2017-08-08,1.0
2017-08-09,1.0
2017-08-10,0.9926470588235321
2017-08-11,0.9939393939393962
2017-08-14,0.9911504424778794
2017-08-15,0.9943820224719122
2017-08-16,0.9956896551724154
2017-08-17,0.6814159292035397
2017-08-18,0.4810495626822156
2017-08-21,0.4459459459459449
2017-08-22,0.3988269794721395
2017-08-23,0.12857142857142811
2017-08-24,0.5584415584415583
2017-08-25,0.7731958762886597
2017-08-28,0.8737864077669908
2017-08-29,0.8828828828828835
2017-08-30,0.8424068767908318
2017-08-31,0.4438202247191019
2017-09-01,0.2908587257617737
2017-09-04,0.3990610328638503
2017-09-05,0.2249488752556235
2017-09-06,0.24282560706401707
2017-09-07,0.2917771883289115
2017-09-08,0.41292134831460553
2017-09-11,0.09919571045576392
2017-09-12,0.23928571428571435
2017-09-13,0.40490797546012275
2017-09-14,0.5189393939393935
2017-09-15,0.3937007874015744
2017-09-18,0.5555555555555556
2017-09-19,0.32110091743119196
2017-09-20,0.02192982456140192
2017-09-21,0.378648807399478
2017-09-22,0.46716817706170366
2017-09-25,0.6560668878720013
2017-09-26,0.8085509645250946
2017-09-27,1.0
2017-09-28,0.6108790203815242
2017-09-29,0.4999718223158575
2017-10-09,0.22077698097881773
2017-10-10,0.2519480658203232
2017-10-11,0.28076923076923227
2017-10-12,0.5104895104895136
2017-10-13,0.5530303030303075
2017-10-16,0.5615384615384665
2017-10-17,0.13380281690141063
2017-10-18,0.10218978102190003
2017-10-19,0.19594594594594797
2017-10-20,0.4457142857142864
2017-10-23,0.7027027027027031
2017-10-24,1.0
2017-10-25,0.8265306122448982
2017-10-26,0.8862876254180604
2017-10-27,0.8437499999999992
2017-10-30,0.8148148148148137
2017-10-31,0.8360655737704912
2017-11-01,0.9767441860465105
2017-11-02,0.6733668341708531
2017-11-03,0.6090909090909084
2017-11-06,0.3428571428571411
2017-11-07,0.17582417582417417
2017-11-08,0.0
2017-11-09,0.057894736842104284
2017-11-10,0.24378109452736382
2017-11-13,0.522123893805314
2017-11-14,0.508620689655177
2017-11-15,0.6589147286821734
2017-11-16,0.38743455497382495
2017-11-17,0.18274111675127042
2017-11-20,0.12149532710280304
2017-11-21,0.21739130434782394
2017-11-22,0.09999999999999891
2017-11-23,0.58720930232558
2017-11-24,0.8111888111888104
2017-11-27,1.0
2017-11-28,1.0
2017-11-29,0.714975845410629
2017-11-30,0.32142857142857195
2017-12-01,0.25263157894736926
2017-12-04,0.14912280701754518
2017-12-05,0.4713896457765682
2017-12-06,0.7467166979362112
2017-12-07,0.9081325301204827
2017-12-08,0.9413754227733937
2017-12-11,1.0
2017-12-12,0.8731848983543073
2017-12-13,0.6566440349175552
2017-12-14,0.5501165501165494
2017-12-15,0.32301480484522144
2017-12-18,0.0
2017-12-19,0.0
2017-12-20,0.03355704697986569
2017-12-21,0.09219858156028313
2017-12-22,0.1274509803921565
2017-12-25,0.3571428571428563
2017-12-26,0.5517241379310333
2017-12-27,0.5568181818181823
2017-12-28,0.2972972972972985
2017-12-29,0.2869565217391309
2018-01-02,0.12068965517241584
2018-01-03,0.2608695652173936
2018-01-04,0.31543624161073935
2018-01-05,0.19421487603305812
2018-01-08,0.20171673819742497
2018-01-09,0.15161290322580673
2018-01-10,0.0691823899371071
2018-01-11,0.0
2018-01-12,0.0
2018-01-15,3.0148259322205516e-15
2018-01-16,0.6144578313253006
2018-01-17,0.7769784172661887
2018-01-18,0.9411764705882353
2018-01-19,0.8888888888888912
2018-01-22,0.9209486166007919
2018-01-23,0.7891566265060254
2018-01-24,0.730994152046785
2018-01-25,0.4319526627218933
2018-01-26,0.599999999999999
2018-01-29,0.24698795180722866
2018-01-30,0.1863636363636363
2018-01-31,0.18894009216589847
2018-02-01,0.2180851063829789
2018-02-02,0.0
2018-02-05,0.3408071748878932
2018-02-06,0.5542857142857152
2018-02-07,0.6045197740112991
2018-02-08,0.7421052631578942
2018-02-09,1.0
2018-02-12,0.4222222222222181
2018-02-13,0.25700934579438894
2018-02-14,0.2772727272727264
2018-02-22,0.1279620853080573
2018-02-23,0.0720720720720733
2018-02-26,0.436464088397793
2018-02-27,0.6384615384615427
2018-02-28,0.4890510948905148
2018-03-01,0.621848739495803
2018-03-02,0.8496732026143796
2018-03-05,0.7722772277227717
2018-03-06,0.7551020408163267
2018-03-07,0.990384615384617
2018-03-08,0.8347826086956568
2018-03-09,0.844262295081973
2018-03-12,0.5168539325842745
2018-03-13,0.5277777777777819
2018-03-14,0.40000000000000296
2018-03-15,0.47058823529411686
2018-03-16,0.04545454545454184
2018-03-19,0.15862068965516612
2018-03-20,0.3440860215053717
2018-03-21,0.34042553191488883
2018-03-22,0.291457286432159
2018-03-23,0.7898089171974517
2018-03-26,0.8103448275862066
2018-03-27,0.79375
2018-03-28,0.8523489932885924
2018-03-29,0.9645390070921984
2018-03-30,0.4895104895104898
2018-04-02,0.2653061224489818
2018-04-03,0.04568527918781839
2018-04-04,0.04455445544554577
2018-04-09,0.1572052401746724
2018-04-10,0.2208588957055216
2018-04-11,0.26666666666666605
2018-04-12,0.6000000000000064
2018-04-13,0.9339622641509445
2018-04-16,0.9152542372881356
2018-04-17,0.9611940298507465
2018-04-18,0.9873150105708249
2018-04-19,0.9982905982905979
2018-04-20,0.7945597516775271
2018-04-23,0.7826465122862808
2018-04-24,0.6815146610074985
2018-04-25,0.34661446581848265
2018-04-26,0.0
2018-04-27,0.0
2018-05-02,0.0
2018-05-03,0.0
2018-05-04,0.0
2018-05-07,0.10638297872340174
2018-05-08,0.09036144578313013
2018-05-09,0.13872832369942217
2018-05-10,0.20689655172413843
2018-05-11,0.23300970873786447
2018-05-14,0.11235955056180592
2018-05-15,0.4029850746268707
2018-05-16,0.6992481203007518
2018-05-17,0.9631901840490795
2018-05-18,1.0
2018-05-21,1.0
2018-05-22,1.0
2018-05-23,1.0
2018-05-24,0.9219512195121979
2018-05-25,0.4392523364485988
2018-05-28,0.1033057851239685
2018-05-29,0.10330578512396656
2018-05-30,0.06031746031745995
2018-05-31,0.053977272727272256
2018-06-01,0.07307692307692264
2018-06-04,0.16279069767441823
2018-06-05,0.05454545454545471
2018-06-06,0.07964601769911527
2018-06-07,0.16393442622951376
2018-06-08,0.556818181818181
2018-06-11,0.37735849056603843
2018-06-12,0.32258064516129065
2018-06-13,0.6392405063291151
2018-06-14,0.6250000000000003
2018-06-15,0.39102564102564125
2018-06-19,0.7279999999999986
2018-06-20,0.8311111111111098
2018-06-21,0.5675675675675657
2018-06-22,0.6630434782608677
2018-06-25,0.7835820895522383
2018-06-26,0.6329113924050634
2018-06-27,0.6282051282051303
2018-06-28,1.0
2018-06-29,0.6804123711340265
2018-07-02,0.6172839506172882
2018-07-03,0.2020725388601062
2018-07-04,0.3094170403587435
2018-07-05,0.21052631578947098
2018-07-06,0.24043715846994207
2018-07-09,0.15566037735848876
2018-07-10,0.5555555555555526
2018-07-11,0.26241134751772954
2018-07-12,0.27819548872180366
2018-07-13,0.23870967741935437
2018-07-16,0.5243902439024382
2018-07-17,0.2969696969696968
2018-07-18,0.4049586776859512
2018-07-19,0.35000000000000075
2018-07-20,0.4880000000000037
2018-07-23,0.1176470588235347
2018-07-24,0.17391304347826791
2018-07-25,0.2739726027397334
2018-07-26,0.49180327868853
2018-07-27,0.4464285714285711
2018-07-30,0.416666666666664
2018-07-31,0.791666666666666
2018-08-01,0.8678414096916293
2018-08-02,0.871794871794871
2018-08-03,0.8809523809523803
2018-08-06,1.0
2018-08-07,1.0
2018-08-08,0.7739130434782612
2018-08-09,0.6315789473684221
2018-08-10,0.4351851851851863
2018-08-13,0.24691358024691223
2018-08-14,0.09150326797385451
2018-08-15,0.08860759493670714
2018-08-16,0.4225877110635474
2018-08-17,0.5546147793572433
2018-08-20,0.6095442184443635
2018-08-21,0.8830252368308642
2018-08-22,0.9023531702640775
2018-08-23,0.6081923906245214
2018-08-24,0.4053007008976049
2018-08-27,0.20435840511499817
2018-08-28,0.0
2018-08-29,0.037414965986393094
2018-08-30,0.09606986899563374
2018-08-31,0.12359550561797882
2018-09-03,0.20560747663551582
2018-09-04,0.28947368421052994
2018-09-05,0.11578947368421691
2018-09-06,0.0
2018-09-07,0.26174496644295225
2018-09-10,0.27659574468084946
2018-09-11,0.32499999999999724
2018-09-12,0.6730769230769189
2018-09-13,0.9391891891891856
2018-09-14,0.9407894736842073
2018-09-17,0.9875776397515529
2018-09-18,0.9352941176470585
2018-09-19,0.8017241379310376
2018-09-20,0.5363636363636433
2018-09-21,0.11188811188811609
2018-09-25,0.1589403973509922
2018-09-26,0.16901408450704114
2018-09-27,0.12565445026177852
2018-09-28,0.3849557522123876
2018-10-08,0.6666666666666641
2018-10-09,0.5425531914893592
2018-10-10,0.6037735849056585
2018-10-11,0.8878048780487799
2018-10-12,0.6538461538461546
2018-10-15,0.49382716049382863
2018-10-16,0.5815602836879467
2018-10-17,0.4148148148148171
2018-10-18,0.01818181818182249
2018-10-19,0.08108108108108046
2018-10-22,0.08571428571428504
2018-10-23,0.05333333333332646
2018-10-24,0.07142857142856326
2018-10-25,0.5399999999999955
2018-10-26,0.31944444444444453
2018-10-29,0.5853658536585367
2018-10-30,0.7065217391304385
2018-10-31,0.6914893617021276
2018-11-01,0.4719101123595479
2018-11-02,0.7789473684210485
2018-11-05,0.4579439252336427
2018-11-06,0.3047619047619033
2018-11-07,0.40677966101694496
2018-11-08,0.6285714285714272
2018-11-09,0.40287769784172595
2018-11-12,0.7927927927927941
2018-11-13,0.8652173913043495
2018-11-14,0.8713692946058113
2018-11-15,0.7264957264957302
2018-11-16,0.8658536585365871
2018-11-19,0.3974358974358991
2018-11-20,0.35616438356164537
2018-11-21,0.3948497854077245
2018-11-22,0.4653465346534626
2018-11-23,0.28021978021977717
2018-11-26,0.889952153110047
2018-11-27,0.9148148148148142
2018-11-28,0.7279151943462896
2018-11-29,0.6962457337883959
2018-11-30,0.7676056338028173
2018-12-03,0.4611111111111108
2018-12-04,0.06730769230769297
2018-12-05,0.07567567567567626
2018-12-06,0.2392344497607669
2018-12-07,0.16589861751152193
2018-12-10,0.12811387900355947
2018-12-11,0.23316062176165675
2018-12-12,0.34999999999999754
2018-12-13,0.13989637305699082
2018-12-14,0.22162162162161755
2018-12-17,0.4787234042553138
2018-12-18,0.4494382022471879
2018-12-19,0.30136986301370056
2018-12-20,0.9607843137254999
2018-12-21,0.6250000000000002
2018-12-24,0.4066577235880358
2018-12-25,0.2716447203113017
2018-12-26,0.26639206427960044
2018-12-27,0.29553811816920394
2018-12-28,0.3325465758057707
2019-01-02,0.5831662371653638
2019-01-03,0.8486852292082236
2019-01-04,0.8135720491227169
2019-01-07,0.25600074132014916
2019-01-08,0.3941605839416057
2019-01-09,0.2352941176470628
2019-01-10,0.16911764705882504
2019-01-11,0.2837837837837859
2019-01-14,0.6808510638297929
2019-01-15,0.4226804123711388
2019-01-16,0.4606741573033727
2019-01-17,0.43617021276595785
2019-01-18,0.2682926829268289
2019-01-21,0.23076923076922934
2019-01-22,0.5142857142857062
2019-01-23,0.7083333333333267
2019-01-24,0.9054054054054035
2019-01-25,0.9852941176470634
2019-01-28,0.5833333333333354
2019-01-29,0.5270270270270343
2019-01-30,0.6195652173913094
2019-01-31,0.500000000000003
2019-02-01,0.5180722891566264
2019-02-11,0.9189189189189193
2019-02-12,0.7499999999999971
2019-02-13,0.3333333333333333
2019-02-14,0.3333333333333313
2019-02-15,0.23809523809523755
2019-02-18,0.06976744186046446
2019-02-19,0.06976744186046484
2019-02-20,0.4249999999999942
2019-02-21,0.5604395604395572
2019-02-22,0.7878787878787885
2019-02-25,0.6666666666666665
2019-02-26,0.8593749999999993
2019-02-27,0.4426229508196711
2019-02-28,0.156250000000003
2019-03-01,0.25000000000000167
2019-03-04,0.253521126760564
2019-03-05,0.253521126760564
2019-03-06,0.5692307692307729
2019-03-07,0.8769230769230718
2019-03-08,0.8823529411764666
2019-03-11,0.8823529411764723
2019-03-12,0.8730158730158752
2019-03-13,0.507042253521128
2019-03-14,0.38596491228071506
2019-03-15,0.18867924528302665
2019-03-18,0.6499999999999976
2019-03-19,0.5446428571428551
2019-03-20,0.6630434782608638
2019-03-21,0.6249999999999939
2019-03-22,0.6395348837209334
2019-03-25,0.0
2019-03-26,0.2289156626506049
2019-03-27,0.5169491525423757
2019-03-28,0.4841269841269835
2019-03-29,0.49193548387096636
2019-04-01,0.7922077922077909
2019-04-02,0.4772727272727237
2019-04-03,0.0
2019-04-04,0.0
2019-04-08,0.0
2019-04-09,0.0
2019-04-10,0.0
2019-04-11,0.7631578947368506
2019-04-12,0.7435897435897488
2019-04-15,0.8055555555555513
2019-04-16,0.9154929577464793
2019-04-17,0.9780219780219748
2019-04-18,0.6666666666666649
2019-04-19,0.6315789473684174
2019-04-22,0.5714285714285707
2019-04-23,0.336673807709447
2019-04-24,0.06243649320561322
2019-04-25,0.37164388441158447
2019-04-26,0.5912753890044341
2019-04-29,0.9337098692033217
2019-04-30,0.4058454143732061
2019-05-06,0.44559962384108487
2019-05-07,0.42286983696675967
2019-05-08,0.30950030219873687
2019-05-09,0.22891566265060956
2019-05-10,0.7460317460317463
2019-05-13,0.48101265822784733
2019-05-14,0.40740740740740045
2019-05-15,0.47826086956520936
2019-05-16,0.4117647058823487
2019-05-17,0.0
2019-05-20,0.22222222222222324
2019-05-21,0.23076923076923733
2019-05-22,0.6129032258064587
2019-05-23,0.6404494382022481
2019-05-24,0.9324324324324333
2019-05-27,0.9264705882352947
2019-05-28,0.8999999999999908
2019-05-29,0.3529411764705861
2019-05-30,0.3103448275862094
2019-05-31,0.11999999999999804
2019-06-03,0.0
2019-06-04,0.18367346938775678
2019-06-05,0.3750000000000026
2019-06-06,0.6190476190476079
2019-06-10,0.5652173913043421
2019-06-11,0.6956521739130479
2019-06-12,0.38888888888888457
2019-06-13,0.7222222222222211
2019-06-14,0.8275862068965549
2019-06-17,0.9393939393939392
2019-06-18,0.6781609195402325
2019-06-19,0.7500000000000028
2019-06-20,0.530000000000004
2019-06-21,0.2783505154639169
2019-06-24,0.2134831460674143
2019-06-25,0.4588235294117605
2019-06-26,0.4177215189873385
2019-06-27,0.8368794326241102
2019-06-28,1.0
2019-07-01,0.9624060150375943
2019-07-02,0.9606299212598428
2019-07-03,0.8846153846153822
2019-07-04,0.2586206896551736
2019-07-05,0.11475409836065528
2019-07-08,0.11666666666666602
2019-07-09,0.24285714285714097
2019-07-10,0.24113475177304874
2019-07-11,0.48571428571428377
2019-07-12,0.9054054054054058
2019-07-15,0.9325153374233144
2019-07-16,0.6900584795321668
2019-07-17,0.772972972972975
2019-07-18,0.7951219512195137
2019-07-19,0.3818181818181832
2019-07-22,0.41379310344827547
2019-07-23,0.507042253521126
2019-07-24,0.34306569343065485
2019-07-25,0.1836734693877544
2019-07-26,0.20454545454545417
2019-07-29,0.0
2019-07-30,0.0874999999999996
2019-07-31,0.09999999999999973
2019-08-01,0.12280701754385943
2019-08-02,0.38202247191011096
2019-08-05,0.9393939393939377
2019-08-06,0.8135593220338987
2019-08-07,0.695652173913043
2019-08-08,0.7976190476190501
2019-08-09,0.6527777777777793
2019-08-12,0.32203389830509144
2019-08-13,0.3220338983050887
2019-08-14,0.34545454545454685
2019-08-15,0.0
2019-08-16,0.538461538461537
2019-08-19,0.7835051546391713
2019-08-20,0.849462365591395
2019-08-21,0.9384615384615385
2019-08-22,0.9918699186991877
2019-08-23,0.6956521739130456
2019-08-26,0.3560885608856124
2019-08-27,0.2975796330604221
2019-08-28,0.0
2019-08-29,0.0
2019-08-30,0.3506608631938182
2019-09-02,0.5142399524295876
2019-09-03,0.5750567087983057
2019-09-04,0.9052800806229073
2019-09-05,0.9670748178818951
2019-09-06,0.2524271844660223
2019-09-09,0.23762376237623603
2019-09-10,0.30188679245282923
2019-09-11,0.2884615384615366
2019-09-12,0.16822429906541966
2019-09-16,0.6052631578947383
2019-09-17,0.5714285714285792
2019-09-18,0.6739130434782665
2019-09-19,0.6739130434782662
2019-09-20,1.0
2019-09-23,1.0
2019-09-24,0.6181818181818147
2019-09-25,0.25423728813559043
2019-09-26,0.24137931034482102
2019-09-27,0.3230769230769249
2019-09-30,0.4698795180722885
2019-10-08,0.5820895522388104
2019-10-09,0.7222222222222182
2019-10-10,0.7499999999999979
2019-10-11,0.3209876543209839
2019-10-14,0.07865168539326059
2019-10-15,0.19791666666666596
2019-10-16,0.3020833333333355
2019-10-17,0.26373626373626535
2019-10-18,0.5714285714285747
2019-10-21,1.0
2019-10-22,0.6923076923076961
2019-10-23,0.40476190476190854
2019-10-24,0.590163934426231
2019-10-25,0.5370370370370401
2019-10-28,0.5901639344262343
2019-10-29,0.7058823529411791
2019-10-30,0.960784313725487
2019-10-31,0.4666666666666645
2019-11-01,0.3709677419354799
2019-11-04,0.2203389830508407
2019-11-05,0.2031249999999952
2019-11-06,0.20312500000000677
2019-11-07,0.5531914893617071
2019-11-08,0.509803921568635
2019-11-11,0.5306122448979682
2019-11-12,0.7746478873239442
2019-11-13,0.5454545454545404
2019-11-14,0.397260273972598
2019-11-15,0.5352112676056276
2019-11-18,0.6666666666666629
2019-11-19,0.5254237288135547
2019-11-20,0.8695652173913061
2019-11-21,0.9836065573770447
2019-11-22,0.9852941176470549
2019-11-25,0.60493827160494
2019-11-26,0.4368932038834996
2019-11-27,0.156862745098044
2019-11-28,0.15238095238095775
2019-11-29,0.0
2019-12-02,0.1304347826086948
2019-12-03,0.24999999999999845
2019-12-04,0.3529411764705883
2019-12-05,0.45283018867924396
2019-12-06,0.6315789473684184
2019-12-09,0.4137931034482737
2019-12-10,0.15789473684210467
2019-12-11,0.7093023255813955
2019-12-12,0.8076923076923079
2019-12-13,0.8646616541353397
2019-12-16,0.8582089552238799
2019-12-17,0.9583333333333288
2019-12-18,0.6593406593406519
2019-12-19,0.12499999999999538
2019-12-20,0.07894736842105672
2019-12-23,0.2413793103448279
2019-12-24,0.3674493732562657
2019-12-25,0.4018804841370673
2019-12-26,0.5539210754029743
2019-12-27,0.38609188693404184
2019-12-30,0.1918122227891837
2019-12-31,0.0
2020-01-02,0.0
2020-01-03,0.0
2020-01-06,0.2890820097892383
2020-01-07,0.38297872340425715
2020-01-08,0.6938775510204089
2020-01-09,0.7391304347826045
2020-01-10,0.6938775510203952
2020-01-13,0.44444444444443115
2020-01-14,0.6590909090909064
2020-01-15,0.3023255813953563
2020-01-16,0.30952380952382336
2020-01-17,0.3714285714285856
2020-01-20,0.4333333333333487
2020-01-21,0.05555555555552596
2020-01-22,0.6000000000000008
2020-01-23,0.7499999999999111
2020-02-03,1.0
2020-02-04,1.0
2020-02-05,1.0
2020-02-06,1.0
2020-02-07,1.0
2020-02-10,0.5479876160990712
2020-02-11,0.3771043771043763
2020-02-12,0.09352517985611344
2020-02-13,0.171052631578946
2020-02-14,0.09060402684563734
2020-02-17,0.25149700598802394
2020-02-18,0.27814569536423833
2020-02-19,0.3783783783783788
2020-02-20,0.14705882352941288
2020-02-21,0.17857142857142858
2020-02-24,0.0
2020-02-25,0.0
2020-02-26,0.22222222222222512
2020-02-27,0.2285714285714309
2020-02-28,0.43478260869565316
2020-03-02,0.3278688524590196
2020-03-03,0.42857142857142616
2020-03-04,0.6483516483516464
2020-03-05,0.8529411764705865
2020-03-06,0.7978723404255331
2020-03-09,0.9622641509433996
2020-03-10,0.9514563106796159
2020-03-11,0.4910714285714315
2020-03-12,0.2673267326732716
2020-03-13,0.2700000000000028
2020-03-16,0.0
2020-03-17,0.11000000000000378
2020-03-18,0.4861111111111159
2020-03-19,0.8165137614678909
2020-03-20,0.8425925925925953
2020-03-23,1.0
2020-03-24,1.0
2020-03-25,1.0
2020-03-26,1.0
2020-03-27,1.0
2020-03-30,0.8036809815950884
2020-03-31,0.7866666666666629
2020-04-01,0.7948717948717918
2020-04-02,0.5439560439560411
2020-04-03,0.09604519774011229
2020-04-07,0.10429447852760697
2020-04-08,0.09876543209876841
2020-04-09,0.006451612903228156
2020-04-10,0.03738317757009898
2020-04-13,0.677042317366921
2020-04-14,0.8376164241964374
2020-04-15,0.7658732190959987
2020-04-16,0.8711366369845616
2020-04-17,0.6727017493340978
2020-04-20,0.1598641812764204
2020-04-21,0.6432496545120141
2020-04-22,0.6060332675500397
2020-04-23,0.4763122645639793
2020-04-24,0.7263157894736864
2020-04-27,0.4620689655172421
2020-04-28,0.20714285714285857
2020-04-29,0.3221476510067137
2020-04-30,0.3265306122448994
2020-05-06,0.129251700680273
2020-05-07,0.17592592592592646
2020-05-08,0.2820512820512801
2020-05-11,0.03896103896103678
2020-05-12,0.04347826086956266
2020-05-13,0.05084745762711595
2020-05-14,0.3768115942028989
2020-05-15,0.3150684931506865
2020-05-18,0.37704918032787343
2020-05-19,0.5555555555555646
2020-05-20,0.8311688311688338
2020-05-21,0.8115942028985527
2020-05-22,0.9318181818181843
2020-05-25,1.0
2020-05-26,0.9210526315789436
2020-05-27,0.9032258064516095
2020-05-28,0.6721311475409771
2020-05-29,0.20833333333333576
2020-06-01,0.12658227848101616
2020-06-02,0.13698630136987303
2020-06-03,6.271238997077849e-15
2020-06-04,7.0775411538450934e-15
2020-06-05,0.2142857142857161
2020-06-08,0.6379310344827589
2020-06-09,0.6440677966101627
2020-06-10,0.9390243902439083
2020-06-11,1.0
2020-06-12,1.0
2020-06-15,0.6913216764018111
2020-06-16,0.7145275249304681
2020-06-17,0.5825862091037478
2020-06-18,0.7658478434676852
2020-06-19,0.7761181732041229
2020-06-22,1.0
2020-06-23,0.9919051946408187
2020-06-24,0.858707766852922
2020-06-29,0.5580221719389351
2020-06-30,0.4488448844884504
2020-07-01,0.0
2020-07-02,0.0
2020-07-03,0.0
2020-07-06,0.0
2020-07-07,0.0
2020-07-08,0.3362831858407041
2020-07-09,0.527253376580592
2020-07-10,0.5157012912979883
2020-07-13,0.6515279569414167
2020-07-14,0.9594352296666492
2020-07-15,0.6489646808701788
2020-07-16,0.4916386484605518
2020-07-17,0.5525866731317953
2020-07-20,0.5482042433387396
2020-07-21,0.23531498680751178
2020-07-22,0.421052631578948
2020-07-23,0.5925925925925932
2020-07-24,0.5887850467289729
2020-07-27,0.40000000000000185
2020-07-28,0.7164179104477642
2020-07-29,0.6111111111111152
2020-07-30,0.36170212765957926
2020-07-31,0.11764705882352991
2020-08-03,0.125
2020-08-04,0.7454545454545465
2020-08-05,0.791666666666667
2020-08-06,0.8544600938967125
2020-08-07,0.8625592417061616
2020-08-10,0.9442060085836917
2020-08-11,0.438914027149321
2020-08-12,0.31481481481481477
2020-08-13,0.19289340101522892
2020-08-14,0.262626262626262
2020-08-17,0.07329842931937047
2020-08-18,0.24137931034482407
2020-08-19,0.5841584158415818
2020-08-20,0.551401869158874
2020-08-21,0.5199999999999981
2020-08-24,0.7951807228915633
2020-08-25,0.8023255813953464
2020-08-26,0.3069306930693094
2020-08-27,0.464646464646468
2020-08-28,0.33333333333333476
2020-08-31,0.22123893805309716
2020-09-01,0.31249999999999956
2020-09-02,0.6634615384615342
2020-09-03,0.7499999999999957
2020-09-04,0.9253731343283541
2020-09-07,0.9117647058823563
2020-09-08,0.6470588235294124
2020-09-09,0.4794520547945206
2020-09-10,0.11445783132530077
2020-09-11,0.0
2020-09-14,0.06451612903225598
2020-09-15,0.08474576271186225
2020-09-16,0.18095238095238136
2020-09-17,0.6808510638297997
2020-09-18,0.8913043478260946
2020-09-21,0.897959183673478
2020-09-22,1.0
2020-09-23,0.777777777777771
2020-09-24,0.6444444444444322
2020-09-25,0.413852334924882
2020-09-28,0.1155395833817052
2020-09-29,0.0
2020-09-30,0.0
2020-10-09,0.4363431706535289
2020-10-12,0.5406494261280737
2020-10-13,0.7987381732086403
2020-10-14,0.9492979686525176
2020-10-15,1.0
2020-10-16,0.49999999999999406
2020-10-19,0.5505617977528083
2020-10-20,0.39325842696629015
2020-10-21,0.35714285714286054
2020-10-22,0.5178571428571472
2020-10-23,0.7631578947368486
2020-10-26,0.626865671641793
2020-10-27,0.7962962962962977
2020-10-28,0.4166666666666687
2020-10-29,0.016949152542375296
2020-10-30,0.18181818181817813
2020-11-02,0.38157894736842346
2020-11-03,0.4534883720930251
2020-11-04,0.7575757575757603
2020-11-05,0.8928571428571378
2020-11-06,0.9220779220779187
2020-11-09,0.6067415730337057
2020-11-10,0.58333333333333
2020-11-11,0.43181818181817844
2020-11-12,0.5728155339805807
2020-11-13,0.23684210526315608
2020-11-16,0.36263736263736285
2020-11-17,0.28125000000000294
2020-11-18,0.34146341463415136
2020-11-19,0.2602739726027427
2020-11-20,0.9051724137931068
2020-11-23,0.9059829059829086
2020-11-24,1.0
2020-11-25,1.0
2020-11-26,0.7777777777777787
2020-11-27,0.4520547945205434
2020-11-30,0.500000000000003
2020-12-01,0.622641509433968
2020-12-02,0.685039370078745
2020-12-03,0.9495798319327743
2020-12-04,1.0
2020-12-07,1.0
2020-12-08,1.0
2020-12-09,1.0
2020-12-10,1.0
2020-12-11,0.626666666666666
2020-12-14,0.3823529411764716
2020-12-15,0.20216606498194975
2020-12-16,0.16467372072313705
2020-12-17,0.0
2020-12-18,0.0
2020-12-21,0.26692329228813716
2020-12-22,0.4926193626320564
2020-12-23,0.6756364577931151
2020-12-24,0.8641331679476572
2020-12-25,1.0
2020-12-28,1.0
2020-12-29,0.7837259100642393
2020-12-30,0.5720524017467241
2020-12-31,0.49222797927461037
2021-01-04,0.31898734177215166
2021-01-05,0.014018691588784991
2021-01-06,0.1726804123711348
2021-01-07,0.3858695652173917
2021-01-08,0.4554216867469882
2021-01-11,0.6577181208053688
2021-01-12,1.0
2021-01-13,1.0
2021-01-14,0.7729257641921394
2021-01-15,0.8225255972696245
2021-01-18,0.566666666666667
2021-01-19,0.5937500000000004
2021-01-20,0.4715189873417733
2021-01-21,0.6695402298850582
2021-01-22,0.2781774580335733
2021-01-25,0.2982005141388176
2021-01-26,0.22163588390501282
2021-01-27,0.24207492795388935
2021-01-28,0.0
2021-01-29,0.46086956521739
2021-02-01,0.5120772946859882
2021-02-02,0.6069651741293507
2021-02-03,0.6815642458100559
2021-02-04,0.9537037037037033
2021-02-05,0.6896551724137923
2021-02-08,0.5882352941176485
2021-02-09,0.4516129032258072
2021-02-10,0.602564102564103
2021-02-18,0.2435897435897443
2021-02-19,0.22619047619047677
2021-02-22,0.4815950920245402
2021-02-23,0.5215946843853823
2021-02-24,0.4146341463414639
2021-02-25,0.7379912663755434
2021-02-26,0.9745454545454536
2021-03-01,0.8442211055276354
2021-03-02,0.9073359073359063
2021-03-03,0.8825757575757571
2021-03-04,0.6080586080586102
2021-03-05,0.5614754098360684
2021-03-08,0.5732217573221793
2021-03-09,0.3825136612021885
2021-03-10,0.6159420289855098
2021-03-11,0.8846153846153848
2021-03-12,0.5498281786941585
2021-03-15,0.6151202749140895
2021-03-16,0.5966666666666662
2021-03-17,0.22832369942196495
2021-03-18,0.05919003115264799
2021-03-19,0.08520179372197303
2021-03-22,0.11304347826087033
2021-03-23,0.11255411255411366
2021-03-24,0.46846846846846935
2021-03-25,0.5098039215686307
2021-03-26,0.3661971830985939
2021-03-29,0.16049382716049268
2021-03-30,0.1677419354838695
2021-03-31,0.0
2021-04-01,0.0
2021-04-02,0.0
2021-04-06,0.0
2021-04-07,0.0
2021-04-08,0.2654867256637172
2021-04-09,0.3577981651376147
2021-04-12,0.5342465753424666
2021-04-13,0.2846715328467135
2021-04-14,0.4790419161676611
2021-04-15,0.5372340425531889
2021-04-16,0.6813186813186799
2021-04-19,0.7553638679690433
2021-04-20,1.0
2021-04-21,0.8289432171406913
2021-04-22,0.5592127955601569
2021-04-23,0.12374681159053291
2021-04-26,0.026812368061592096
2021-04-27,0.22860652542806484
2021-04-28,0.247985911703278
2021-04-29,0.5349138521904317
2021-04-30,0.8613138686131379
2021-05-06,0.8908045977011487
2021-05-07,0.8869047619047613
2021-05-10,1.0
2021-05-11,0.7734806629834255
2021-05-12,0.8452830188679245
2021-05-13,0.9110629067245118
2021-05-14,0.9229323308270675
2021-05-17,0.9179999999999998
2021-05-18,1.0
2021-05-19,0.8707627118644065
2021-05-20,0.4755434782608698
2021-05-21,0.21381578947368512
2021-05-24,0.2600619195046455
2021-05-25,0.21122112211221053
2021-05-26,0.1963190184049071
2021-05-27,0.23616236162361465
2021-05-28,0.20915032679738407
2021-05-31,0.10429447852760623
2021-06-01,0.0
2021-06-02,0.0
2021-06-03,0.14847161572052486
2021-06-04,0.39682539682539725
2021-06-07,0.4716981132075449
2021-06-08,0.6000000000000046
2021-06-09,0.48076923076923134
2021-06-10,0.175965665236051
2021-06-11,0.0
2021-06-15,0.1376811594202916
2021-06-16,0.17760617760617695
2021-06-17,0.3678571428571442
2021-06-18,0.7391304347826092
2021-06-21,1.0
2021-06-22,0.7075471698113182
2021-06-23,0.570281124497991
2021-06-24,0.3863636363636334
2021-06-25,0.15624999999999703
2021-06-28,0.16149068322981158
2021-06-29,0.2280701754385943
2021-06-30,0.3466666666666639
2021-07-01,0.8220338983050864
2021-07-02,0.3509615384615396
2021-07-05,0.3256880733944962
2021-07-06,0.5018867924528307
2021-07-07,0.5547703180212017
2021-07-08,0.40566037735848987
2021-07-09,0.9016393442622914
2021-07-12,0.9999999999999963
2021-07-13,0.5083333333333334
2021-07-14,0.7035175879396968
2021-07-15,0.5363984674329514
2021-07-16,0.5912162162162152
2021-07-19,0.5510204081632646
2021-07-20,0.7159533073929975
2021-07-21,0.4196891191709848
2021-07-22,0.44505494505494264
2021-07-23,0.14379084967320577
2021-07-26,0.14379084967320485
2021-07-27,0.09655172413792566
2021-07-28,0.17857142857142347
2021-07-29,0.4459459459459436
2021-07-30,0.6111111111110961
2021-08-02,0.7959183673469339
2021-08-03,0.7297297297297348
2021-08-04,0.18421052631580048
2021-08-05,0.23140495867769278
2021-08-06,0.20289855072464544
2021-08-09,0.40217391304348193
2021-08-10,0.3564356435643566
2021-08-11,0.6594202898550717
2021-08-12,0.5298507462686578
2021-08-13,0.7707006369426723
2021-08-16,0.4758620689655154
2021-08-17,0.6113597485931933
2021-08-18,0.47213008804234
2021-08-19,0.6032482263354865
2021-08-20,0.28118828008877833
2021-08-23,0.6665187690541724
2021-08-24,0.679035849873876
2021-08-25,0.7915273524138912
2021-08-26,0.7804106840635764
2021-08-27,1.0
2021-08-30,0.9848484848484921
2021-08-31,0.9848484848484919
2021-09-01,0.9865771812080599
2021-09-02,0.9932432432432464
2021-09-03,0.9946666666666691
2021-09-06,0.8555045871559624
2021-09-07,0.8492822966507175
2021-09-08,0.773778920308484
2021-09-09,0.6348547717842389
2021-09-10,0.1075268817204475
2021-09-13,0.5401785714285748
2021-09-14,0.5672268907563033
2021-09-15,0.7705882352941164
2021-09-16,0.8160377358490541
2021-09-17,1.0
2021-09-22,0.7028423772609812
2021-09-23,0.4979999999999989
2021-09-24,0.8368010403120943
2021-09-27,0.8626914660831516
2021-09-28,0.8849679193400556
2021-09-29,0.9496855345911951
2021-09-30,1.0
2021-10-08,0.6905548216644649
2021-10-11,0.6000703482237075
2021-10-12,0.5212431156569631
2021-10-13,0.41602687140115163
2021-10-14,0.1144694533762054
2021-10-15,0.25985401459853963
2021-10-18,0.36550308008213384
2021-10-19,0.7240963855421674
2021-10-20,0.29957507082153
2021-10-21,0.5606783253842081
2021-10-22,0.5838339705079194
2021-10-25,0.6025104602510468
2021-10-26,0.38067885117493505
2021-10-27,0.6946236559139776
2021-10-28,0.399999999999999
2021-10-29,0.401433691756271
2021-11-01,0.2463485881207383
2021-11-02,0.4093851132686061
2021-11-03,0.2714570858283438
2021-11-04,0.10941271118262288
2021-11-05,0.08779443254818026
2021-11-08,0.0995951417004052
2021-11-09,0.07463592233009744
2021-11-10,0.0
2021-11-11,0.0
2021-11-12,0.0
2021-11-15,0.0
2021-11-16,0.19453376205787837
2021-11-17,0.36227544910179654
2021-11-18,0.2958435207823943
2021-11-19,0.302499999999999
2021-11-22,0.3209549071618029
2021-11-23,0.3502538071065967
2021-11-24,0.3631578947368402
2021-11-25,0.39204545454545464
2021-11-26,0.6525821596244145
2021-11-29,0.7986725663716826
2021-11-30,0.5645569620253187
2021-12-01,0.7399617590822203
2021-12-02,0.7962962962962966
2021-12-03,0.5167364016736413
2021-12-06,0.46896551724138086
2021-12-07,0.44060475161987084
2021-12-08,0.10840108401083988
2021-12-09,0.09615384615384612
2021-12-10,0.13468013468013407
2021-12-13,0.0
2021-12-14,0.0
2021-12-15,0.0
2021-12-16,0.0
2021-12-17,0.03174603174602917
2021-12-20,0.11851851851851342
2021-12-21,0.11940298507462137
2021-12-22,0.8345152247591235
2021-12-23,0.9116853673765045
2021-12-24,0.7538653838074052
2021-12-27,0.6676924880565114
2021-12-28,0.6318431648091596
2021-12-29,0.13447992832887284
2021-12-30,0.07782572661541663
2021-12-31,0.1317027217979359
2022-01-04,0.1354786015380053
2022-01-05,0.15231788079470415
2022-01-06,0.19827586206896933
2022-01-07,0.06930693069307119
2022-01-10,0.2932330827067668
2022-01-11,0.31707317073170593
2022-01-12,0.35135135135134954
2022-01-13,0.9473684210526316
2022-01-14,0.8684210526315794
2022-01-17,0.8739495798319337
2022-01-18,0.9371069182389951
2022-01-19,0.9504950495049515
2022-01-20,0.5653266331658275
2022-01-21,0.6607538802660727
2022-01-24,0.5804195804195765
2022-01-25,0.3868613138686101
2022-01-26,0.1946666666666644
2022-01-27,0.313304721030042
2022-01-28,0.10112359550561914
2022-02-07,0.1582278481012686
2022-02-08,0.5850340136054428
2022-02-09,0.8514851485148617
2022-02-10,0.9587628865979426
2022-02-11,0.9615384615384654
2022-02-14,0.7622950819672107
2022-02-15,0.25396825396825234
2022-02-16,0.4117647058823503
2022-02-17,0.3499999999999983
2022-02-18,0.21527777777777948
2022-02-21,0.24218750000000383
2022-02-22,0.8139534883721041
2022-02-23,0.6942675159235747
2022-02-24,0.7888198757764006
2022-02-25,0.9113475177304953
2022-02-28,0.921146953405014
2022-03-01,0.7363184079601979
2022-03-02,0.8082901554404173
2022-03-03,0.7666666666666769
2022-03-04,0.03404255319149298
2022-03-07,0.46875000000000466
2022-03-08,0.6729776247848559
2022-03-09,0.7281831187410602
2022-03-10,0.7843822843822844
2022-03-11,1.0
2022-03-14,0.7283236994219651
2022-03-15,0.5016286644951121
2022-03-16,0.2998352553541997
2022-03-17,0.03180212014134262
2022-03-18,0.0
2022-03-21,0.0
2022-03-22,0.0
2022-03-23,0.0
2022-03-24,0.0
2022-03-25,0.4444444444444459
2022-03-28,0.5078369905956123
2022-03-29,0.6206896551724203
2022-03-30,0.8773584905660502
2022-03-31,0.9529411764705963
2022-04-01,0.9117647058823672
2022-04-06,0.9263803680981719
2022-04-07,0.8988095238095171
2022-04-08,0.944983818770222
2022-04-11,0.9467084639498387
2022-04-12,0.6864608076009481
2022-04-13,0.5510688836104474
2022-04-14,0.5924170616113736
2022-04-15,0.3949278547589973
2022-04-18,0.17226761253321496
2022-04-19,0.6006665295146529
2022-04-20,0.7071305259184203
2022-04-21,0.5364423825038146
2022-04-22,0.28517708608072534
2022-04-25,0.41884229122261746
2022-04-26,0.1344771437608516
2022-04-27,0.3548853078995265
2022-04-28,0.42942345924452985
2022-04-29,0.6084507042253459
2022-05-05,0.4266666666666567
2022-05-06,0.73780487804877
2022-05-09,0.30898876404493897
2022-05-10,0.2743362831858359
2022-05-11,0.33521126760563075
2022-05-12,0.45945945945946126
2022-05-13,0.18430034129693207
2022-05-16,0.3000000000000074
2022-05-17,0.22994652406418173
2022-05-18,0.09659090909091778
2022-05-19,0.0
2022-05-20,0.0
2022-05-23,0.33139534883720656
2022-05-24,0.33333333333332843
2022-05-25,0.34969325153373804
2022-05-26,0.3149171270718207
2022-05-27,0.5304878048780511
2022-05-30,0.21428571428572046
2022-05-31,0.17964071856288094
2022-06-01,0.3719806763285093
2022-06-02,0.40957446808511255
2022-06-06,0.2526881720430131
2022-06-07,0.3908045977011523
2022-06-08,0.7519999999999974
2022-06-09,0.7019230769230749
2022-06-10,0.87214611872146
2022-06-13,1.0
2022-06-14,1.0
2022-06-15,0.7888446215139471
2022-06-16,0.6819787985865711
2022-06-17,0.5121107266436005
2022-06-20,0.2578947368421068
2022-06-21,0.02380952380952547
2022-06-22,0.03007518796992684
2022-06-23,0.03703703703704019
2022-06-24,0.2638888888888867
2022-06-27,0.10563380281689631
2022-06-28,0.22388059701491864
2022-06-29,0.2040816326530546
2022-06-30,0.2112676056337941
2022-07-01,0.11029411764705592
2022-07-04,0.6987179487179478
2022-07-05,0.5136612021857927
2022-07-06,0.7819548872180453
2022-07-07,0.7647058823529423
2022-07-08,0.8160535117056847
2022-07-11,0.48076923076922956
2022-07-12,0.5588235294117632
2022-07-13,0.1696428571428536
2022-07-14,0.2851239669421462
2022-07-15,0.2064220183486243
2022-07-18,0.5540540540540524
2022-07-19,0.4705882352941166
2022-07-20,0.7777777777777791
2022-07-21,0.6091954022988544
2022-07-22,0.390476190476193
2022-07-25,0.47107438016529307
2022-07-26,0.8029556650246318
2022-07-27,0.8029556650246308
2022-07-28,0.6965811965811968
2022-07-29,0.8193832599118949
2022-08-01,0.5384615384615381
2022-08-02,0.12385321100917272
2022-08-03,0.0942622950819671
2022-08-04,0.1705069124423945
2022-08-05,0.060606060606058894
2022-08-08,0.0717948717948698
2022-08-09,0.21804511278195196
2022-08-10,0.2457627118644038
2022-08-11,0.3819444444444436
2022-08-12,0.603053435114503
2022-08-15,0.8863636363636365
2022-08-16,0.8499999999999978
2022-08-17,0.9829532908392321
2022-08-18,0.7433801327955862
2022-08-19,0.6541595397294371
2022-08-22,0.6593610243215112
2022-08-23,0.5177790740328717
2022-08-24,0.18758352860798744
2022-08-25,0.5020586734073839
2022-08-26,0.6533888051780309
2022-08-29,0.6142395116087903
2022-08-30,0.7560975609756093
2022-08-31,0.9559471365638785
2022-09-01,0.6810810810810826
2022-09-02,0.234133518110421
2022-09-05,0.1583077447969995
2022-09-06,0.0
2022-09-07,0.0
2022-09-08,0.07758549706318306
2022-09-09,0.27167259586132747
2022-09-13,0.5323002301874402
2022-09-14,0.8334601936789174
2022-09-15,1.0
2022-09-16,0.638743455497381
2022-09-19,0.4697674418604632
2022-09-20,0.3577586206896534
2022-09-21,0.28019323671497604
2022-09-22,0.3521739130434793
2022-09-23,0.6059113300492618
2022-09-26,0.7965116279069787
2022-09-27,1.0
2022-09-28,0.9432624113475174
2022-09-29,0.359116022099448
2022-09-30,0.1714285714285759
2022-10-10,0.14074074074073759
2022-10-11,0.16546762589927955
2022-10-12,0.13438940877306213
2022-10-13,0.7266399788208692
2022-10-14,0.5441393538558934
2022-10-17,0.38903901840258415
2022-10-18,0.28053116701502473
2022-10-19,0.305929400377686
2022-10-20,0.0
2022-10-21,0.11158387178160373
2022-10-24,0.24518971335604411
2022-10-25,0.5934632881795283
2022-10-26,0.6120451871826758
2022-10-27,0.8179388699554518
2022-10-28,0.7124452039879151
2022-10-31,0.6755294997462628
2022-11-01,0.12299622001079664
2022-11-02,0.5888363791759882
2022-11-03,0.8452932781557929
2022-11-04,0.9230037396030564
2022-11-07,0.7885714285714307
2022-11-08,0.7379679144385047
2022-11-09,0.5975609756097602
2022-11-10,0.20238095238095388
2022-11-11,0.0
2022-11-14,0.22950819672131065
2022-11-15,0.41206030150753736
2022-11-16,0.4456521739130401
2022-11-17,0.6119402985074578
2022-11-18,0.827586206896545
2022-11-21,0.8095238095238038
2022-11-22,0.8113207547169768
2022-11-23,0.66666666666667
2022-11-24,0.8456790123456814
2022-11-25,0.8466257668711675
2022-11-28,0.5323383084577121
2022-11-29,0.35483870967741665
2022-11-30,0.499999999999994
2022-12-01,0.29931972789114897
2022-12-02,0.2993197278911534
2022-12-05,0.774834437086091
2022-12-06,0.6763005780346865
2022-12-07,0.6923076923076993
2022-12-08,0.7200000000000035
2022-12-09,0.6132596685082917
2022-12-12,0.24836601307189926
2022-12-13,0.5214285714285749
2022-12-14,0.29914529914530114
2022-12-15,0.28225806451613
2022-12-16,0.3982300884955666
2022-12-19,0.8454157393556776
2022-12-20,0.6304832774686208
2022-12-21,0.5326689183107326
2022-12-22,0.6202034709155654
2022-12-23,0.6638285290961685
2022-12-26,0.3129345400476492
2022-12-27,0.33548087496559614
2022-12-28,0.48375044845545606
2022-12-29,0.5004332152653357
2022-12-30,0.2682926829268277
2023-01-03,0.25581395348837066
2023-01-04,0.47393364928910076
2023-01-05,0.44776119402985454
2023-01-06,0.24279835390946777
2023-01-09,0.2970297029702959
2023-01-10,0.503401360544219
2023-01-11,0.12765957446808607
2023-01-12,0.10791366906474681
2023-01-13,0.2205882352941163
2023-01-16,0.12500000000000638
2023-01-17,0.37179487179487075
2023-01-18,0.49152542372881525
2023-01-19,0.581560283687948
2023-01-20,0.5324675324675321
2023-01-30,0.8778280542986403
2023-01-31,0.8448275862068945
2023-02-01,0.9313529195439846
2023-02-02,0.8837614615682496
2023-02-03,0.9554844424482858
2023-02-06,0.34656358166771717
2023-02-07,0.23094962226281768
2023-02-08,0.01838737757027414
2023-02-09,0.017754544253479353
2023-02-10,0.0967786047261933
2023-02-13,0.27564142745857956
2023-02-14,0.44400071664287494
2023-02-15,0.8178894961353285
2023-02-16,1.0
2023-02-17,0.6808510638297863
2023-02-20,0.3402061855670052
2023-02-21,0.20879120879120433
2023-02-22,0.5167785234899346
2023-02-23,0.39053254437870155
2023-02-24,0.5379746835443063
2023-02-27,0.8030303030303051
2023-02-28,0.7535545023696691
2023-03-01,0.657894736842105
2023-03-02,0.7407407407407384
2023-03-03,0.5744680851063784
2023-03-06,0.08333333333333083
2023-03-07,0.09859154929577132
2023-03-08,0.0
2023-03-09,0.18110236220472542
2023-03-10,0.43165467625899373
2023-03-13,0.33333333333333504
2023-03-14,0.4256410256410271
2023-03-15,0.5763888888888903
2023-03-16,0.6257668711656438
2023-03-17,0.4088050314465397
2023-03-20,0.5963302752293539
2023-03-21,0.41999999999999554
2023-03-22,0.4387755102040801
2023-03-23,0.010526315789477544
2023-03-24,0.5
2023-03-27,0.5923076923076945
2023-03-28,0.6637931034482812
2023-03-29,0.7891891891891906
2023-03-30,0.9299363057324845
2023-03-31,0.5149700598802437
2023-04-03,0.5090909090909097
2023-04-04,0.477272727272724
2023-04-06,0.08045977011493875
2023-04-07,0.2587064676616892
2023-04-10,0.38805970149253416
2023-04-11,0.3643410852713187
2023-04-12,0.44531250000000266
2023-04-13,0.8678008590269692
2023-04-14,0.337225265136886
2023-04-17,0.6754948183126704
2023-04-18,0.7424954045472829
2023-04-19,0.6718124258013417
2023-04-20,0.7705015096700033
2023-04-21,0.936599701218027
2023-04-24,0.5465374383946019
2023-04-25,0.2885931708726323
2023-04-26,0.35443037974683267
2023-04-27,0.12925170068026828
2023-04-28,0.0723684210526281
2023-05-04,0.40472867862371725
2023-05-05,0.5534344279603016
2023-05-08,0.5549762294443175
2023-05-09,0.587814300572887
2023-05-10,0.6605107180291045
2023-05-11,0.1542754353456238
2023-05-12,0.48367902074124436
2023-05-15,0.37069109075770085
2023-05-16,0.5553811886200225
2023-05-17,0.47368421052631643
2023-05-18,0.7096774193548413
2023-05-19,0.5168539325842761
2023-05-22,0.8152866242038276
2023-05-23,0.7588652482269557
2023-05-24,0.917241379310348
2023-05-25,0.7152317880794715
2023-05-26,0.679245283018865
2023-05-29,0.1805555555555549
2023-05-30,0.17931034482758637
2023-05-31,0.25625000000000125
2023-06-01,0.29927007299270264
2023-06-02,0.35566580925093877
2023-06-05,0.5561694818207883
2023-06-06,0.6451390990891839
2023-06-07,0.25570517041712904
2023-06-08,0.5566428044153732
2023-06-09,0.449742784092657
2023-06-12,0.7600943369420001
2023-06-13,0.6989085318985337
2023-06-14,0.6779195991888319
2023-06-15,0.3103448275862049
2023-06-16,0.2903225806451606
2023-06-19,0.0
2023-06-20,0.0
2023-06-21,0.0
2023-06-26,0.5666666666666652
2023-06-27,0.7473722431640533
2023-06-28,0.6296573979930171
2023-06-29,0.6822538059035493
2023-06-30,0.877829852926224
2023-07-03,0.6374220558756754
2023-07-04,0.4459709592912788
2023-07-05,0.5367120700336188
2023-07-06,0.48543094089534644
2023-07-07,0.04705437552960306
2023-07-10,0.1438848920863302
2023-07-11,0.3548387096774153
2023-07-12,0.2950819672131093
2023-07-13,0.4661654135338333
2023-07-14,0.6813186813186848
2023-07-17,0.7040816326530669
2023-07-18,0.4411764705882448
2023-07-19,0.6577181208053757
2023-07-20,0.514285714285719
2023-07-21,0.5760000000000002
2023-07-24,0.46902654867256494
2023-07-25,0.6279069767441805
2023-07-26,0.01176470588235083
2023-07-27,0.29473684210526213
2023-07-28,0.4100000000000006
2023-07-31,0.38317757009345743
2023-08-01,0.42105263157895045
2023-08-02,0.9243243243243238
2023-08-03,0.8888888888888857
2023-08-04,0.8934911242603519
2023-08-07,0.9617834394904432
2023-08-08,0.9615384615384587
2023-08-09,0.1901408450704177
2023-08-10,0.17532467532467158
2023-08-11,0.04430379746835118
2023-08-14,0.26960784313725267
2023-08-15,0.23880597014925328
2023-08-16,0.47999999999999954
2023-08-17,0.505263157894736
2023-08-18,0.6233766233766244
2023-08-21,0.0
2023-08-22,0.0
2023-08-23,0.0
2023-08-24,0.24590163934426487
2023-08-25,0.24672928391948007
2023-08-28,0.4219422663738362
2023-08-29,0.39841293606827155
2023-08-30,0.5090241313018272
2023-08-31,0.0
2023-09-01,0.19824015378632104
2023-09-04,0.16472545757073292
2023-09-05,0.2129184887805727
2023-09-06,0.19143998968674625
2023-09-07,0.7499999999999999
2023-09-08,0.8313253012048174
2023-09-11,0.7931034482758599
2023-09-12,0.7906976744185983
2023-09-13,0.8803418803418757
2023-09-14,0.7976190476190327
2023-09-15,0.7901234567901069
2023-09-18,0.9014084507042124
2023-09-19,0.9469696969696927
2023-09-20,0.8035714285714216
2023-09-21,0.7200000000000053
2023-09-22,0.47656250000000283
2023-09-25,0.6460674157303391
2023-09-26,0.3354037267080772
2023-09-27,0.3600000000000025
2023-09-28,0.4121384266218883
2023-10-09,0.6006595473911367
2023-10-10,0.18935984099830158
2023-10-11,0.45492530674911874
2023-10-12,0.5744918429917878
2023-10-13,0.4020727704448623
2023-10-16,0.186101332452324
2023-10-17,0.17283643480280034
2023-10-18,0.09274340983137926
2023-10-19,0.0
2023-10-20,0.0975609756097596
2023-10-23,0.2604166666666701
2023-10-24,0.457627118644065
2023-10-25,0.37499999999999795
2023-10-26,0.5762711864406777
2023-10-27,0.37288135593219446
2023-10-30,0.13235294117646193
2023-10-31,0.4866475590283569
2023-11-01,0.6601737193508137
2023-11-02,0.5252192926439221
2023-11-03,0.6325002359266536
2023-11-06,0.843954936039146
2023-11-07,0.8332439612034365
2023-11-08,0.8319340706961798
2023-11-09,1.0
2023-11-10,1.0
2023-11-13,1.0
2023-11-14,0.43703703703703983
2023-11-15,0.4647887323943682
2023-11-16,0.4285714285714325
2023-11-17,0.4198473282442764
2023-11-20,0.22222222222222082
2023-11-21,0.9803921568627405
2023-11-22,0.5762711864406773
2023-11-23,0.5689655172413828
2023-11-24,0.3717948717948784
2023-11-27,0.22656250000000577
2023-11-28,0.007352941176475678
2023-11-29,0.008196721311481083
2023-11-30,0.0162601626016203
2023-12-01,0.23015873015872196
2023-12-04,0.4249999999999892
2023-12-05,0.8850574712643691
2023-12-06,0.9871794871794887
2023-12-07,0.9894736842105276
2023-12-08,0.9900990099009914
2023-12-11,0.9908256880733957
2023-12-12,0.6701030927835074
2023-12-13,0.7737226277372276
2023-12-14,0.5838926174496667
2023-12-15,0.350649350649351
2023-12-18,0.25000000000000133
2023-12-19,0.31851851851851853
2023-12-20,0.014925373134326339
2023-12-21,0.09009009009008546
2023-12-22,0.12345679012345126
2023-12-25,0.16393442622949952
2023-12-26,0.4999999999999979
2023-12-27,0.6763689320388292
2023-12-28,0.6501028676995391
2023-12-29,0.5449921683884438
2024-01-02,0.622550263207967
2024-01-03,0.1660150678725526
2024-01-04,0.35851354985683787
2024-01-05,0.3275843299482212
2024-01-08,0.5469012521794338
2024-01-09,0.4039831057126145
2024-01-10,0.4382022471910128
2024-01-11,0.22988505747126392
2024-01-12,0.22727272727272566
2024-01-15,0.0
2024-01-16,0.0
2024-01-17,0.3855421686746964
2024-01-18,0.5584415584415566
2024-01-19,0.5443037974683496
2024-01-22,0.7027027027026936
2024-01-23,0.8939393939393855
2024-01-24,0.5999999999999922
2024-01-25,0.5609756097560838
2024-01-26,0.8070175438596507
2024-01-29,0.6851851851851908
2024-01-30,0.7462686567164255
2024-01-31,0.936842105263161
2024-02-01,0.9342863111402943
2024-02-02,0.6616574713530644
2024-02-05,0.6107208674981949
2024-02-06,0.3850153334931406
2024-02-07,0.02434830317953134
2024-02-08,0.1319228227674012
2024-02-19,0.19710850957557827
2024-02-20,0.3027074283528654
2024-02-21,0.5378014211936465
2024-02-22,1.0
2024-02-23,0.592920353982301
2024-02-26,0.5700934579439263
2024-02-27,0.45631067961165217
2024-02-28,0.12244897959183625
2024-02-29,0.0
2024-03-01,0.10204081632652479
2024-03-04,0.4054054054054069
2024-03-05,0.4477611940298517
2024-03-06,0.7894736842105279
2024-03-07,0.8918918918918939
2024-03-08,0.7368421052631683
2024-03-11,0.09677419354839663
2024-03-12,0.09090909090909935
2024-03-13,0.14705882352941377
2024-03-14,0.04545454545454033
2024-03-15,0.30769230769230504
2024-03-18,0.47058823529411475
2024-03-19,0.7936507936507917
2024-03-20,0.8115942028985508
2024-03-21,1.0
2024-03-22,1.0
2024-03-25,1.0
2024-03-26,1.0
2024-03-27,0.9999999999999895
2024-03-28,0.931034482758601
2024-03-29,0.5142857142857219
2024-04-01,0.7343750000000002
2024-04-02,0.3908045977011455
2024-04-03,0.34343434343434315
2024-04-08,0.4375000000000025
2024-04-09,0.5555555555555555
2024-04-10,0.2407407407407416
2024-04-11,0.37837837837838306
2024-04-12,0.7046747836543623
2024-04-15,0.6660920656501893
2024-04-16,0.6321645403728365
2024-04-17,0.9760085890077298
2024-04-18,0.9830478802556004
2024-04-19,0.3903952904288883
2024-04-22,0.46320608536413843
2024-04-23,0.6453678283932855
2024-04-24,0.768599130641748
2024-04-25,0.7540983606557384
2024-04-26,1.0
2024-04-29,1.0
2024-04-30,1.0
2024-05-06,0.8440589294104491
2024-05-07,0.7767030658763137
2024-05-08,0.6163856226668663
2024-05-09,0.6341045463218702
2024-05-10,0.12658210501974157
2024-05-13,0.3191801814409193
2024-05-14,0.49369034636221076
2024-05-15,0.5076142131979692
2024-05-16,0.49479166666666574
2024-05-17,0.9672131147540997
2024-05-20,0.6692913385826782
2024-05-21,0.5714285714285754
2024-05-22,0.4628099173553769
2024-05-23,0.34210526315790224
2024-05-24,0.4140625000000022
2024-05-27,0.644230769230774
2024-05-28,0.4594594594594605
2024-05-29,0.554347826086955
2024-05-30,0.8502415458937183
2024-05-31,0.8739837398373973
2024-06-03,0.9275700934579433
2024-06-04,0.9805825242718442
2024-06-05,1.0
2024-06-06,0.7334801762114543
2024-06-07,0.5343035343035354
2024-06-11,0.14055299539170651
2024-06-12,0.11688311688311695
2024-06-13,0.1690427698574336
2024-06-14,0.20048309178743917
2024-06-17,0.22802197802197705
2024-06-18,0.3192307692307665
2024-06-19,0.6263157894736819
2024-06-20,0.36470588235294005
2024-06-21,0.43499999999999917
2024-06-24,0.531165311653116
2024-06-25,0.5399449035812682
2024-06-26,0.1099195710455774
2024-06-27,0.16599190283400977
2024-06-28,0.08494208494208563
2024-07-01,0.012499999999999808
2024-07-02,0.03883495145631161
2024-07-03,0.15384615384615605
2024-07-04,0.14545454545454775
2024-07-05,0.5428571428571352
2024-07-08,0.5675675675675644
2024-07-09,0.7460317460317394
2024-07-10,0.9090909090909113
2024-07-11,0.9259259259259268
2024-07-12,0.7647058823529469
2024-07-15,0.5573770491803302
2024-07-16,0.042857142857148124
2024-07-17,0.0
2024-07-18,0.0
2024-07-19,0.0
2024-07-22,0.0
2024-07-23,0.5084745762711821
2024-07-24,0.44117647058823745
2024-07-25,0.688073394495415
2024-07-26,0.883495145631068
2024-07-29,0.7583333333333367
2024-07-30,0.8187500000000012
2024-07-31,0.8846153846153847
2024-08-01,0.8448275862068968
2024-08-02,0.9108910891089114
2024-08-05,1.0
2024-08-06,0.6736401673640202
2024-08-07,0.716363636363639
2024-08-08,0.774566473988441
2024-08-09,0.49258160237388815
2024-08-12,0.3562874251497003
2024-08-13,0.44569288389512957
2024-08-14,0.311475409836064
2024-08-15,0.0
2024-08-16,0.0
2024-08-19,0.029899537553818703
2024-08-20,0.06683026584866955
2024-08-21,0.07144106330884803
2024-08-22,0.4456482484651367
2024-08-23,0.6068355052864421
2024-08-26,0.5179378956888631
2024-08-27,0.1790852480137329
2024-08-28,0.17142857142856252
2024-08-29,0.3695652173913087
2024-08-30,0.46938775510204517
2024-09-02,0.46240610823273026
2024-09-03,0.5333695527850834
2024-09-04,0.4464576352321691
2024-09-05,0.08576262822094528
2024-09-06,0.0
2024-09-09,0.0
2024-09-10,0.2469208457690523
2024-09-11,0.48142162624211793
2024-09-12,0.8216837637071097
2024-09-13,0.8987341772151906
2024-09-18,0.9220779220779263
2024-09-19,0.9469026548672598
2024-09-20,0.9464285714285746
2024-09-23,0.9449541284403703
2024-09-24,0.9464285714285746
2024-09-25,1.0
2024-09-26,0.5068493150684913
2024-09-27,0.3636363636363619
2024-09-30,0.4916201117318418
2024-10-08,0.6749999999999994
2024-10-09,0.6245210727969349
2024-10-10,0.8719211822660102
2024-10-11,0.8509615384615402
2024-10-14,0.6752577319587645
2024-10-15,0.06334841628959455
2024-10-16,0.086757990867584
2024-10-17,0.28315412186379996
2024-10-18,0.4113712374581938
2024-10-21,0.42268041237113374
2024-10-22,0.7639751552795
2024-10-23,0.5989847715735996
2024-10-24,0.20657276995305032
2024-10-25,0.2808510638297871
2024-10-28,0.3113207547169813
2024-10-29,0.43103448275862133
2024-10-30,0.576744186046513
2024-10-31,0.9919999999999971
2024-11-01,0.39189189189188883
2024-11-04,0.46706586826347013
2024-11-05,0.2767295597484253
2024-11-06,0.17266187050359727
2024-11-07,0.35754189944134074
2024-11-08,0.7719298245614039
2024-11-11,0.5666666666666674
2024-11-12,0.6071428571428599
2024-11-13,0.49612403100775565
2024-11-14,0.18604651162790922
2024-11-15,0.0
2024-11-18,0.10071942446043221
2024-11-19,0.2517482517482523
2024-11-20,0.3281249999999979
2024-11-21,0.4945054945054947
2024-11-22,1.0
2024-11-25,1.0
2024-11-26,0.7575757575757571
2024-11-27,0.4418604651162826
2024-11-28,0.4782608695652189
2024-11-29,0.19230769230768785
2024-12-02,0.4166666666666668
2024-12-03,0.5749999999999998
2024-12-04,0.7954545454545408
2024-12-05,0.8011363636363584
2024-12-06,1.0
2024-12-09,0.9290028807731648
2024-12-10,0.9327346363796464
2024-12-11,0.8567487266553528
2024-12-12,0.7325035706998608
2024-12-13,0.24077402981918195
2024-12-16,0.3275338014883104
2024-12-17,0.10187409899086466
2024-12-18,0.09638554216866924
2024-12-19,0.09302325581394817
2024-12-20,0.2045454545454381
2024-12-23,0.012345679012342216
2024-12-24,0.011494252873560049
2024-12-25,0.011111111111108046
2024-12-26,0.09756097560975523
2024-12-27,0.14942528735632418
2024-12-30,0.27083333333333626
2024-12-31,0.5365853658536585
