date,FCT_Cr_Atr_Dfive
2014-08-08,
2014-08-11,
2014-08-12,
2014-08-13,
2014-08-14,
2014-08-15,
2014-08-18,
2014-08-19,
2014-08-20,
2014-08-21,
2014-08-22,0.1616065134984159
2014-08-25,0.07947019867549499
2014-08-26,0.016530287220606843
2014-08-27,-0.8578414074708892
2014-08-28,0.20549318364073815
2014-08-29,0.027995829755919757
2014-09-01,-0.05511811023621812
2014-09-02,0.2544529262086489
2014-09-03,0.45310818888224474
2014-09-04,0.11789638056996751
2014-09-05,-0.04419354838710018
2014-09-09,0.23879157962397685
2014-09-10,0.022988505747128962
2014-09-11,-0.026673567977912684
2014-09-12,-0.13413669064748648
2014-09-15,0.07820105820106005
2014-09-16,-0.3236734693877575
2014-09-17,-0.5559342421812372
2014-09-18,0.06133936090059122
2014-09-19,0.15321428571428655
2014-09-22,0.3726932507420306
2014-09-23,0.19681818181818317
2014-09-24,0.5275693923480876
2014-09-25,0.3335881753312918
2014-09-26,-0.06760204081632794
2014-09-29,-0.592610480560252
2014-09-30,-0.08437723693629254
2014-10-08,-0.14509599059683853
2014-10-09,-0.5125055334218687
2014-10-10,-0.09633994442847407
2014-10-13,0.20694230227043264
2014-10-14,0.07082828588734157
2014-10-15,-0.05306069143081213
2014-10-16,0.012638441449516452
2014-10-17,0.06017214397496053
2014-10-20,-0.17371775076500384
2014-10-21,-0.22275641025641157
2014-10-22,0.07592885944700631
2014-10-23,0.17634996582364826
2014-10-24,-0.03067632850241627
2014-10-27,0.06082244717940512
2014-10-28,0.2601323407774997
2014-10-29,-0.26294309701492524
2014-10-30,-0.018363215731638745
2014-10-31,0.9135903746240057
2014-11-03,0.1480711829825787
2014-11-04,0.3100525131282856
2014-11-05,0.29745919233265106
2014-11-06,-0.01923076923076779
2014-11-07,-1.2044612943043513
2014-11-10,-0.1868834915317294
2014-11-11,-0.8725629593926965
2014-11-12,-0.33357859531772316
2014-11-13,-0.21621621621620993
2014-11-14,0.3443441830486605
2014-11-17,0.1912272441933439
2014-11-18,0.6537402849740824
2014-11-19,0.5133333333333269
2014-11-20,0.2268545140885495
2014-11-21,-0.08039927404718494
2014-11-24,-0.1521614930489476
2014-11-25,-0.20801957831324167
2014-11-26,-0.10333333333333597
2014-11-27,-0.010638297872344602
2014-11-28,0.07402745995423227
2014-12-01,0.22870605291772722
2014-12-02,-0.028670236501568518
2014-12-03,-0.5163366336633641
2014-12-04,0.1250000000000121
2014-12-05,0.50301932367151
2014-12-08,-0.05119857946137299
2014-12-09,0.271426385062756
2014-12-10,0.6677064966770702
2014-12-11,-0.12500000000000708
2014-12-12,-0.37178362573100754
2014-12-15,-0.1699995772206528
2014-12-16,-0.27523902122832855
2014-12-17,-0.42768565248738605
2014-12-18,-0.09036144578313383
2014-12-19,-0.49309864064133746
2014-12-22,0.4986833443054635
2014-12-23,0.1891948268669169
2014-12-24,0.17061958694204288
2014-12-25,0.011573566995255677
2014-12-26,0.5812565353781812
2014-12-29,-0.5029466331987338
2014-12-30,-0.24047124771563222
2014-12-31,-0.087702382402642
2015-01-05,0.33055449513082313
2015-01-06,-0.3280050803011914
2015-01-07,-0.10784990504273136
2015-01-08,0.10451925644449209
2015-01-09,0.11371108493428836
2015-01-12,-0.14957683532104638
2015-01-13,0.09111940585016358
2015-01-14,0.13202102803738294
2015-01-15,0.0709401709401671
2015-01-16,-0.13610197368421584
2015-01-19,-0.2852883725711946
2015-01-20,-0.15717058689198807
2015-01-21,-0.03216494845360893
2015-01-22,-0.011111111111100254
2015-01-23,-0.019316909294506426
2015-01-26,0.05519161480511192
2015-01-27,1.0971264367816105
2015-01-28,0.34802701741912606
2015-01-29,0.1663663663663561
2015-01-30,0.2502849544072895
2015-02-02,0.3079836050966732
2015-02-03,-1.050216450216448
2015-02-04,-0.2868914807302218
2015-02-05,-0.3557922234502123
2015-02-06,-0.30430900621117896
2015-02-09,-0.43260188087774104
2015-02-10,0.26553176553176583
2015-02-11,-0.13602941176470842
2015-02-12,0.1311883091911258
2015-02-13,0.20206749771967128
2015-02-16,0.33147262094630625
2015-02-17,-0.5205998681608459
2015-02-25,0.04997144488863782
2015-02-26,0.26110493140526847
2015-02-27,0.03189052326983649
2015-03-02,0.13365105677579459
2015-03-03,0.3719512195121966
2015-03-04,0.4672172487706461
2015-03-05,-0.20939713601386234
2015-03-06,-0.03090064556762931
2015-03-09,-0.3198945625359045
2015-03-10,0.07692307692307683
2015-03-11,-0.46834415584415434
2015-03-12,-0.3151424147154049
2015-03-13,-0.26940639269406463
2015-03-16,-0.030634897143702808
2015-03-17,-0.3069230769230769
2015-03-18,-0.3173701298701305
2015-03-19,0.27722772277227686
2015-03-20,0.13881278538812242
2015-03-23,0.8045977011494216
2015-03-24,0.21571428571428647
2015-03-25,0.19819311123658695
2015-03-26,0.0
2015-03-27,1.140740740740751
2015-03-30,-0.9791666666666632
2015-03-31,0.014285714285713586
2015-04-01,0.21739130434782777
2015-04-02,0.0
2015-04-03,-2.074074074074079
2015-04-07,inf
2015-04-08,0.032085561497326845
2015-04-09,0.02072538860103742
2015-04-10,0.49746192893400926
2015-04-13,1.1999999999999995
2015-04-14,-inf
2015-04-15,0.22230040341495322
2015-04-16,0.11563824776259754
2015-04-17,-0.7620773135493945
2015-04-20,-0.14142259414225827
2015-04-21,0.22154485161117224
2015-04-22,-0.39593847632780577
2015-04-23,-0.35976789168278417
2015-04-24,0.8262592202318251
2015-04-27,0.12563312045804834
2015-04-28,0.03438735177865779
2015-04-29,0.7423755566830166
2015-04-30,0.6192911447793037
2015-05-04,-0.7347561744746347
2015-05-05,-0.44033524791935297
2015-05-06,0.09999999999999976
2015-05-07,-1.1367511889800657
2015-05-08,-1.3958868894601546
2015-05-11,
2015-05-12,
2015-05-13,
2015-05-14,
2015-05-15,
2015-05-18,
2015-05-19,
2015-05-20,
2015-05-21,
2015-05-22,
2015-05-25,
2015-05-26,-inf
2015-05-27,-1.0563435776201806
2015-05-28,-1.0179560328914254
2015-05-29,-0.28711405611166274
2015-06-01,-0.2664782943745214
2015-06-02,0.09738562091502806
2015-06-03,-0.3572984749455299
2015-06-04,0.3050847457627111
2015-06-05,-0.6565853658536552
2015-06-08,0.1529411764705898
2015-06-09,0.055555555555557794
2015-06-10,-0.7352941176470613
2015-06-11,
2015-06-12,
2015-06-15,
2015-06-16,inf
2015-06-17,1.0
2015-06-18,
2015-06-19,
2015-06-23,
2015-06-24,-inf
2015-06-25,
2015-06-26,
2015-06-29,inf
2015-06-30,0.005524861878453598
2015-07-01,1.0
2015-07-02,
2015-07-03,
2015-07-06,-inf
2015-07-07,147.99447513810773
2015-07-08,0.9463087248322154
2015-07-09,0.12413793103448274
2015-07-10,0.1411042944785277
2015-07-13,1.2122474299893646
2015-07-14,-148.2008830021937
2015-07-15,-1.2943750231747568
2015-07-16,0.18094681472822893
2015-07-17,-0.1735718269460604
2015-07-20,-0.29156743883957537
2015-07-21,0.1066801036567813
2015-07-22,0.8040662983425397
2015-07-23,-0.3902495809275466
2015-07-24,-0.07564057564057555
2015-07-27,-0.12482769529749418
2015-07-28,0.1068079405675321
2015-07-29,-0.9912697095435657
2015-07-30,-0.6023351648351631
2015-07-31,0.10810810810810825
2015-08-03,0.19865319865319875
2015-08-04,-0.9840336134453888
2015-08-05,15.535269709548166
2015-08-06,0.6874999999999981
2015-08-07,0.3750000000000227
2015-08-10,0.0
2015-08-11,0.9259740259740493
2015-08-12,-15.714285714290305
2015-08-13,0.0
2015-08-14,32.62499999999921
2015-08-17,0.0
2015-08-18,0.46220913090768334
2015-08-19,0.93756488841064
2015-08-20,0.0
2015-08-21,-33.57700528489669
2015-08-24,0.6575342465753455
2015-08-25,-0.5035314449572825
2015-08-26,-0.5083470474281006
2015-08-27,0.44936708860759306
2015-08-28,1.1621581233254052
2015-08-31,-0.7291595909279627
2015-09-01,0.20250386247148972
2015-09-02,0.3302806392606128
2015-09-07,-0.5715044931877461
2015-09-08,-0.9706600848047569
2015-09-09,0.14238006133374975
2015-09-10,-0.46814991045634746
2015-09-11,-0.16085902446084682
2015-09-14,-0.05478567234292242
2015-09-15,1.946254909928213
2015-09-16,-0.05250654179865283
2015-09-17,0.46353401860010246
2015-09-18,0.19951722624533552
2015-09-21,0.3912087912087894
2015-09-22,-1.7298653106102257
2015-09-23,-0.28373490084619607
2015-09-24,0.005354752342698693
2015-09-25,-0.011928521698769637
2015-09-28,-0.3384467881112182
2015-09-29,-0.04544173991435596
2015-09-30,0.5337794085905447
2015-10-08,-0.4164658634538114
2015-10-09,-0.05545892955965015
2015-10-12,0.0214583711228037
2015-10-13,0.17841480865992718
2015-10-14,0.1317073170731729
2015-10-15,0.3982142857142833
2015-10-16,0.38189046725632314
2015-10-19,0.08235386549339817
2015-10-20,-0.04100675699832108
2015-10-21,-0.602572347266883
2015-10-22,0.11549539170507067
2015-10-23,-0.6375766415471474
2015-10-26,0.24305626079008802
2015-10-27,0.36286562102585984
2015-10-28,0.5331279028224385
2015-10-29,-0.2554633308640315
2015-10-30,0.2784183440818186
2015-11-02,-0.08224620764787158
2015-11-03,-0.35372899159663873
2015-11-04,-0.5100427350427369
2015-11-05,-0.020746346555323557
2015-11-06,-0.1674208144796384
2015-11-09,-0.3463435688740914
2015-11-10,0.06801470588235263
2015-11-11,0.23133903133903214
2015-11-12,0.21038732394366272
2015-11-13,0.1312726128677064
2015-11-16,0.22423097679438883
2015-11-17,-0.00300300300300334
2015-11-18,-0.24462293618920103
2015-11-19,-0.226245532898886
2015-11-20,0.0333697623009848
2015-11-23,0.0675888761467881
2015-11-24,0.132499405880701
2015-11-25,0.2564653518532719
2015-11-26,0.11728036464384525
2015-11-27,-0.0911922901912279
2015-11-30,-0.19874237804878042
2015-12-01,-0.34942767435536054
2015-12-02,-0.010830831392574326
2015-12-03,-0.0765790594543122
2015-12-04,0.12432026061896972
2015-12-07,0.2632113821138215
2015-12-08,0.34360618313844077
2015-12-09,-0.15978167511705949
2015-12-10,-0.05037126524839394
2015-12-11,-0.15836830619439446
2015-12-14,-0.38345735152266935
2015-12-15,-0.27837104425746506
2015-12-16,0.15920582069305816
2015-12-17,-0.042406613594613854
2015-12-18,0.3102316602316651
2015-12-21,0.221354941024883
2015-12-22,0.29670796691621304
2015-12-23,-0.10410105320193702
2015-12-24,0.17961511047755238
2015-12-25,-0.2422619047619084
2015-12-28,0.2351001617518951
2015-12-29,-0.20288139953691542
2015-12-30,0.3758875455766628
2015-12-31,-0.05371934945332992
2016-01-04,0.007484895972915587
2016-01-05,-0.3184214579714018
2016-01-06,0.02342879481750232
2016-01-07,-0.6804550883754887
2016-01-08,0.31078902158447225
2016-01-11,0.17602786319773775
2016-01-12,0.2472805771378489
2016-01-13,0.058869341828459223
2016-01-14,0.6081292660496673
2016-01-15,-0.27273044692737075
2016-01-18,-0.1599767231346179
2016-01-19,-0.29242509955298235
2016-01-20,-0.01515897895208302
2016-01-21,-0.35766725486351564
2016-01-22,-0.14153349035485663
2016-01-25,-0.2058277027027009
2016-01-26,0.1646715289889533
2016-01-27,-0.09239399439036451
2016-01-28,0.2315734533770426
2016-01-29,0.052199983793859185
2016-02-01,0.1193811576354666
2016-02-02,-0.07289690069575891
2016-02-03,0.08047468439974922
2016-02-04,-0.36429081389814333
2016-02-05,-0.08597709128774797
2016-02-15,0.5272221032341001
2016-02-16,0.09055577147298717
2016-02-17,0.16171908167597845
2016-02-18,0.19863636363636666
2016-02-19,0.21470771144278458
2016-02-22,-0.5308569016462666
2016-02-23,-0.08472186618815752
2016-02-24,-0.20606936416185204
2016-02-25,0.13356725146198417
2016-02-26,0.07681595365419244
2016-02-29,0.03156468728832555
2016-03-01,0.3184152604548783
2016-03-02,0.3202702702702689
2016-03-03,-0.066211628361681
2016-03-04,-0.08464386292440843
2016-03-07,-0.049741602067181964
2016-03-08,0.0222745769972153
2016-03-09,-0.43055735160998243
2016-03-10,0.50825691251223
2016-03-11,0.05179435948666701
2016-03-14,0.26834625322997435
2016-03-15,-0.4652795031055892
2016-03-16,0.20488399386115505
2016-03-17,-0.8147586768276416
2016-03-18,-0.28317013282844555
2016-03-21,-0.24475791078917275
2016-03-22,0.13440476190476244
2016-03-23,0.05078770286317178
2016-03-24,0.28195512997915123
2016-03-25,0.10746348653356386
2016-03-28,0.23077673692427586
2016-03-29,0.04569146311374305
2016-03-30,-0.2769702931339734
2016-03-31,-0.021558988764045356
2016-04-01,0.09704008992132067
2016-04-05,-0.2929813029506265
2016-04-06,-0.12048024959607935
2016-04-07,0.18158567774936007
2016-04-08,-0.15394076305220927
2016-04-11,-0.0673427741017889
2016-04-12,0.05417177914110602
2016-04-13,0.3932411674347182
2016-04-14,0.15384615384615405
2016-04-15,0.42083891120035916
2016-04-18,0.28431909193051214
2016-04-19,0.1561938534278933
2016-04-20,-0.28349699081406543
2016-04-21,-0.13835942818243693
2016-04-22,-0.35490196078431574
2016-04-25,-0.5332416588260823
2016-04-26,-0.14727493450897522
2016-04-27,-0.08677611842963402
2016-04-28,0.044754238191703564
2016-04-29,0.5423598732422266
2016-05-03,0.26336264249176305
2016-05-04,-0.028884579720573775
2016-05-05,0.012524745827554432
2016-05-06,-0.23594685010416028
2016-05-09,-0.7535147841968397
2016-05-10,0.24171316502306767
2016-05-11,0.396309273136459
2016-05-12,0.12340394071555758
2016-05-13,0.42652021849629673
2016-05-16,0.26322122359077965
2016-05-17,-0.2958975504430049
2016-05-18,-0.32776373067800196
2016-05-19,-0.08840690005073717
2016-05-20,-0.3341476655808908
2016-05-23,0.05468749999999895
2016-05-24,0.08635304089849634
2016-05-25,-0.06167266516195664
2016-05-26,-0.035759897828862124
2016-05-27,-0.17286501377410468
2016-05-30,0.04444444444444767
2016-05-31,-0.11322719833357997
2016-06-01,0.12662219526985677
2016-06-02,0.406130268199232
2016-06-03,0.42861214021088845
2016-06-06,-0.10694444444444814
2016-06-07,0.1467250730079243
2016-06-08,-0.05338015803335734
2016-06-13,-0.46410256410256295
2016-06-14,-0.2830332621300011
2016-06-15,-0.02207711442785787
2016-06-16,-0.15967604433077656
2016-06-17,0.035948307244262186
2016-06-20,0.04592074592074792
2016-06-21,0.024526753794763476
2016-06-22,-0.05310404499243064
2016-06-23,0.007855316039462407
2016-06-24,0.10605197173466976
2016-06-27,0.6226636108989018
2016-06-28,0.3593167589476334
2016-06-29,0.28360390620140713
2016-06-30,0.14952947471122874
2016-07-01,-0.20500667556742025
2016-07-04,-0.6323033150267986
2016-07-05,-0.04278926110714809
2016-07-06,-0.14945631568571152
2016-07-07,-0.023866443541314987
2016-07-08,0.19320316361838774
2016-07-11,-0.07256963172085505
2016-07-12,-0.43810129891191085
2016-07-13,0.27703390242345055
2016-07-14,0.06117111631928335
2016-07-15,0.17745232249727988
2016-07-18,0.13503811626373743
2016-07-19,0.0015596460742050844
2016-07-20,-0.6292695642880872
2016-07-21,-0.3745510252850933
2016-07-22,-1.2777983432585251
2016-07-25,
2016-07-26,
2016-07-27,
2016-07-28,
2016-07-29,
2016-08-01,
2016-08-02,
2016-08-03,
2016-08-04,
2016-08-05,
2016-08-08,
2016-08-09,
2016-08-10,
2016-08-11,
2016-08-12,
2016-08-15,
2016-08-16,
2016-08-17,
2016-08-18,-inf
2016-08-19,0.0
2016-08-22,0.0
2016-08-23,0.0
2016-08-24,-0.927439239168721
2016-08-25,-0.265981432360747
2016-08-26,0.0
2016-08-29,0.0
2016-08-30,0.0
2016-08-31,-0.7784431137724533
2016-09-01,
2016-09-02,
2016-09-05,inf
2016-09-06,0.0
2016-09-07,2.1359223300970847
2016-09-08,
2016-09-09,
2016-09-12,-inf
2016-09-13,0.0
2016-09-14,-1.820132856412875
2016-09-19,-1.2454545454545445
2016-09-20,inf
2016-09-21,0.3759124087591249
2016-09-22,0.7499999999999984
2016-09-23,0.9767275331185087
2016-09-26,1.1526315789473678
2016-09-27,-inf
2016-09-28,0.4657905406073557
2016-09-29,-0.707902193198451
2016-09-30,-0.03913514662424905
2016-10-10,0.3884966810621141
2016-10-11,0.20092224037197914
2016-10-12,-0.4705075217394309
2016-10-13,-0.024720239660947465
2016-10-14,-0.3294688167002096
2016-10-17,-0.7915484280767082
2016-10-18,-0.12944979120434136
2016-10-19,0.11427409068918476
2016-10-20,-0.03838597050194434
2016-10-21,0.06321142004105376
2016-10-24,0.19607234198026874
2016-10-25,-0.0032627184165761186
2016-10-26,-0.16471298485686944
2016-10-27,0.10476474853900908
2016-10-28,0.03161089947834524
2016-10-31,0.003773113443280407
2016-11-01,0.009902312766135207
2016-11-02,-0.05734412470023962
2016-11-03,-0.08093944376921305
2016-11-04,-0.01592637423361464
2016-11-07,0.18222737370810266
2016-11-08,-0.018027952916357358
2016-11-09,0.005729166666665897
2016-11-10,-0.2010676302714242
2016-11-11,-0.006445352400406971
2016-11-14,0.06907726594287228
2016-11-15,0.3352192362093342
2016-11-16,0.18714908392435045
2016-11-17,0.17199252317369457
2016-11-18,0.03284984678242973
2016-11-21,-0.3339176999330621
2016-11-22,-0.5451601295430002
2016-11-23,-0.07357552950258105
2016-11-24,0.23233928677035742
2016-11-25,-0.048821326283322135
2016-11-28,0.1560449157829066
2016-11-29,0.6337475198063686
2016-11-30,0.017587522814002422
2016-12-01,-0.2556842556842539
2016-12-02,0.021695525809488442
2016-12-05,-0.09577380952380889
2016-12-06,-0.6844140355282156
2016-12-07,-0.12536744259950583
2016-12-08,0.03511042097998729
2016-12-09,-0.057234741495760647
2016-12-12,0.03011511024643196
2016-12-13,0.35076276605462947
2016-12-14,0.16738344869706556
2016-12-15,-0.0587673196368857
2016-12-16,-0.11876598465473377
2016-12-19,-0.06246160147449992
2016-12-20,-0.00321725142385567
2016-12-21,0.23256282216495167
2016-12-22,0.14865689865689677
2016-12-23,0.34365474089523396
2016-12-26,0.2503735679893707
2016-12-27,-0.03467833414357282
2016-12-28,-0.37314489634077397
2016-12-29,-0.13177664735528144
2016-12-30,0.08183062962705401
2017-01-03,-0.30842699300920884
2017-01-04,-0.1559079740897909
2017-01-05,-0.2520653105759483
2017-01-06,-0.1699359675152255
2017-01-09,-1.2515723270440269
2017-01-10,
2017-01-11,
2017-01-12,
2017-01-13,
2017-01-16,
2017-01-17,
2017-01-18,
2017-01-19,
2017-01-20,
2017-01-23,
2017-01-24,-inf
2017-01-25,-1.6533333333333462
2017-01-26,0.04361054766733834
2017-02-03,-0.03906249999999062
2017-02-06,0.06410256410255945
2017-02-07,1.5342875260440199
2017-02-08,0.18673647469459073
2017-02-09,-0.26975821003247813
2017-02-10,-0.034965034965043065
2017-02-13,0.19676700111483408
2017-02-14,-1.8644232100817058
2017-02-15,0.8308073849545461
2017-02-16,0.2789493865030703
2017-02-17,0.2173974673974666
2017-02-20,-0.4951552795031067
2017-02-21,0.9734239318782087
2017-02-22,-0.6261364722352227
2017-02-23,0.10368286294881032
2017-02-24,-0.04755879929128931
2017-02-27,0.6084115884115884
2017-02-28,-0.4967195359845502
2017-03-01,-0.1555670902922779
2017-03-02,-0.35869829504757617
2017-03-03,-0.04240787971648208
2017-03-06,-0.5434048709910779
2017-03-07,0.15066493830716676
2017-03-08,0.12231573124715917
2017-03-09,0.4413259857319805
2017-03-10,-0.04091936167208149
2017-03-13,0.15702409490441785
2017-03-14,-0.2304040451331985
2017-03-15,-0.14089412360688908
2017-03-16,-0.8173080283806904
2017-03-17,-0.7438540840602699
2017-03-20,-0.9877450980392151
2017-03-21,
2017-03-22,
2017-03-23,
2017-03-24,
2017-03-27,
2017-03-28,
2017-03-29,
2017-03-30,
2017-03-31,
2017-04-05,
2017-04-06,
2017-04-07,
2017-04-10,
2017-04-11,
2017-04-12,
2017-04-13,
2017-04-14,
2017-04-17,
2017-04-18,
2017-04-19,-inf
2017-04-20,-0.7516163793103366
2017-04-21,-2.113636363636366
2017-04-24,
2017-04-25,
2017-04-26,
2017-04-27,
2017-04-28,
2017-05-02,
2017-05-03,
2017-05-04,
2017-05-05,
2017-05-08,
2017-05-09,
2017-05-10,
2017-05-11,
2017-05-12,
2017-05-15,
2017-05-16,
2017-05-17,
2017-05-18,
2017-05-19,
2017-05-22,
2017-05-23,
2017-05-24,
2017-05-25,
2017-05-26,-inf
2017-05-31,0.025252525252525755
2017-06-01,0.0
2017-06-02,-2.404137931034479
2017-06-05,0.0
2017-06-06,-0.7550639658848588
2017-06-07,-1.0252525252525257
2017-06-08,
2017-06-09,
2017-06-12,
2017-06-13,inf
2017-06-14,1.2419354838709697
2017-06-15,
2017-06-16,
2017-06-19,
2017-06-20,-inf
2017-06-21,0.22932888394512185
2017-06-22,-0.0858360389610354
2017-06-23,-0.7367827868852487
2017-06-26,0.0
2017-06-27,0.5876777251184825
2017-06-28,-1.4712643678160915
2017-06-29,
2017-06-30,inf
2017-07-03,0.0
2017-07-04,0.0
2017-07-05,1.0
2017-07-06,
2017-07-07,-inf
2017-07-10,
2017-07-11,
2017-07-12,
2017-07-13,
2017-07-14,
2017-07-17,
2017-07-18,
2017-07-19,
2017-07-20,
2017-07-21,
2017-07-24,
2017-07-25,
2017-07-26,
2017-07-27,
2017-07-28,
2017-07-31,
2017-08-01,
2017-08-02,
2017-08-03,
2017-08-04,
2017-08-07,
2017-08-08,
2017-08-09,-inf
2017-08-10,-66.33630069238653
2017-08-11,0.013260254596887844
2017-08-14,-0.21757322175732072
2017-08-15,0.16169154228855692
2017-08-16,0.056057160938061984
2017-08-17,-0.18750883142574667
2017-08-18,-0.34893401805166546
2017-08-21,-0.06940874035989886
2017-08-22,-0.062244028476402424
2017-08-23,-0.3121227120613764
2017-08-24,0.5693062740416509
2017-08-25,0.2595761536938008
2017-08-28,0.1515255286810657
2017-08-29,0.0017329246364126
2017-08-30,0.013763303500658089
2017-08-31,-0.6179605183480686
2017-09-01,-0.2345432345432344
2017-09-04,0.1949612973211489
2017-09-05,-0.34378398874442584
2017-09-06,0.03474747958141775
2017-09-07,0.0555687909469913
2017-09-08,0.25163360129803125
2017-09-11,-0.6561825632542578
2017-09-12,0.38683431952662906
2017-09-13,0.32258841036414687
2017-09-14,0.2000632940006324
2017-09-15,-0.21182341148784106
2017-09-18,0.19049237796781254
2017-09-19,-0.44247638326585803
2017-09-20,-0.7418592436974787
2017-09-21,1.5822661558232973
2017-09-22,0.2504120190486527
2017-09-25,0.5815816694237717
2017-09-26,0.4211446836030609
2017-09-27,0.49109391968410104
2017-09-28,-1.8931716989323522
2017-09-29,-0.27654278483459144
2017-10-09,-0.521374239040344
2017-10-10,0.11817235900345756
2017-10-11,0.04600140405690638
2017-10-12,0.2809358794760271
2017-10-13,0.03870777921619528
2017-10-16,0.014013525349262188
2017-10-17,-0.5160714285714301
2017-10-18,0.01211444637393555
2017-10-19,0.09325524751056538
2017-10-20,0.3164646345769066
2017-10-23,0.42391495343524754
2017-10-24,0.3356060606060585
2017-10-25,-0.1776026272578003
2017-10-26,0.29363048747643294
2017-10-27,-0.25520419513745324
2017-10-30,-0.2207387627948372
2017-10-31,0.04239823123943442
2017-11-01,0.19052807115063786
2017-11-02,-0.47839992792467956
2017-11-03,-0.03985304761293954
2017-11-06,-0.29466739967015
2017-11-07,-0.21146990031110213
2017-11-08,-0.13196088166356756
2017-11-09,0.13893282368964396
2017-11-10,0.1671107682264643
2017-11-13,0.2326920044157103
2017-11-14,-0.006416898061806203
2017-11-15,0.11527183284752636
2017-11-16,-0.23395061728395058
2017-11-17,-0.26411776732774783
2017-11-20,-0.13568061921646857
2017-11-21,0.1782309228170066
2017-11-22,-0.06818552689386727
2017-11-23,0.5586497890295382
2017-11-24,0.19726878243852758
2017-11-27,0.15041399444816728
2017-11-28,0.03351768057650578
2017-11-29,-0.16175739154462582
2017-11-30,-0.5856436540602127
2017-12-01,-0.0822981366459617
2017-12-04,-0.25553479625355513
2017-12-05,0.8088930654375677
2017-12-06,0.7713786213786205
2017-12-07,0.575041403231014
2017-12-08,0.3279057214825465
2017-12-11,0.4479098982022948
2017-12-12,-1.0092346757317858
2017-12-13,-0.8146076390569779
2017-12-14,-0.3831352574985852
2017-12-15,-0.4251459812228078
2017-12-18,-0.3610478796379325
2017-12-19,0.04041245036505778
2017-12-20,0.21250141195075145
2017-12-21,0.06032431235818256
2017-12-22,0.07295454545454619
2017-12-25,0.15822631399441808
2017-12-26,0.06782496782496733
2017-12-27,0.0013519261149598505
2017-12-28,-0.08579559927111646
2017-12-29,-0.011074380165289645
2018-01-02,-0.06668375162355594
2018-01-03,0.041363556492708016
2018-01-04,0.02142313832677152
2018-01-05,-0.163549652532454
2018-01-08,-0.003323869287665357
2018-01-09,-0.19372723219168275
2018-01-10,-0.14735245511964487
2018-01-11,-0.11047306041617755
2018-01-12,0.18734395286128072
2018-01-15,0.07439824945295656
2018-01-16,0.6186273979030188
2018-01-17,0.11771051034854953
2018-01-18,0.21221289548934513
2018-01-19,-0.01062865904655591
2018-01-22,0.1815920398009922
2018-01-23,-0.42089192446765755
2018-01-24,-0.040396559961777795
2018-01-25,-0.2518991151507853
2018-01-26,0.15015025715948524
2018-01-29,-0.29295567616463014
2018-01-30,-0.1448916408668726
2018-01-31,-0.0009316770186336906
2018-02-01,0.044479593718526
2018-02-02,-0.2699923871111217
2018-02-05,0.4228390461997013
2018-02-06,0.2420955882352933
2018-02-07,0.054170233693373704
2018-02-08,0.16374507775781558
2018-02-09,0.19580692345197376
2018-02-12,-0.5741016724623293
2018-02-13,-0.2539811643835624
2018-02-14,0.0381850353267289
2018-02-22,-0.19568032611510872
2018-02-23,-0.1250626566416026
2018-02-26,0.5684515053447141
2018-02-27,0.20322605285940004
2018-02-28,-0.15175963277229254
2018-03-01,0.12681422924901295
2018-03-02,0.31439006075499687
2018-03-05,-0.2706814727503994
2018-03-06,-0.017956308228923072
2018-03-07,0.1740323659828311
2018-03-08,-0.07913636363636256
2018-03-09,-0.029276078193803345
2018-03-12,-0.20390951304109753
2018-03-13,0.01217732884399472
2018-03-14,-0.13182532377578957
2018-03-15,0.069945141065827
2018-03-16,-0.5209304467987117
2018-03-19,0.23328187210530366
2018-03-20,0.18138528138528096
2018-03-21,-0.01613977613977686
2018-03-22,-0.08444584306652941
2018-03-23,0.6050349650349655
2018-03-26,0.03613322161709344
2018-03-27,-0.10198061525495049
2018-03-28,0.0446316826804643
2018-03-29,0.09036234036233985
2018-03-30,-0.45503290275408287
2018-04-02,-0.2154034490100047
2018-04-03,-0.38479187151753613
2018-04-04,-0.03908144344601086
2018-04-09,0.17527472527472338
2018-04-10,0.17304637076755017
2018-04-11,0.08204381798682231
2018-04-12,0.2721417069243184
2018-04-13,0.8546117769671655
2018-04-16,-0.20274725274725225
2018-04-17,0.450030609121518
2018-04-18,0.30995693429352594
2018-04-19,0.19930428997078067
2018-04-20,-0.939702140167449
2018-04-23,-0.010673637126214629
2018-04-24,-0.44862041667002844
2018-04-25,-0.4253278821767434
2018-04-26,-0.3028664961825367
2018-04-27,0.10932437622472913
2018-05-02,0.009245524529000109
2018-05-03,-0.18292661453394912
2018-05-04,0.09885843032958858
2018-05-07,0.168588730188638
2018-05-08,-0.07369667491477648
2018-05-09,0.030414432399863033
2018-05-10,0.09418477225081036
2018-05-11,0.030354873399159092
2018-05-14,-0.037666806399774204
2018-05-15,0.1564073398792293
2018-05-16,0.20103366021733154
2018-05-17,0.2546156004489326
2018-05-18,0.22142655992275934
2018-05-21,0.11913529732678518
2018-05-22,-0.024297301253222235
2018-05-23,-0.21807027328499648
2018-05-24,-0.18234080078051523
2018-05-25,-0.364552404864863
2018-05-28,-0.30263782330143146
2018-05-29,0.013068102438446812
2018-05-30,-0.18094158442251293
2018-05-31,-0.11479150212606588
2018-06-01,0.12540840361674838
2018-06-04,0.2087784104277449
2018-06-05,-0.08000697714983417
2018-06-06,0.08547714960411161
2018-06-07,0.142604115045062
2018-06-08,0.1724738675958162
2018-06-11,-0.11130309854779734
2018-06-12,-0.06341137123745832
2018-06-13,0.31302778008717685
2018-06-14,-0.012587412587413718
2018-06-15,-0.2429221408858906
2018-06-19,0.49720564753340435
2018-06-20,0.11244098569080112
2018-06-21,-0.36552178011775005
2018-06-22,0.16742424242424206
2018-06-25,0.171781840582582
2018-06-26,-0.38960878686905964
2018-06-27,-0.005513130936857962
2018-06-28,0.19334113369967315
2018-06-29,-0.22251552795030993
2018-07-02,-0.04041191825301038
2018-07-03,-0.2904335220749908
2018-07-04,0.09046541693600264
2018-07-05,-0.08407576946041297
2018-07-06,0.050370039920843865
2018-07-09,-0.1363811011130109
2018-07-10,0.38237799020242375
2018-07-11,-0.232652043868394
2018-07-12,0.019686695053356778
2018-07-13,-0.07529675619495639
2018-07-16,0.2895810498112292
2018-07-17,-0.23364231982528477
2018-07-18,0.121655938109019
2018-07-19,-0.06793459433243239
2018-07-20,0.13508592238534442
2018-07-23,-0.27277432712215255
2018-07-24,0.09668016194331888
2018-07-25,0.046995133469634645
2018-07-26,0.11773851590105937
2018-07-27,-0.019053934571178623
2018-07-30,-0.017121455323703696
2018-07-31,0.3957703411400947
2018-08-01,0.24608325305480727
2018-08-02,0.0007673860911269204
2018-08-03,0.03068060971286825
2018-08-06,0.20168416929818117
2018-08-07,-0.36352742616033695
2018-08-08,-0.3305245035039632
2018-08-09,-0.0741007194244595
2018-08-10,-0.09855196249801329
2018-08-13,-0.05786394457908053
2018-08-14,-0.1819346405228766
2018-08-15,-0.029981430186839568
2018-08-16,0.26098673431636915
2018-08-17,0.13881972046680535
2018-08-20,0.07120137009599242
2018-08-21,0.29269183382726194
2018-08-22,0.03800369278779334
2018-08-23,-0.3602886540371379
2018-08-24,-0.23268029772344964
2018-08-27,-0.30266204425329424
2018-08-28,-0.2797339374904314
2018-08-29,0.08129217109128914
2018-08-30,0.1691801035524426
2018-08-31,0.08352680183666314
2018-09-03,0.14932432432432324
2018-09-04,0.07512621037821825
2018-09-05,-0.1542101042501972
2018-09-06,-0.22075537681413032
2018-09-07,0.26095947063688596
2018-09-10,0.01956456456456251
2018-09-11,0.07267622188122226
2018-09-12,0.42183462532299476
2018-09-13,0.30477790220231327
2018-09-14,-0.07360146998774658
2018-09-17,0.07567935623646313
2018-09-18,-0.020159021406728053
2018-09-19,-0.3385225885225864
2018-09-20,-0.200112830431977
2018-09-21,-0.37064385060165617
2018-09-25,0.05220594842303531
2018-09-26,0.021980392156862844
2018-09-27,-0.1929588929588945
2018-09-28,0.3809808612440163
2018-10-08,0.3779502541757419
2018-10-09,-0.17072917747121508
2018-10-10,0.09763071895424891
2018-10-11,0.3979004482189209
2018-10-12,-0.41013105887247525
2018-10-15,-0.20130918220946806
2018-10-16,0.08042747583221668
2018-10-17,-0.15458645944980554
2018-10-18,-0.2716308796813111
2018-10-19,0.12396282774642949
2018-10-22,0.0015358518246835484
2018-10-23,-0.03436093812452823
2018-10-24,0.06021032101629148
2018-10-25,0.19430656314963402
2018-10-26,-0.11301153647477341
2018-10-29,0.16055764411027662
2018-10-30,0.09203938961136823
2018-10-31,-0.006539937216604716
2018-11-01,-0.1591663347935776
2018-11-02,0.22034972488693133
2018-11-05,-0.23044653014789676
2018-11-06,-0.12274469339622715
2018-11-07,0.07702833936611492
2018-11-08,0.22015815237856512
2018-11-09,-0.22698246836177874
2018-11-12,0.5774076830301049
2018-11-13,0.11817924222798007
2018-11-14,-0.0003753715671226121
2018-11-15,-0.23133009674079946
2018-11-16,0.2110768562381447
2018-11-19,-0.6932802859165881
2018-11-20,-0.035916853174725066
2018-11-21,0.0524824398999367
2018-11-22,0.08085603205082402
2018-11-23,-0.16582571587132428
2018-11-26,0.6110049253841068
2018-11-27,0.11405591184494873
2018-11-28,-0.21323395193185124
2018-11-29,-0.02842377260981814
2018-11-30,0.08690374178806112
2018-12-03,-0.42869801886195436
2018-12-04,-0.3369031956620626
2018-12-05,0.01524966261808293
2018-12-06,0.12353436548552252
2018-12-07,-0.08347398030942257
2018-12-10,-0.1948461291624834
2018-12-11,0.2315527454832821
2018-12-12,0.1422049495220217
2018-12-13,-0.260934289236953
2018-12-14,0.11038370253164502
2018-12-17,0.2695065038228585
2018-12-18,-0.017775560573437415
2018-12-19,-0.0699120146391566
2018-12-20,0.2584818246614413
2018-12-21,-0.11739377062706502
2018-12-24,-0.10013588738591414
2018-12-25,-0.11916593372396214
2018-12-26,-0.009829594283688469
2018-12-27,0.03860068472724268
2018-12-28,0.03478976685970751
2019-01-02,0.17438989848202888
2019-01-03,0.13802464264861047
2019-01-04,-0.008156017227105253
2019-01-07,-0.4168695761118108
2019-01-08,0.1458652217160766
2019-01-09,-0.18539910114028513
2019-01-10,-0.07914252825845082
2019-01-11,0.12624368590234303
2019-01-14,0.38672299766476104
2019-01-15,-0.23148583585264837
2019-01-16,0.03229086636235991
2019-01-17,-0.027998931338499927
2019-01-18,-0.14083655705996262
2019-01-21,0.00022868250292942816
2019-01-22,0.2097938023959047
2019-01-23,0.13721014057431252
2019-01-24,0.14641148325359252
2019-01-25,0.0355354391371362
2019-01-28,-0.2511897268034743
2019-01-29,-0.056455689467098905
2019-01-30,0.08472400513478727
2019-01-31,-0.09752066115702746
2019-02-01,0.012711864406777535
2019-02-11,0.24972286787055262
2019-02-12,-0.093032934188376
2019-02-13,-0.2944409215810583
2019-02-14,-0.00311358831443621
2019-02-15,-0.13287649014678476
2019-02-18,-0.07225513156082138
2019-02-19,-0.020842134910574128
2019-02-20,0.29654618473895167
2019-02-21,0.11165081910871935
2019-02-22,0.12894736842105428
2019-02-25,-0.07351086714635399
2019-02-26,0.11652690426275233
2019-02-27,-0.27312217194569943
2019-02-28,-0.18578465869105854
2019-03-01,0.04659090909090824
2019-03-04,-0.0025192613427923102
2019-03-05,0.008394627438439321
2019-03-06,0.2152727095801109
2019-03-07,0.19960179193628008
2019-03-08,0.002196969696972098
2019-03-11,0.009487968981642017
2019-03-12,-0.033380208718820845
2019-03-13,-0.21803036596058895
2019-03-14,-0.0684347620175175
2019-03-15,-0.09106918238994283
2019-03-18,0.3033631173988577
2019-03-19,-0.07924331068435982
2019-03-20,0.08707324396403929
2019-03-21,-0.03760078986342095
2019-03-22,0.012094823415583815
2019-03-25,-0.48452012383900916
2019-03-26,0.1679213131727107
2019-03-27,0.24092779648335166
2019-03-28,-0.03319209039548357
2019-03-29,0.008249721293198797
2019-04-01,0.20606272317963112
2019-04-02,-0.24007382282522166
2019-04-03,-0.39253358325523047
2019-04-04,0.035377358490570616
2019-04-08,-0.0015960374243270958
2019-04-09,0.0023979446188963143
2019-04-10,0.10795454545454929
2019-04-11,0.37374570446735045
2019-04-12,-0.004883876181442226
2019-04-15,0.018987341772149047
2019-04-16,0.20984144341170358
2019-04-17,0.1386500823120515
2019-04-18,-0.3114767932489431
2019-04-19,-0.022319638608967015
2019-04-22,-0.04950495049504728
2019-04-23,-0.21529408401035727
2019-04-24,-0.09607764180446686
2019-04-25,0.16095927749932698
2019-04-26,0.06514663887019767
2019-04-29,0.11900595079967015
2019-04-30,-0.20048512702909374
2019-05-06,0.03396338321925097
2019-05-07,-0.01607784966927404
2019-05-08,-0.11498714923702408
2019-05-09,-0.041091909395529536
2019-05-10,0.3670855131276583
2019-05-13,-0.1701790226331953
2019-05-14,-0.06478144617531431
2019-05-15,0.06073446327683665
2019-05-16,-0.05153047819232509
2019-05-17,-0.31445944620615185
2019-05-20,0.20412426713390602
2019-05-21,0.005575945793344472
2019-05-22,0.3246122928752887
2019-05-23,0.023121387283231952
2019-05-24,0.22161898371256145
2019-05-27,-0.05538082866129029
2019-05-28,-0.0005513354570003751
2019-05-29,-0.4288426911114723
2019-05-30,-0.039106145251392506
2019-05-31,-0.0851114840565824
2019-06-03,-0.04698335644937601
2019-06-04,0.08756432246998386
2019-06-05,0.12108214185590027
2019-06-06,0.06222753253462955
2019-06-10,-0.010642491131256256
2019-06-11,0.0354010025062676
2019-06-12,-0.07753396029258122
2019-06-13,0.11751183231913305
2019-06-14,0.1144447502829063
2019-06-17,0.09901458415451195
2019-06-18,-0.12234735309890435
2019-06-19,0.0864031398934682
2019-06-20,-0.21726929303831488
2019-06-21,-0.2555148555148604
2019-06-24,-0.03023255813953544
2019-06-25,0.21716304401157693
2019-06-26,-0.028061098792805057
2019-06-27,0.5201387334974236
2019-06-28,0.17312113174182392
2019-07-01,-0.051223590211277134
2019-07-02,-0.06584792265481981
2019-07-03,-0.06709956709956935
2019-07-04,-0.6474210315873615
2019-07-05,-0.14918950781019852
2019-07-08,0.0021889258848184854
2019-07-09,0.11616779793034285
2019-07-10,-0.013521457965900485
2019-07-11,0.23278688524590077
2019-07-12,0.5250515767757171
2019-07-15,0.06836781086610813
2019-07-16,-0.28267942583731875
2019-07-17,0.12643632088076495
2019-07-18,0.060060060060059324
2019-07-19,-0.6010061541467255
2019-07-22,0.037933303178583115
2019-07-23,0.08874999999999969
2019-07-24,-0.1456849602010904
2019-07-25,-0.1635083359221288
2019-07-26,-0.003105251688820393
2019-07-29,-0.32935947297404455
2019-07-30,0.11661585365853584
2019-07-31,0.06451612903225883
2019-08-01,0.08097636574970957
2019-08-02,0.2880194518125538
2019-08-05,0.381539199232794
2019-08-06,-0.11689738519006654
2019-08-07,-0.04651162790697639
2019-08-08,0.11515483694163021
2019-08-09,-0.15065681444991694
2019-08-12,-0.21377434135165735
2019-08-13,-0.003294339115236862
2019-08-14,0.015583792855428269
2019-08-15,-0.13523611831863264
2019-08-16,0.2690476190476221
2019-08-19,0.222597597597598
2019-08-20,0.0465446206467678
2019-08-21,0.19695100107471683
2019-08-22,0.0392419332112169
2019-08-23,-0.3462901439645655
2019-08-26,-0.3336076368619897
2019-08-27,-0.09543094296584057
2019-08-28,-0.39825850067732016
2019-08-29,-0.02981570935782031
2019-08-30,0.5416827381387387
2019-09-02,0.22876366245279778
2019-09-03,0.06988730817321348
2019-09-04,0.2509269234391995
2019-09-05,0.08817283919559787
2019-09-06,-0.7504650579422902
2019-09-09,0.0029728725380861742
2019-09-10,0.06260537259750486
2019-09-11,-0.007063681808302923
2019-09-12,-0.14125276811135518
2019-09-16,0.3531856713152847
2019-09-17,-0.020794246403999097
2019-09-18,0.06364554769808037
2019-09-19,-0.0009896091044040694
2019-09-20,0.14936479128856417
2019-09-23,-0.02649604583099953
2019-09-24,-0.13393608074011928
2019-09-25,-0.23879966187658414
2019-09-26,-0.0043489896962414345
2019-09-27,0.05559210526316219
2019-09-30,0.10119475634714124
2019-10-08,0.07819575060954659
2019-10-09,0.07456015487103149
2019-10-10,0.03196205794412023
2019-10-11,-0.32927631578947814
2019-10-14,-0.28614525139664304
2019-10-15,0.12281350086227781
2019-10-16,0.1258875455766694
2019-10-17,-0.024458262671943044
2019-10-18,0.292158968850698
2019-10-21,0.19886792452829932
2019-10-22,-0.17163504968382753
2019-10-23,-0.16074074074073968
2019-10-24,0.1394915680845671
2019-10-25,-0.04998708344096946
2019-10-28,0.04248176872323307
2019-10-29,0.06251338043245369
2019-10-30,0.1626900584795276
2019-10-31,-0.3163281497937137
2019-11-01,-0.0771001150748005
2019-11-04,-0.1089687408705839
2019-11-05,-0.03843930635837891
2019-11-06,0.021720969089396858
2019-11-07,0.2520845741512814
2019-11-08,-0.02372784448255981
2019-11-11,0.013835263835264948
2019-11-12,0.2527972027971985
2019-11-13,-0.20820947718133287
2019-11-14,-0.14786462530217556
2019-11-15,0.13168238993710582
2019-11-18,0.15143084260731515
2019-11-19,-0.1794053899317044
2019-11-20,0.2761794019933599
2019-11-21,0.053921568627448846
2019-11-22,0.016317733990151483
2019-11-25,-0.25919957023905527
2019-11-26,-0.1616896852059201
2019-11-27,-0.3385537918871257
2019-11-28,-0.024948785484339868
2019-11-29,-0.2480485032209188
2019-12-02,0.25266362252663305
2019-12-03,0.1882978723404233
2019-12-04,0.11728395061728511
2019-12-05,0.08027091433588082
2019-12-06,0.11323076923076675
2019-12-09,-0.13653483992466753
2019-12-10,-0.18043478260869217
2019-12-11,0.6055555555555491
2019-12-12,0.2721604770940623
2019-12-13,0.10478048780487773
2019-12-16,0.006819077650766878
2019-12-17,0.1256954461158008
2019-12-18,-0.6738095238095209
2019-12-19,-0.5345371669004186
2019-12-20,-0.007401177460045885
2019-12-23,0.1179423995071613
2019-12-24,0.1056945978676105
2019-12-25,0.029717308033916784
2019-12-26,0.13216034128426377
2019-12-27,-0.1732492231878781
2019-12-30,-0.2514099755218649
2019-12-31,-0.22484906668445437
2020-01-02,0.04358716527055756
2020-01-03,0.026604691093169208
2020-01-06,0.3341171038542866
2020-01-07,0.10534325521487414
2020-01-08,0.28075655040777536
2020-01-09,0.03355589796267537
2020-01-10,-0.015774027879684085
2020-01-13,-0.24854348730753564
2020-01-14,0.17294256419563905
2020-01-15,-0.28617308992562607
2020-01-16,0.007048162443371201
2020-01-17,0.0589655172413778
2020-01-20,0.04629629629629673
2020-01-21,-0.11611258213201338
2020-01-22,0.14931034482758998
2020-01-23,0.009900990099004262
2020-02-03,1.500196078431384
2020-02-04,0.2559055118110246
2020-02-05,0.2594914663880244
2020-02-06,-0.017530864197534274
2020-02-07,0.061576354679802006
2020-02-10,-1.8289431781993615
2020-02-11,-0.3927476170741834
2020-02-12,-0.5419502000662649
2020-02-13,0.14836885302434658
2020-02-14,-0.15380936438853854
2020-02-17,0.4189610035112973
2020-02-18,0.02298071912454344
2020-02-19,0.12151973475042102
2020-02-20,-0.269259041458393
2020-02-21,0.08477032314156951
2020-02-24,-0.08021390374331959
2020-02-25,0.04619221320628672
2020-02-26,0.21535411785907524
2020-02-27,-0.010366826156300385
2020-02-28,0.11181051265412242
2020-03-02,-0.11811023622046943
2020-03-03,0.10338345864661101
2020-03-04,0.3061735261401547
2020-03-05,0.3048885077186953
2020-03-06,-0.12573820041850428
2020-03-09,0.265651219827033
2020-03-10,-0.0404761904761868
2020-03-11,-0.6194934829236111
2020-03-12,-0.2843808837078866
2020-03-13,-3.819709702392385e-05
2020-03-16,-0.27162857484743497
2020-03-17,0.09642857142857451
2020-03-18,0.43200993462142623
2020-03-19,0.4566673515512635
2020-03-20,0.030997949419004744
2020-03-23,0.3847510983498794
2020-03-24,-0.03527568922306296
2020-03-25,-0.15117763711934162
2020-03-26,-0.26218020022247157
2020-03-27,0.25074808232702694
2020-03-30,-0.3412680411140431
2020-03-31,-0.050911525388813335
2020-04-01,0.008843464854016714
2020-04-02,-0.21971474995486456
2020-04-03,-0.492945859108999
2020-04-07,0.009738392272755997
2020-04-08,-0.0012421639191990902
2020-04-09,-0.07462720886650931
2020-04-10,0.14660829008436568
2020-04-13,0.4503262582696712
2020-04-14,0.061780574789866
2020-04-15,-0.02492028853179676
2020-04-16,0.04464993355553965
2020-04-17,-0.07685891691928438
2020-04-20,-0.21012210190237318
2020-04-21,0.15194270979955826
2020-04-22,-0.012211736445903069
2020-04-23,-0.06531642800141742
2020-04-24,0.16807502700065063
2020-04-27,-0.17695686506761382
2020-04-28,-0.2722689075630226
2020-04-29,0.11848032242769084
2020-04-30,-0.0036695175995721946
2020-05-06,-0.23206985072734748
2020-05-07,0.10372454183528902
2020-05-08,0.14562798092209644
2020-05-11,-0.1813302664366509
2020-05-12,0.02279716865999388
2020-05-13,0.011899645428174399
2020-05-14,0.22427725531174092
2020-05-15,-0.05788288288288232
2020-05-18,0.058477600105725044
2020-05-19,0.1449715370019017
2020-05-20,0.2553885422575102
2020-05-21,-0.08209007741027692
2020-05-22,0.16488941548183322
2020-05-25,0.05836412715884208
2020-05-26,-0.1344708077845945
2020-05-27,-0.09716200236499312
2020-05-28,-0.13344118135059035
2020-05-29,-0.2827055074358553
2020-06-01,-0.08263550795196356
2020-06-02,0.024793388429755866
2020-06-03,-0.1298045753450085
2020-06-04,0.026970449345217366
2020-06-05,0.21503831417624225
2020-06-08,0.22528115159694204
2020-06-09,0.005025125628134676
2020-06-10,0.28243169398907686
2020-06-11,0.06341292310775565
2020-06-12,0.05375618533513661
2020-06-15,-0.2859611084083621
2020-06-16,0.03579982853791272
2020-06-17,-0.18732922648133435
2020-06-18,0.24716197338426923
2020-06-19,-0.005421871718738203
2020-06-22,0.49380311780343544
2020-06-23,-0.044809017911069615
2020-06-24,-0.08367077351866811
2020-06-29,-0.4862624823592546
2020-06-30,-0.19108332966241398
2020-07-01,-0.7506891770654944
2020-07-02,-0.10178516702421235
2020-07-03,0.05987096774193601
2020-07-06,0.14551841601021862
2020-07-07,-0.13955072555605097
2020-07-08,0.6648187633262244
2020-07-09,0.22922417494786168
2020-07-10,-0.012559431726082145
2020-07-13,0.18932080553484856
2020-07-14,0.45042963838573447
2020-07-15,-0.4580850517117002
2020-07-16,-0.23456605528974125
2020-07-17,0.09687028216596416
2020-07-20,-0.017509388257786376
2020-07-21,-0.43421176812869533
2020-07-22,0.2632798569065086
2020-07-23,0.2000000000000006
2020-07-24,-0.012059369202225924
2020-07-27,-0.2034895672731008
2020-07-28,0.24244120940649522
2020-07-29,-0.10121836925960678
2020-07-30,-0.1357638888888875
2020-07-31,-0.13808966209434673
2020-08-03,-0.0034506556245696013
2020-08-04,0.7772956326987663
2020-08-05,0.11576382380505973
2020-08-06,0.14555921052631335
2020-08-07,0.0430450574261326
2020-08-10,0.21361815754339125
2020-08-11,-1.1184027268728902
2020-08-12,-0.20222873900293145
2020-08-13,-0.14779135338345786
2020-08-14,0.10464985521913729
2020-08-17,-0.2549439389572792
2020-08-18,0.3449064862713879
2020-08-19,0.28396631177498816
2020-08-20,-0.021432276229995988
2020-08-21,-0.034477699530513516
2020-08-24,0.1971699372580448
2020-08-25,0.005102040816327605
2020-08-26,-0.39503525548150453
2020-08-27,0.14479684482971394
2020-08-28,-0.1464573732718921
2020-08-31,-0.11268939393939803
2020-09-01,0.09654631083202657
2020-09-02,0.34793975561239066
2020-09-03,0.14184426917267934
2020-09-04,0.18140946386422457
2020-09-07,0.012867647058828154
2020-09-08,-0.28021978021978294
2020-09-09,-0.22739820565907554
2020-09-10,-0.5247973470891668
2020-09-11,-0.12909517235333812
2020-09-14,0.1063297802342372
2020-09-15,0.11141060197664311
2020-09-16,0.1457431457431472
2020-09-17,0.3884502534009081
2020-09-18,0.1140294453973657
2020-09-21,0.003156176310542866
2020-09-22,0.06680007623403297
2020-09-23,-0.11697814380741514
2020-09-24,-0.10047998982803276
2020-09-25,-0.11635549463108
2020-09-28,-0.2132394728911069
2020-09-29,-0.11030614551168266
2020-09-30,0.028130289143041935
2020-10-09,0.32393777713350663
2020-10-12,0.10432527624611236
2020-10-13,0.21823801982513652
2020-10-14,0.16495261015814855
2020-10-15,0.03499345218611488
2020-10-16,-0.4858607903589537
2020-10-19,0.05027932960894338
2020-10-20,-0.1470636889991736
2020-10-21,-0.018176795580106486
2020-10-22,0.14489738011917408
2020-10-23,0.16471118209554425
2020-10-26,-0.12134894517997435
2020-10-27,0.07651185292694833
2020-10-28,-0.21736311052317825
2020-10-29,-0.2373966239945624
2020-10-30,0.08420227997190147
2020-11-02,0.12800866805975247
2020-11-03,0.051984049795759435
2020-11-04,0.19919844268865264
2020-11-05,0.06013431013430773
2020-11-06,0.08611589213999152
2020-11-09,-0.21587990848391797
2020-11-10,-0.028532016843329146
2020-11-11,-0.12215168727029851
2020-11-12,0.130718954248368
2020-11-13,-0.34349206349206557
2020-11-16,0.15280174371083743
2020-11-17,-0.08667965238237672
2020-11-18,0.07414286819905747
2020-11-19,-0.035525446133511565
2020-11-20,0.6437426900584806
2020-11-23,-0.007604714126456958
2020-11-24,0.07971205172543
2020-11-25,0.06355443473500987
2020-11-26,-0.17744809279662274
2020-11-27,-0.4744497607655496
2020-11-30,0.026682290824851452
2020-12-01,0.09187279151943714
2020-12-02,0.06095457790959495
2020-12-03,0.18306607032471353
2020-12-04,0.39092812946216043
2020-12-07,0.0837106484607644
2020-12-08,-0.010380602253393434
2020-12-09,-0.1255785774869736
2020-12-10,0.007513404596837789
2020-12-11,-0.5266345608647952
2020-12-14,-0.2643028374250249
2020-12-15,-0.16399628468594085
2020-12-16,-0.10223027655109623
2020-12-17,-0.25898540061386305
2020-12-18,0.0013773835957305025
2020-12-21,0.384488033385416
2020-12-22,0.320205935431607
2020-12-23,0.3129710348524257
2020-12-24,0.3113173341484504
2020-12-25,0.25238783112884466
2020-12-28,-0.09133140058864259
2020-12-29,-0.3778667398939226
2020-12-30,-0.34232625856666893
2020-12-31,-0.123690684587711
2021-01-04,-0.20701450135201352
2021-01-05,-0.4257012036685907
2021-01-06,0.25984108460707867
2021-01-07,0.27882720994176047
2021-01-08,0.08395750853839358
2021-01-11,0.27958418923732153
2021-01-12,0.2831004032655591
2021-01-13,-0.1368399130918605
2021-01-14,-0.22152695618195756
2021-01-15,0.07544202630632685
2021-01-18,-0.23292866176884502
2021-01-19,0.02015248471800125
2021-01-20,-0.08368370275967976
2021-01-21,0.18508970921839507
2021-01-22,-0.39765193566246937
2021-01-25,0.025779714232813077
2021-01-26,-0.07870558831125084
2021-01-27,0.026197741837044326
2021-01-28,-0.2009948157489135
2021-01-29,0.44021941789492286
2021-02-01,0.03669392130485927
2021-02-02,0.06290399382618077
2021-02-03,0.03900204793269643
2021-02-04,0.2224180179538755
2021-02-05,-0.2612986449617009
2021-02-08,-0.037570949432403696
2021-02-09,-0.0765946221347496
2021-02-10,0.10866110396243193
2021-02-18,-0.26369603511223516
2021-02-19,-0.04155223525445926
2021-02-22,0.22969187675070024
2021-02-23,0.03903547880690732
2021-02-24,-0.09097863007836536
2021-02-25,0.23495273365168856
2021-02-26,0.23580030522355414
2021-03-01,-0.22101054162122938
2021-03-02,0.0991265091863527
2021-03-03,-0.01168015427797361
2021-03-04,-0.20052193705360363
2021-03-05,-0.05027102333259184
2021-03-08,0.007250037419548418
2021-03-09,-0.10172826577355443
2021-03-10,0.13567037142760685
2021-03-11,0.16017751121802695
2021-03-12,-0.20059910785641832
2021-03-15,0.04576952082608184
2021-03-16,-0.009346391560946474
2021-03-17,-0.30021224509484756
2021-03-18,-0.11786335676909857
2021-03-19,0.10224044081773224
2021-03-22,0.016908732293348074
2021-03-23,-0.007464096749810141
2021-03-24,0.21208352635142336
2021-03-25,0.012516638400392105
2021-03-26,-0.06013676725750985
2021-03-29,-0.11334892331677018
2021-03-30,0.0063066893424032384
2021-03-31,-0.08891980841784111
2021-04-01,0.013282058786863189
2021-04-02,-0.042823950471188546
2021-04-06,0.06750337101960557
2021-04-07,0.0004960317460318414
2021-04-08,0.1163409110635911
2021-04-09,0.043055587999408035
2021-04-12,0.06666927807591355
2021-04-13,-0.1361015785861375
2021-04-14,0.12554649651423722
2021-04-15,0.04834601785821367
2021-04-16,0.1711879711879723
2021-04-19,0.07625969131705769
2021-04-20,0.14489111917880534
2021-04-21,-0.15821256720663063
2021-04-22,-0.21394771914494887
2021-04-23,-0.31739031514674754
2021-04-26,-0.02899175188321927
2021-04-27,0.09381591846440276
2021-04-28,0.019438557464879755
2021-04-29,0.20434601217482026
2021-04-30,0.16045835821479035
2021-05-06,0.06447037291237714
2021-05-07,-0.03158430973000466
2021-05-10,0.10391106503081679
2021-05-11,-0.16502992174313344
2021-05-12,0.12517250191668783
2021-05-13,0.24500840240394212
2021-05-14,0.04733280335235379
2021-05-17,-0.05680998407795174
2021-05-18,0.10867980732665797
2021-05-19,-0.21081656424468864
2021-05-20,-0.43625855594971763
2021-05-21,-0.15957073355857815
2021-05-24,0.02258013453901446
2021-05-25,-0.013085856966143762
2021-05-26,-0.03277566646812778
2021-05-27,0.03467744470458853
2021-05-28,-0.05087175220301836
2021-05-31,-0.10012056172069839
2021-06-01,-0.1212106886828853
2021-06-02,0.07754130342403251
2021-06-03,0.13987719830469136
2021-06-04,0.1605673774528745
2021-06-07,0.03898635477582705
2021-06-08,0.04872661067516817
2021-06-09,-0.04688312814288294
2021-06-10,-0.23297043663176303
2021-06-11,-0.1914389961733544
2021-06-15,0.11407561407561509
2021-06-16,0.05325440186904218
2021-06-17,0.17112105116019105
2021-06-18,0.3323088608042085
2021-06-21,0.13099655075976394
2021-06-22,-0.1836868514083713
2021-06-23,-0.09554487879449496
2021-06-24,-0.16965986394557947
2021-06-25,-0.1052751610209697
2021-06-28,0.002253985539207761
2021-06-29,0.0694205774862654
2021-06-30,0.0671363447990055
2021-07-01,0.1947675962815413
2021-07-02,-0.2472426180117344
2021-07-05,-0.029982562442763684
2021-07-06,0.16738314918663166
2021-07-07,0.058962300635799395
2021-07-08,-0.14143426294820818
2021-07-09,0.24398102217027084
2021-07-12,0.049483108623461364
2021-07-13,-0.24221123277993634
2021-07-14,0.15441428071618785
2021-07-15,-0.10097719869706667
2021-07-16,0.06185591538189346
2021-07-19,-0.041342591096209885
2021-07-20,0.14017543859649223
2021-07-21,-0.2642665223601657
2021-07-22,0.013498639520394082
2021-07-23,-0.16327503541462074
2021-07-26,-0.003909077275189153
2021-07-27,-0.00815342837746343
2021-07-28,0.07458215274903766
2021-07-29,0.11291887228822016
2021-07-30,0.03730700797795821
2021-08-02,0.03358550234858537
2021-08-03,-0.02466708444304927
2021-08-04,-0.17088501953643714
2021-08-05,0.020117773448817582
2021-08-06,-0.03973955994611391
2021-08-09,0.10869721861939696
2021-08-10,-0.0451684678957435
2021-08-11,0.19995210727969404
2021-08-12,-0.0786843805562231
2021-08-13,0.16588991056808022
2021-08-16,-0.1977398094419377
2021-08-17,0.08134773503200152
2021-08-18,-0.08378137560527829
2021-08-19,0.08374354256906293
2021-08-20,-0.2052845114159968
2021-08-23,0.2935946740839035
2021-08-24,0.009882157575813504
2021-08-25,0.10797394481363146
2021-08-26,-0.03078253782940335
2021-08-27,0.18573838957896727
2021-08-30,-0.21920586094378122
2021-08-31,-0.009548834163609687
2021-09-01,0.012445361826129459
2021-09-02,0.19216528925619775
2021-09-03,0.05879437214385928
2021-09-06,-0.05748002665972675
2021-09-07,-0.031165690257741567
2021-09-08,-0.10288985062124774
2021-09-09,-0.20057736240913376
2021-09-10,-0.2263967669867602
2021-09-13,0.17318386687688217
2021-09-14,0.013876153485992956
2021-09-15,0.1498134476462631
2021-09-16,0.0714021226532498
2021-09-17,0.10182126595839627
2021-09-22,-0.20334575171675887
2021-09-23,-0.14092016082910708
2021-09-24,1.019890981933052
2021-09-27,0.09353804323733289
2021-09-28,0.12662535554652635
2021-09-29,0.3062888649997151
2021-09-30,0.3100406324252072
2021-10-08,-1.3636333548766129
2021-10-11,-0.23629687600167518
2021-10-12,-0.17386655802466228
2021-10-13,-0.15743930761446412
2021-10-14,-0.2416487209500351
2021-10-15,0.1974439511358151
2021-10-18,0.059269178903206
2021-10-19,0.16622063491760528
2021-10-20,-0.27986598175064503
2021-10-21,0.2873758645111341
2021-10-22,0.025117915707001906
2021-10-25,0.02570260100767049
2021-10-26,-0.2660864263233398
2021-10-27,0.3023926630077465
2021-10-28,-0.26126676051356645
2021-10-29,0.0008147888862215466
2021-11-01,-0.11170437405731538
2021-11-02,0.11945893053285539
2021-11-03,-0.037746708204311565
2021-11-04,-0.25053541258497236
2021-11-05,-0.08309145512809676
2021-11-08,0.033032581453633615
2021-11-09,-0.2218453043719027
2021-11-10,-0.27483141001659506
2021-11-11,0.2667424931756158
2021-11-12,0.01150132525558313
2021-11-15,-0.023511527130265143
2021-11-16,0.35419101889733096
2021-11-17,0.1854422277702694
2021-11-18,-0.0735964424680404
2021-11-19,-0.002395226675801304
2021-11-22,0.012299195961045742
2021-11-23,0.04144643006963594
2021-11-24,0.008882189239332518
2021-11-25,0.021215490087087285
2021-11-26,0.23094598790801357
2021-11-29,0.1471060794149578
2021-11-30,-0.24205903585465505
2021-12-01,0.19971562809099946
2021-12-02,0.044204660587638014
2021-12-03,-0.27519287709872226
2021-12-06,-0.043235272788802966
2021-12-07,-0.02817159366455227
2021-12-08,-0.235437385413176
2021-12-09,-0.058044282215070866
2021-12-10,0.09825381067631425
2021-12-13,-0.1937273605409328
2021-12-14,0.07599309866028817
2021-12-15,-0.060612829143988536
2021-12-16,0.05253009781790751
2021-12-17,0.03001874551878385
2021-12-20,0.16868898428304416
2021-12-21,-0.0029560256474990554
2021-12-22,0.36517154404672214
2021-12-23,0.06302761081440272
2021-12-24,-0.0663455724005708
2021-12-27,-0.05004449272101868
2021-12-28,-0.016974199768837926
2021-12-29,-0.382756515940179
2021-12-30,-0.012454500529395313
2021-12-31,0.06479655429882343
2022-01-04,0.0004078548490875217
2022-01-05,0.024103398570546938
2022-01-06,0.036107649096862704
2022-01-07,-0.03187652908842483
2022-01-10,0.07087639824055386
2022-01-11,0.015887778036114495
2022-01-12,0.02218114602587763
2022-01-13,0.43587642539179283
2022-01-14,-0.028397599008286024
2022-01-17,-0.006346422971216861
2022-01-18,0.15134179321822389
2022-01-19,0.11111111111111074
2022-01-20,-0.49847149287322146
2022-01-21,0.13378753360614012
2022-01-24,-0.11178073894609472
2022-01-25,-0.22719647724889885
2022-01-26,-0.18453255017131642
2022-01-27,0.16047433015147916
2022-01-28,-0.0742209243965861
2022-02-07,0.04558717144924164
2022-02-08,0.19019117329132845
2022-02-09,0.06775571668060298
2022-02-10,0.02740415656421873
2022-02-11,0.006228672824058212
2022-02-14,-0.04503173233794363
2022-02-15,-0.1862520637211464
2022-02-16,0.05380236834233527
2022-02-17,-0.03071225071224982
2022-02-18,-0.04887666462533513
2022-02-21,0.02025626452249324
2022-02-22,0.2611963052247584
2022-02-23,-0.06941324170741416
2022-02-24,0.04519726247986772
2022-02-25,0.18602952684020918
2022-02-28,0.007016350664851804
2022-03-01,-0.2048254019987436
2022-03-02,0.03072169609887383
2022-03-03,-0.0303044749555008
2022-03-04,-0.39006085192697804
2022-03-07,0.28799033783554023
2022-03-08,0.2653544654410882
2022-03-09,0.11078390727939555
2022-03-10,0.14554130926407258
2022-03-11,0.23109997362173562
2022-03-14,-0.41984607536540536
2022-03-15,-0.3310743456170828
2022-03-16,-0.23356234096692113
2022-03-17,-0.2718093603441563
2022-03-18,-0.10627469697642515
2022-03-21,0.12772901600486158
2022-03-22,0.00447567312234412
2022-03-23,0.0018829516539432128
2022-03-24,0.10806102147858815
2022-03-25,0.3252161483754036
2022-03-28,0.053771194698888955
2022-03-29,0.08011336797355076
2022-03-30,0.1448765655234034
2022-03-31,0.10087438982595391
2022-04-01,-0.21612402827478236
2022-04-06,0.027339901477833307
2022-04-07,-0.0031243596008682477
2022-04-08,0.1602357879869709
2022-04-11,-0.010939367676719713
2022-04-12,-0.12235889880801055
2022-04-13,-0.12902057374674142
2022-04-14,0.03929955787051337
2022-04-15,-0.1643462484995491
2022-04-18,-0.11339898945794175
2022-04-19,0.22552178137604312
2022-04-20,0.04083572930444019
2022-04-21,-0.07342518576015372
2022-04-22,-0.19304629327962108
2022-04-25,0.11691176301381402
2022-04-26,-0.26891178364223156
2022-04-27,0.19782431236890158
2022-04-28,0.08602090716528105
2022-04-29,0.15254488762156257
2022-05-05,-0.15536566356597364
2022-05-06,0.2509637116666482
2022-05-09,-0.3596117931604534
2022-05-10,-0.01726407035970767
2022-05-11,0.0462734016248697
2022-05-12,0.1081371270803021
2022-05-13,-0.20225045463729968
2022-05-16,0.11310861423221154
2022-05-17,-0.04242411625098697
2022-05-18,-0.058525219298247055
2022-05-19,-0.078164276401567
2022-05-20,0.02110428917329385
2022-05-23,0.1716390423572731
2022-05-24,-0.0009777102330311427
2022-05-25,0.01143063893653585
2022-05-26,-0.0360138888888882
2022-05-27,0.13702239362219673
2022-05-30,-0.164646878403085
2022-05-31,-0.05628205128204909
2022-06-01,0.11074635686178518
2022-06-02,0.02700432865944269
2022-06-06,-0.11462109037447438
2022-06-07,0.10522764804870331
2022-06-08,0.3335780402170393
2022-06-09,-0.09043384795778664
2022-06-10,0.13914465083900057
2022-06-13,0.21523517382413127
2022-06-14,0.014049503670396098
2022-06-15,-0.31521265560165523
2022-06-16,-0.05783710701054831
2022-06-17,-0.14596607652504534
2022-06-20,-0.15190565739128778
2022-06-21,-0.09429344840330312
2022-06-22,0.03812499999999937
2022-06-23,0.03023885466840822
2022-06-24,0.09642114984991534
2022-06-27,-0.12446980273141185
2022-06-28,0.06191402988669842
2022-06-29,-0.02664531802120169
2022-06-30,0.00620849235207274
2022-07-01,-0.04163561847987817
2022-07-04,0.29951753371869005
2022-07-05,-0.09573872804303503
2022-07-06,0.2544200553241781
2022-07-07,-0.0058939900402476
2022-07-08,0.07061688311688089
2022-07-11,-0.33224747722151426
2022-07-12,0.07184328457464807
2022-07-13,-0.3091024736213852
2022-07-14,0.07670622137041463
2022-07-15,-0.03244466800804671
2022-07-18,0.21492304695109987
2022-07-19,-0.04222568005242463
2022-07-20,0.11619809888164746
2022-07-21,-0.07447853794110201
2022-07-22,-0.07223408594668576
2022-07-25,0.03135949978332267
2022-07-26,0.21266838483407335
2022-07-27,-0.0011587703844685238
2022-07-28,-0.04019402568397551
2022-07-29,0.08498066853499879
2022-08-01,-0.19914120722020237
2022-08-02,-0.2961870259845194
2022-08-03,-0.05993441826572718
2022-08-04,0.08376436781609103
2022-08-05,-0.10290319389796268
2022-08-08,0.029840307395417653
2022-08-09,0.15488406664877274
2022-08-10,0.022901285206453584
2022-08-11,0.059760163208439854
2022-08-12,0.11683861568650797
2022-08-15,0.14639164260079163
2022-08-16,-0.0377866814037033
2022-08-17,0.15798316589320271
2022-08-18,-0.15447393237445955
2022-08-19,-0.06768918774830145
2022-08-22,-0.0020211477162699193
2022-08-23,-0.07438896044105682
2022-08-24,-0.2526627511388262
2022-08-25,0.2555227117737542
2022-08-26,0.17960264503028434
2022-08-29,-0.06273716835121482
2022-08-30,0.12279874830739172
2022-08-31,0.11188111188111298
2022-09-01,-0.2584381145342948
2022-09-02,-0.24092951041359595
2022-09-05,-0.08022097830324741
2022-09-06,-0.09177824736904633
2022-09-07,-0.019507839049729858
2022-09-08,0.09410233520305354
2022-09-09,0.12159190357598937
2022-09-13,0.10600766740194437
2022-09-14,0.11666614153369362
2022-09-15,0.10912973771685368
2022-09-16,-0.13076972216215876
2022-09-19,-0.11891864679822828
2022-09-20,-0.09955959782669555
2022-09-21,-0.04160936473781285
2022-09-22,0.05901046735654611
2022-09-23,0.18064736722133573
2022-09-26,0.1012613041408862
2022-09-27,0.08057359307359266
2022-09-28,-0.038888730172335094
2022-09-29,-0.30554424559799076
2022-09-30,-0.07125868581821468
2022-10-10,-0.005551700208191089
2022-10-11,0.010104529616725385
2022-10-12,-0.061005052119267315
2022-10-13,0.3366411309648091
2022-10-14,-0.08403437330652126
2022-10-17,-0.13418123426595377
2022-10-18,-0.15584309635576535
2022-10-19,0.036487576897565765
2022-10-20,-0.30138167304291064
2022-10-21,0.15333894462810096
2022-10-24,0.16686715759174714
2022-10-25,0.2825519728798699
2022-10-26,0.014294679058555068
2022-10-27,0.10734415612960699
2022-10-28,-0.09121696739492226
2022-10-31,-0.03512713754663377
2022-11-01,-0.18087579536450943
2022-11-02,0.1250441482598142
2022-11-03,0.17704515911817778
2022-11-04,0.08868721887110938
2022-11-07,-0.061993337504290494
2022-11-08,-0.017842372681082356
2022-11-09,-0.1377184569479965
2022-11-10,-0.2953601298903059
2022-11-11,-0.14969952691471683
2022-11-14,0.16296145854489064
2022-11-15,0.1463844797178127
2022-11-16,0.030922284644191875
2022-11-17,0.10623619636388444
2022-11-18,0.1139538346984364
2022-11-21,-0.04508744517027567
2022-11-22,-0.011531389545572104
2022-11-23,-0.04442929703819156
2022-11-24,0.14557032578101176
2022-11-25,-0.0050082155767347016
2022-11-28,-0.19561503416856707
2022-11-29,-0.1410642702964665
2022-11-30,0.1123810094764186
2022-12-01,-0.12139917695473232
2022-12-02,0.0034477922442225466
2022-12-05,0.27307302231237635
2022-12-06,-0.03097542596697346
2022-12-07,0.009901742943321593
2022-12-08,0.014662344198713555
2022-12-09,-0.06921859097591393
2022-12-12,-0.2323426852337248
2022-12-13,0.15638029583703805
2022-12-14,-0.10198502755754936
2022-12-15,-0.013918531186839425
2022-12-16,0.057797917678154447
2022-12-19,0.2423639280084786
2022-12-20,-0.12262078637672748
2022-12-21,-0.04516938539272643
2022-12-22,0.06612284309025149
2022-12-23,0.04315233835812848
2022-12-26,-0.2641812216088685
2022-12-27,0.017972214288846496
2022-12-28,0.09995228124109878
2022-12-29,0.010378562973157854
2022-12-30,-0.14074642928901665
2023-01-03,-0.032189596584473
2023-01-04,0.1633064881006249
2023-01-05,-0.019984102143724564
2023-01-06,-0.21006856730422185
2023-01-09,0.08003785724441516
2023-01-10,0.17184969459302435
2023-01-11,-0.24624183888199458
2023-01-12,-0.008797511422184162
2023-01-13,0.14402109568399613
2023-01-16,-0.12145146520146105
2023-01-17,0.14060103268735863
2023-01-18,0.08531874365806102
2023-01-19,0.06594921017458721
2023-01-20,-0.0319576857777227
2023-01-30,0.4077074128620499
2023-01-31,-0.15217417417417106
2023-02-01,0.14127552450402456
2023-02-02,-0.07849659897743544
2023-02-03,0.046708442525000934
2023-02-06,-0.5167236836659105
2023-02-07,-0.17938397822368707
2023-02-08,-0.3210886224501698
2023-02-09,-0.05002369815504851
2023-02-10,0.10656879893914346
2023-02-13,0.3313972231848116
2023-02-14,0.19968005073123954
2023-02-15,0.23369204082764453
2023-02-16,0.0963572319617249
2023-02-17,-0.19847398020926826
2023-02-20,-0.20512974051896282
2023-02-21,-0.06896273917421814
2023-02-22,0.20283899146317502
2023-02-23,-0.11775365185876653
2023-02-24,0.14052155795274957
2023-02-27,0.3156692395555704
2023-02-28,-0.02333333333333416
2023-03-01,-0.20848353761115337
2023-03-02,0.05210942015025878
2023-03-03,-0.12187948573925081
2023-03-06,-0.26019435825550036
2023-03-07,0.02714285714285664
2023-03-08,-0.1754385964912287
2023-03-09,0.11434386973180297
2023-03-10,0.18274657129733168
2023-03-13,-0.12034514078110758
2023-03-14,0.1021674876847296
2023-03-15,0.14831007230536433
2023-03-16,0.05562275985662861
2023-03-17,-0.21272106109324865
2023-03-20,0.14158829676070933
2023-03-21,-0.12432642199800498
2023-03-22,0.012951667903746565
2023-03-23,-0.26635635418921844
2023-03-24,0.32541023166023336
2023-03-27,0.07523510971787109
2023-03-28,0.04501607717042137
2023-03-29,0.2055882205135914
2023-03-30,0.1037119893943165
2023-03-31,-0.4093252062795216
2023-04-03,-0.006946863268706423
2023-04-04,-0.032544378698228724
2023-04-06,-0.41690629421698777
2023-04-07,0.173878640545308
2023-04-10,0.1675639645182792
2023-04-11,-0.012597631645247905
2023-04-12,0.06554767902825959
2023-04-13,0.1897936513101366
2023-04-14,-0.2399733642496687
2023-04-17,0.19845800261418695
2023-04-18,0.07971984878154893
2023-04-19,-0.057879667246640384
2023-04-20,0.12387170474054097
2023-04-21,0.11392705215684423
2023-04-24,-0.3351924355511522
2023-04-25,-0.2408958918990942
2023-04-26,0.062419029032646026
2023-04-27,-0.1912406015037604
2023-04-28,-0.06743442455337866
2023-05-04,0.31827777098477217
2023-05-05,0.10951222121371246
2023-05-08,-0.00018373882555574456
2023-05-09,0.02118415594084473
2023-05-10,0.03873583588358623
2023-05-11,-0.2843991385780271
2023-05-12,0.1783549477923904
2023-05-15,-0.08266636665617914
2023-05-16,0.13552860052659527
2023-05-17,-0.061593499120086326
2023-05-18,0.1979908242366726
2023-05-19,-0.1792469444542268
2023-05-22,0.30812795618620836
2023-05-23,-0.08387679600791521
2023-05-24,0.1364582994370492
2023-05-25,-0.15973280878616633
2023-05-26,-0.017118926332291277
2023-05-29,-0.44439232853866906
2023-05-30,-0.007177194338922917
2023-05-31,0.07167546724102045
2023-06-01,0.05095992277716255
2023-06-02,0.05034262843606761
2023-06-05,0.1164099139867316
2023-06-06,0.04959901929734045
2023-06-07,-0.16361393676428193
2023-06-08,0.10173810582632849
2023-06-09,-0.045126282282221604
2023-06-12,0.1511491628779216
2023-06-13,-0.03852912358741215
2023-06-14,-0.004485375565799983
2023-06-15,-0.18775533098374367
2023-06-16,-0.02437302423603692
2023-06-19,-0.08962362478286136
2023-06-20,-0.03134833144251513
2023-06-21,-0.057866672666321985
2023-06-26,0.393089430894309
2023-06-27,0.17362100510076894
2023-06-28,-0.07466761445152158
2023-06-29,0.05152040168893292
2023-06-30,0.35645124659023786
2023-07-03,-0.39250672295464134
2023-07-04,-0.2265129381296883
2023-07-05,0.10394500372891252
2023-07-06,-0.05824941628747492
2023-07-07,-0.4821135292057084
2023-07-10,0.15917338962130734
2023-07-11,0.2063492063492044
2023-07-12,-0.04738015607580923
2023-07-13,0.14317129629629963
2023-07-14,0.1354120513956601
2023-07-17,0.01959706959707226
2023-07-18,-0.19112850619699578
2023-07-19,0.22249670619235698
2023-07-20,-0.14992405654866414
2023-07-21,0.05103603603603214
2023-07-24,-0.09356967233679706
2023-07-25,0.09939918288872632
2023-07-26,-0.38257575757575546
2023-07-27,0.16901237563698213
2023-07-28,0.07647509578544211
2023-07-31,-0.02712228777122385
2023-08-01,0.027260458839408877
2023-08-02,0.6407734056987788
2023-08-03,-0.1256147944127503
2023-08-04,0.0018711574445331794
2023-08-07,0.04618088559694474
2023-08-08,-0.013485280151950222
2023-08-09,-0.7235183306767143
2023-08-10,-0.04257510149991816
2023-08-11,-0.1353032799430977
2023-08-14,0.1874235106174265
2023-08-15,-0.030145686951688025
2023-08-16,0.23850447487429247
2023-08-17,0.016015982869189642
2023-08-18,0.06279036004645851
2023-08-21,-0.2888924844268246
2023-08-22,0.008893482366150597
2023-08-23,-0.009797941783354507
2023-08-24,0.09877276873324294
2023-08-25,-0.0017167743614751145
2023-08-28,0.08745613916564489
2023-08-29,-0.008608298087140089
2023-08-30,0.03249199983048811
2023-08-31,-0.10765210906866982
2023-09-01,0.04364715410831148
2023-09-04,-0.022395474491829336
2023-09-05,0.01688689688298128
2023-09-06,-0.013802808099558367
2023-09-07,0.20287387816896266
2023-09-08,0.09965767056762805
2023-09-11,-0.005815733088460499
2023-09-12,-0.004310344827587911
2023-09-13,0.1408422936350273
2023-09-14,-0.166639202438827
2023-09-15,-0.028691224917641117
2023-09-18,0.035510140161304785
2023-09-19,0.17941176470588352
2023-09-20,-0.16108139545130246
2023-09-21,-0.03201681493791607
2023-09-22,-0.17854997854997795
2023-09-25,0.17139122058621087
2023-09-26,-0.2916566626650644
2023-09-27,0.025912230916959805
2023-09-28,0.04751606547146424
2023-10-09,0.13304055243423676
2023-10-10,-0.2423301533446719
2023-10-11,0.14263907354969269
2023-10-12,0.04677096641993819
2023-10-13,-0.08233647471007312
2023-10-16,-0.16887822496915605
2023-10-17,-0.05332166200695414
2023-10-18,-0.07878127236470342
2023-10-19,-0.12002247625823723
2023-10-20,0.13182674199623595
2023-10-23,0.17934170288105414
2023-10-24,0.14418725692887754
2023-10-25,-0.05449356166201963
2023-10-26,0.11685585445498312
2023-10-27,-0.1088888888888919
2023-10-30,-0.16030392883617609
2023-10-31,0.24788337520112477
2023-11-01,0.14506087745878554
2023-11-02,-0.10961520844527492
2023-11-03,0.10608384503907006
2023-11-06,0.2416376648899607
2023-11-07,-0.10803398223969646
2023-11-08,-0.013147960958056603
2023-11-09,0.11198787532284435
2023-11-10,-0.03456869352391583
2023-11-13,-0.04013699419914571
2023-11-14,-0.35411020776874313
2023-11-15,0.025575250467906433
2023-11-16,-0.02801026671130331
2023-11-17,-0.005320081847414775
2023-11-20,-0.10138888888889083
2023-11-21,0.2951340341428893
2023-11-22,-0.12478294712891372
2023-11-23,-0.0033278378213330803
2023-11-24,-0.08809684605227261
2023-11-27,-0.16970675275759878
2023-11-28,-0.23671295812885393
2023-11-29,0.022098515519568866
2023-11-30,0.0069563560129540045
2023-12-01,0.21023510971786602
2023-12-04,0.19490778765026515
2023-12-05,0.3328858111927706
2023-12-06,0.04444055944055908
2023-12-07,0.05924205559242361
2023-12-08,-0.022372013651873884
2023-12-11,0.01785086889543397
2023-12-12,-0.2767902553148234
2023-12-13,0.13675324675324657
2023-12-14,-0.15816828059314297
2023-12-15,-0.23212484169403627
2023-12-18,-0.12202015775635233
2023-12-19,0.09922752889592709
2023-12-20,-0.28755703755703843
2023-12-21,0.12535489526500831
2023-12-22,0.08425456459701466
2023-12-25,0.06844422700586772
2023-12-26,0.19129197290676128
2023-12-27,0.10269252728989067
2023-12-28,-0.027003202360251
2023-12-29,-0.05127544565280157
2024-01-02,0.06732847046280466
2024-01-03,-0.3579711572591338
2024-01-04,0.1448848820522268
2024-01-05,-0.027463697735984532
2024-01-08,0.1778419373149403
2024-01-09,-0.11639134660196795
2024-01-10,0.020504226042201174
2024-01-11,-0.18122015645636574
2024-01-12,-0.010471871178151272
2024-01-15,-0.17319554594247977
2024-01-16,-0.03277989499773502
2024-01-17,0.3637449698189109
2024-01-18,0.15130129235900214
2024-01-19,-0.009428746928749412
2024-01-22,0.13243314278204604
2024-01-23,0.132974556354099
2024-01-24,-0.28205314360388783
2024-01-25,-0.024967024684381646
2024-01-26,0.1588904694167909
2024-01-29,-0.07873081183731324
2024-01-30,0.05918520240771205
2024-01-31,0.22850719832871436
2024-02-01,-0.025825888256620626
2024-02-02,-0.21707799371449593
2024-02-05,-0.02873815779358613
2024-02-06,-0.21796498301209621
2024-02-07,-0.4933553376169035
2024-02-08,0.13463334566581436
2024-02-19,0.13448690059708263
2024-02-20,0.14332692496451255
2024-02-21,0.320210261887809
2024-02-22,0.3784212081307148
2024-02-23,-0.3533368504352402
2024-02-26,-0.03846153846153689
2024-02-27,-0.14291692822766222
2024-02-28,-0.3785043549265116
2024-02-29,-0.08606911820666208
2024-03-01,0.2438720118682327
2024-03-04,0.18115942028985796
2024-03-05,0.038092267165782165
2024-03-06,0.17339071856287377
2024-03-07,0.04806500482027437
2024-03-08,-0.07463102199943875
2024-03-11,-0.2965440356744735
2024-03-12,-0.017826976082512012
2024-03-13,0.021287593984961037
2024-03-14,-0.11516422082459996
2024-03-15,0.15179113539769185
2024-03-18,0.11538461538461557
2024-03-19,0.2862318840579674
2024-03-20,0.03202122954445343
2024-03-21,0.1749479816895527
2024-03-22,-0.06787909836065845
2024-03-25,0.024875621890547643
2024-03-26,-0.1868932038834888
2024-03-27,-0.047058823529415955
2024-03-28,-0.08778410548458163
2024-03-29,-0.1159994239631289
2024-04-01,0.14344120979261832
2024-04-02,-0.21564916899786413
2024-04-03,-0.05999999999999563
2024-04-08,0.08891965413387933
2024-04-09,0.12331161608135649
2024-04-10,-0.32719533635606307
2024-04-11,0.16365348399246926
2024-04-12,0.35190833887990436
2024-04-15,-0.07256919999740528
2024-04-16,-0.04739668525725724
2024-04-17,0.15285440828735697
2024-04-18,0.10222535162294087
2024-04-19,-0.46498526195682854
2024-04-22,0.04859591944322275
2024-04-23,0.1958526649451999
2024-04-24,0.2441193344807767
2024-04-25,-0.06895776450920241
2024-04-26,0.38554151231204836
2024-04-29,-0.02255691697457092
2024-04-30,-0.026219293308713892
2024-05-06,-0.3028170089632598
2024-05-07,-0.07399912305510707
2024-05-08,-0.23222675858557182
2024-05-09,0.013156465595904186
2024-05-10,-0.3639238784974554
2024-05-13,0.14660762694742835
2024-05-14,0.13283143400456793
2024-05-15,0.011446161034437172
2024-05-16,-0.010774089111801596
2024-05-17,0.23405870445344354
2024-05-20,-0.15538682319739372
2024-05-21,-0.06980808641856977
2024-05-22,-0.04622944622944562
2024-05-23,-0.057006934365424033
2024-05-24,0.03422732174742991
2024-05-27,0.10178379540081689
2024-05-28,-0.07858956322725488
2024-05-29,0.038084549195659054
2024-05-30,0.28287379751814784
2024-05-31,0.04525045804456736
2024-06-03,0.2603769655316048
2024-06-04,0.05318664047151364
2024-06-05,0.07768539514571299
2024-06-06,-0.39077978042413125
2024-06-07,-0.2524168523435989
2024-06-11,-0.497929456735781
2024-06-12,-0.07016696269982392
2024-06-13,0.09597247990105098
2024-06-14,0.05726041098381461
2024-06-17,0.0329059412903981
2024-06-18,0.12172102478905078
2024-06-19,0.3926573678170952
2024-06-20,-0.36232517482517507
2024-06-21,0.11031954490259327
2024-06-24,0.13619287340970299
2024-06-25,0.014922939808275443
2024-06-26,-0.6618157063220911
2024-06-27,0.1991221991222
2024-06-28,-0.1319620407367705
2024-07-01,-0.03271844660194224
2024-07-02,0.08912734848903897
2024-07-03,0.29561101549053176
2024-07-04,-0.010829010829010607
2024-07-05,0.13132682200057774
2024-07-08,0.006501650165017735
2024-07-09,0.08414770048433146
2024-07-10,0.04456384323641222
2024-07-11,0.005139110402267971
2024-07-12,-0.061339871929964644
2024-07-15,-0.06195619561956273
2024-07-16,-0.22763347763347436
2024-07-17,-0.016122284794853517
2024-07-18,-0.0029561082192675146
2024-07-19,-0.05811574756384575
2024-07-22,0.041405962458592224
2024-07-23,0.24893534649632207
2024-07-24,-0.032582345191038156
2024-07-25,0.184463335406732
2024-07-26,0.13339728984290544
2024-07-29,-0.051166140930426936
2024-07-30,0.10532150776052732
2024-07-31,0.058373590982285825
2024-08-01,-0.15682430776770234
2024-08-02,0.20992555831265575
2024-08-05,0.15074317921093328
2024-08-06,-0.3719851576994384
2024-08-07,0.07475696955089471
2024-08-08,0.13780663780663616
2024-08-09,-0.42188328912466855
2024-08-12,-0.18587753125991324
2024-08-13,0.1198817306524481
2024-08-14,-0.1395717843657106
2024-08-15,-0.47033776223307466
2024-08-16,0.11154416588231805
2024-08-19,0.11072951075796825
2024-08-20,0.048372643848833205
2024-08-21,0.015542276418063779
2024-08-22,0.3419321711409158
2024-08-23,0.037851756594399544
2024-08-26,-0.020380434782608377
2024-08-27,-0.08258253448047062
2024-08-28,-0.008461666396276574
2024-08-29,0.046999695400550864
2024-08-30,0.033849668468267875
2024-09-02,-0.0027605499015410572
2024-09-03,0.02393530685080658
2024-09-04,-0.03211486422061508
2024-09-05,-0.21738925854399804
2024-09-06,-0.04510337884380411
2024-09-09,-0.03684341049449832
2024-09-10,0.14850734541076724
2024-09-11,0.17781203197660583
2024-09-12,0.20239480888128708
2024-09-13,0.07378991707232731
2024-09-18,0.016962450962078403
2024-09-19,0.11053616208255528
2024-09-20,-0.037080850566655055
2024-09-23,-0.02489478036558388
2024-09-24,-0.005742029380998638
2024-09-25,0.09387438614628893
2024-09-26,-0.40808144644461986
2024-09-27,-0.1289617594414723
2024-09-30,0.12383480825958706
2024-10-08,0.2923050168110394
2024-10-09,-0.08635166720908809
2024-10-10,0.21484497689236048
2024-10-11,0.008497298739412636
2024-10-14,-0.2250822122571013
2024-10-15,-0.6859763759738642
2024-10-16,0.03363730901528072
2024-10-17,0.23838915470494126
2024-10-18,0.17713832835456808
2024-10-21,0.010680176633690218
2024-10-22,0.3098857075527264
2024-10-23,-0.13401147626500082
2024-10-24,-0.5557151129125623
2024-10-25,0.16856835857552385
2024-10-28,0.057620426428008124
2024-10-29,0.1555874382273246
2024-10-30,0.189796363319235
2024-10-31,0.286624203821654
2024-11-01,-0.5511270069987679
2024-11-04,0.08096765570703063
2024-11-05,-0.2111722386796453
2024-11-06,-0.058430389699738156
2024-11-07,0.1562500000000021
2024-11-08,0.33756523093699164
2024-11-11,-0.1587693798449623
2024-11-12,0.03230069006019832
2024-11-13,-0.09195997239475422
2024-11-14,-0.31311274509804055
2024-11-15,-0.2950345694531738
2024-11-18,0.1640902366863908
2024-11-19,0.18144306903088958
2024-11-20,0.10535524920466252
2024-11-21,0.17108075457671373
2024-11-22,0.2700282547272325
2024-11-25,-0.06514112164214372
2024-11-26,-0.15500118793062395
2024-11-27,-0.10134036475499639
2024-11-28,0.014908204113559245
2024-11-29,-0.1409804267325022
2024-12-02,0.10601222516194049
2024-12-03,0.1081771041084974
2024-12-04,0.17463617463617315
2024-12-05,0.0038748938274778613
2024-12-06,0.26011292166952926
2024-12-09,-0.14694240415242638
2024-12-10,-0.0025107049823136635
2024-12-11,-0.11959898628503107
2024-12-12,-0.07061866227864563
2024-12-13,-0.3152724078719711
2024-12-16,0.05353409424926769
2024-12-17,-0.10764849631288562
2024-12-18,-0.021133055210369192
2024-12-19,-0.02190625466487567
2024-12-20,0.14428455586250244
2024-12-23,-0.21937866055512933
2024-12-24,-0.046136848521790695
2024-12-25,-0.03527838875231871
2024-12-26,0.10220673635307968
2024-12-27,0.030868310015546668
2024-12-30,0.15517732516735488
2024-12-31,0.13553313335151346
