date,FCT_Cr_Atr_Dfive
2019-12-06,
2019-12-09,
2019-12-10,
2019-12-11,
2019-12-12,
2019-12-13,
2019-12-16,
2019-12-17,
2019-12-18,
2019-12-19,
2019-12-20,0.1323529411764704
2019-12-23,-0.07228360957642704
2019-12-24,-0.27417275461968216
2019-12-25,-0.11969405032988847
2019-12-26,0.030487804878048787
2019-12-27,0.018366840407048828
2019-12-30,0.18089430894308947
2019-12-31,0.3076923076923077
2020-01-02,0.30505050505050507
2020-01-03,0.026781444285030993
2020-01-06,-0.0775786439403433
2020-01-07,-0.2212723158159417
2020-01-08,0.0
2020-01-09,-0.23921568627450976
2020-01-10,0.37822497420020645
2020-01-13,0.010757806549885725
2020-01-14,0.08410737981014586
2020-01-15,0.2577319587628866
2020-01-16,0.10588235294117651
2020-01-17,-0.5733390854184643
2020-01-20,0.10101110229976228
2020-01-21,0.10691165270373187
2020-01-22,-0.37484907588000366
2020-01-23,0.4693877551020407
2020-02-03,0.343806921675774
2020-02-04,0.04978627105858677
2020-02-05,-0.07274247491638777
2020-02-06,0.062472308373947634
2020-02-07,-0.5965553851598442
2020-02-10,-0.2845842531272993
2020-02-11,-0.31574966912459823
2020-02-12,-0.013795986622073795
2020-02-13,0.035036965605914565
2020-02-14,-0.1428323699421965
2020-02-17,0.09090084369046543
2020-02-18,0.15032018874283776
2020-02-19,-0.11713286713286697
2020-02-20,0.21259029927760564
2020-02-21,0.3729411764705883
2020-02-24,0.214794520547945
2020-02-25,0.4917541229385309
2020-02-26,0.3189033189033189
2020-02-27,-0.23996232191216296
2020-02-28,-0.004349627174813575
2020-03-02,-0.12153846153846146
2020-03-03,-0.5779054916985952
2020-03-04,-0.31729145558932803
2020-03-05,0.10435691495214011
2020-03-06,-0.23812643301670497
2020-03-09,0.0336105336105337
2020-03-10,0.028789293495175755
2020-03-11,0.6487704646384305
2020-03-12,-0.08206840720501923
2020-03-13,0.1521931115690315
2020-03-16,-0.16582207207207214
2020-03-17,0.09394378441031596
2020-03-18,-0.7431853582554518
2020-03-19,0.31297964631297964
2020-03-20,0.036292821102947674
2020-03-23,0.10041666666666664
2020-03-24,0.05987668417446908
2020-03-25,0.1474056603773585
2020-03-26,-0.48006911020609655
2020-03-27,-0.03200189640867608
2020-03-30,0.1516666666666667
2020-03-31,0.09090475963599975
2020-04-01,0.06918238993710689
2020-04-02,0.2172585289241777
2020-04-03,0.02652910832719235
2020-04-07,-0.23571428571428577
2020-04-08,-0.3245300533766535
2020-04-09,-0.01104343089189308
2020-04-10,-0.03354222313540179
2020-04-13,0.005302226935312848
2020-04-14,0.06962901439645633
2020-04-15,0.4150201612903226
2020-04-16,0.40969799661118284
2020-04-17,0.02904397602954832
2020-04-20,0.0020140900084190047
2020-04-21,0.007488668469643308
2020-04-22,-0.33990072674205996
2020-04-23,-0.5970998289876316
2020-04-24,-0.10524912282186366
2020-04-27,-0.26551850419366474
2020-04-28,-0.030986730485147683
2020-04-29,0.17810637190335032
2020-04-30,0.10576072172580836
2020-05-06,0.11788310829949927
2020-05-07,0.16594343857548904
2020-05-08,0.014155982905983147
2020-05-11,0.005680224403926931
2020-05-12,0.12139219015279565
2020-05-13,0.014005602240896739
2020-05-14,0.08665927568366805
2020-05-15,-0.034000873416929714
2020-05-18,-0.2167224080267538
2020-05-19,-0.007200460829486131
2020-05-20,-0.18921196797303183
2020-05-21,-0.08942517963136834
2020-05-22,0.23587749920659723
2020-05-25,0.22103034580098352
2020-05-26,0.1097154963680331
2020-05-27,0.3082595870206509
2020-05-28,0.07752041772660534
2020-05-29,-0.24174463401210605
2020-06-01,-0.21679699525891058
2020-06-02,-0.24267507554854592
2020-06-03,-0.31710914454277295
2020-06-04,0.09902597402597295
2020-06-05,-0.10044538209095052
2020-06-08,0.1562062098974831
2020-06-09,0.2530632658164537
2020-06-10,0.1028234302570559
2020-06-11,-0.2649999999999998
2020-06-12,0.32019810508182267
2020-06-15,0.03802197802198422
2020-06-16,-0.28940961655508124
2020-06-17,0.09256286784377223
2020-06-18,0.12924731182795582
2020-06-19,-0.2714863498483257
2020-06-22,-0.1697560975609793
2020-06-23,0.11928146807960788
2020-06-24,0.16934189406098868
2020-06-29,0.16369386464263336
2020-06-30,0.16992014196982347
2020-07-01,0.3212945590994384
2020-07-02,0.04903239834746469
2020-07-03,-0.3796400449943744
2020-07-06,-0.28501664816869987
2020-07-07,-0.06122448979591138
2020-07-08,-0.28762541806020164
2020-07-09,-0.03146591970121319
2020-07-10,0.23764348733516993
2020-07-13,0.32308670765316283
2020-07-14,0.1132075471698083
2020-07-15,-0.008658806190127016
2020-07-16,0.032788671023966674
2020-07-17,0.12037139383220863
2020-07-20,-0.021780466724281522
2020-07-21,-0.11978649453822814
2020-07-22,0.1840835110562371
2020-07-23,0.026885319053991337
2020-07-24,-0.3205675272029016
2020-07-27,-0.3025641025641037
2020-07-28,-0.10111336032389755
2020-07-29,-0.28899292075816413
2020-07-30,-0.04678287618559125
2020-07-31,0.17091772943235636
2020-08-03,0.4426116838488015
2020-08-04,0.3360387643852294
2020-08-05,0.689655172413792
2020-08-06,0.12174940898345153
2020-08-07,0.12622001654260084
2020-08-10,-0.27638361367336295
2020-08-11,-0.16783690255278605
2020-08-12,-0.6531531531531513
2020-08-13,-0.1465721040189148
2020-08-14,-0.23173076923077154
2020-08-17,-0.1348555211558311
2020-08-18,-0.18278029649820704
2020-08-19,0.09842678499394665
2020-08-20,-0.006419520996460135
2020-08-21,0.0454776805251645
2020-08-24,0.09639024973474192
2020-08-25,0.15772574040606469
2020-08-26,0.009987213962359298
2020-08-27,0.10310500370018172
2020-08-28,-0.031054603602086478
2020-08-31,0.08637861538706389
2020-09-01,-0.03545499804798754
2020-09-02,0.15688868690712637
2020-09-03,0.0018007202881129211
2020-09-04,0.19036941319549816
2020-09-07,-0.17077347873195542
2020-09-08,-0.03041825095056777
2020-09-09,-0.13175737584753616
2020-09-10,-0.1430252100840289
2020-09-11,-0.2727272727272698
2020-09-14,0.20496539792387286
2020-09-15,0.1873689235963058
2020-09-16,-0.01915184678522326
2020-09-17,0.03161290322580283
2020-09-18,0.20246868091377945
2020-09-21,-0.1980039525691653
2020-09-22,-0.15695067264573684
2020-09-23,0.13358727612937457
2020-09-24,0.11137922275844556
2020-09-25,-0.18684871311990103
2020-09-28,0.1290290571716782
2020-09-29,-0.18399999999999841
2020-09-30,-0.16835699797160314
2020-10-09,0.11690205390992693
2020-10-12,0.19104799867131872
2020-10-13,-0.13769177126917723
2020-10-14,0.2711559633027489
2020-10-15,0.10728468602631322
2020-10-16,-0.3349962207105047
2020-10-19,0.03487792725460867
2020-10-20,0.09601449275362477
2020-10-21,-0.21702609317287913
2020-10-22,-0.0884816424208089
2020-10-23,0.1498388829215912
2020-10-26,-0.3068783068783064
2020-10-27,-0.0635583524027479
2020-10-28,0.29770229770229795
2020-10-29,0.05472636815920174
2020-10-30,-0.02467696186574485
2020-11-02,0.2513227513227479
2020-11-03,0.11184210526315823
2020-11-04,-0.29560994560994747
2020-11-05,-0.006369426751590648
2020-11-06,0.042760632580992886
2020-11-09,-0.0808720112517555
2020-11-10,-0.13055365686944337
2020-11-11,0.32496087636932713
2020-11-12,-0.09951292618958298
2020-11-13,-0.02597840755735465
2020-11-16,-0.048016877637128384
2020-11-17,0.12828179015229046
2020-11-18,-0.24512830407100206
2020-11-19,0.15624206517139042
2020-11-20,0.006308579668348879
2020-11-23,0.10091954022988206
2020-11-24,-0.010091255854376632
2020-11-25,-0.06818382677860998
2020-11-26,-0.11605314288714852
2020-11-27,0.17872431506849248
2020-11-30,0.025747126436783046
2020-12-01,0.02302268286466358
2020-12-02,0.14589093701996902
2020-12-03,0.10037551158178845
2020-12-04,-0.25567388268156266
2020-12-07,0.025934959349588137
2020-12-08,-0.2101837946077323
2020-12-09,0.20202617470829207
2020-12-10,0.13198458574181127
2020-12-11,0.13449012692119405
2020-12-14,0.030380830124096384
2020-12-15,0.20222862374667733
2020-12-16,-0.31793040156757724
2020-12-17,-0.16666666666666632
2020-12-18,-0.042494522928155504
2020-12-21,-0.02460371736250097
2020-12-22,0.048111075565422476
2020-12-23,0.14389959005061048
2020-12-24,-0.03656491041913227
2020-12-25,-0.06347893573470889
2020-12-28,-0.2183787387778502
2020-12-29,-0.10344704394487057
2020-12-30,-0.20061441081037265
2020-12-31,0.032291406145628004
2021-01-04,0.10678436034597902
2021-01-05,-0.005442176870749438
2021-01-06,0.004739336492892139
2021-01-07,0.279649595687328
2021-01-08,0.02916976983366986
2021-01-11,-0.0029191499713283886
2021-01-12,0.1773855488141203
2021-01-13,-0.0642188903962374
2021-01-14,-0.21189126705943556
2021-01-15,-0.037716778380677426
2021-01-18,-0.11784706521548452
2021-01-19,-0.11302864326120197
2021-01-20,0.019278548878222612
2021-01-21,0.03321399747532125
2021-01-22,0.04560739806641263
2021-01-25,0.06397306397306042
2021-01-26,0.03186541316180361
2021-01-27,0.0790898939140103
2021-01-28,0.20766021782344804
2021-01-29,-0.13829147240186423
2021-02-01,-0.030606430606428363
2021-02-02,0.1010638297872305
2021-02-03,-0.06401451702958942
2021-02-04,-0.3204145763272519
2021-02-05,0.06891922130230566
2021-02-08,0.0738721194417345
2021-02-09,0.002464971458226828
2021-02-10,0.007884248830360922
2021-02-18,0.3476216313980791
2021-02-19,0.05129124820659947
2021-02-22,0.1890784565523232
2021-02-23,0.002016516228154866
2021-02-24,0.020945083014042448
2021-02-25,-0.038000906324848094
2021-02-26,0.12586919751926304
2021-03-01,-0.15142288799578235
2021-03-02,0.009924540682413885
2021-03-03,0.11280115066523194
2021-03-04,-0.24628589764158637
2021-03-05,-0.11665163489612826
2021-03-08,-0.2111442707924291
2021-03-09,-0.1215653153153148
2021-03-10,-0.21593667255075022
2021-03-11,0.3562885749554244
2021-03-12,-0.0837738190409145
2021-03-15,0.18856441656957385
2021-03-16,-0.0017291851045007564
2021-03-17,0.20553261393778657
2021-03-18,-0.5023942990717822
2021-03-19,0.08500760676924021
2021-03-22,-0.043847943890256286
2021-03-23,0.016943183297223004
2021-03-24,-0.20672972657357974
2021-03-25,0.2583890929214631
2021-03-26,-0.04228052037563558
2021-03-29,-0.030108377332674782
2021-03-30,0.06546312020681476
2021-03-31,0.03855996530037061
2021-04-01,0.06357980255039496
2021-04-02,0.020513118179709106
2021-04-06,-0.039904887465864125
2021-04-07,0.01833124247932754
2021-04-08,0.06155828610659079
2021-04-09,-0.1264334912455785
2021-04-12,-0.007756886619022808
2021-04-13,0.0336883208037352
2021-04-14,-0.08586967034438678
2021-04-15,0.03979639369636336
2021-04-16,0.02125611101513318
2021-04-19,0.08156003856668786
2021-04-20,-0.05105340575839756
2021-04-21,0.028442820304983414
2021-04-22,-0.03928571428571281
2021-04-23,-0.06834941482921575
2021-04-26,-0.22172423245613945
2021-04-27,0.274522927728943
2021-04-28,-0.09598629730531635
2021-04-29,-0.02127659574468262
2021-04-30,0.22375058022589966
2021-05-06,0.3935733955938675
2021-05-07,-0.26689917920273387
2021-05-10,0.5155946892399172
2021-05-11,0.09370650228673746
2021-05-12,0.03733068106469695
2021-05-13,-0.14123545414405503
2021-05-14,0.27860583851443055
2021-05-17,-0.4889301430143025
2021-05-18,-0.10400885391047685
2021-05-19,-0.17987726491562867
2021-05-20,-0.23926209051084618
2021-05-21,-0.41165729487876923
2021-05-24,0.03792735042735008
2021-05-25,0.06687306501547866
2021-05-26,-0.19905420666290236
2021-05-27,0.05409150221289405
2021-05-28,0.26260981478372547
2021-05-31,-0.04364989848860746
2021-06-01,0.14361962037211276
2021-06-02,0.2447585612219763
2021-06-03,0.11652838770975789
2021-06-04,-0.1067449046474589
2021-06-07,0.06364177995806147
2021-06-08,-0.3348277165137947
2021-06-09,-0.04430980615538643
2021-06-10,-0.10006192675905731
2021-06-11,0.006783062068018167
2021-06-15,0.078967877632654
2021-06-16,0.03175290466912166
2021-06-17,0.01020084437611415
2021-06-18,0.09143178704247851
2021-06-21,0.015029705473389804
2021-06-22,-0.06049822064056667
2021-06-23,0.15457932477607306
2021-06-24,0.05151913588101257
2021-06-25,-0.02354134415203483
2021-06-28,0.11967592592592874
2021-06-29,-0.05079365079365451
2021-06-30,-0.04045169576662561
2021-07-01,-0.0958910940460751
2021-07-02,0.04582389441544566
2021-07-05,-0.210806856187292
2021-07-06,0.16064213564213686
2021-07-07,0.09194470761469142
2021-07-08,-0.03516923863927034
2021-07-09,-0.17227082632312724
2021-07-12,0.1984522050245014
2021-07-13,-0.249633431085045
2021-07-14,-0.2027445961319695
2021-07-15,0.2700225753883435
2021-07-16,0.305961861422612
2021-07-19,-0.021194679940889236
2021-07-20,0.17448526169397505
2021-07-21,0.2336382113821133
2021-07-22,-0.3066415633318207
2021-07-23,-0.2729276895943552
2021-07-26,-0.14803850673415903
2021-07-27,0.18381820306110203
2021-07-28,-0.1948717473496916
2021-07-29,0.09246121745441285
2021-07-30,0.051109202150866756
2021-08-02,0.2054591463875228
2021-08-03,-0.33424614732237407
2021-08-04,0.14608949358112636
2021-08-05,0.1009166082060873
2021-08-06,0.2088642699438163
2021-08-09,-0.2021283508032065
2021-08-10,0.0439327570089844
2021-08-11,-0.16623256903159767
2021-08-12,-0.04104905853721224
2021-08-13,-0.2563939556946539
2021-08-16,0.178055429350297
2021-08-17,0.06589516678012494
2021-08-18,0.20013279341607138
2021-08-19,-0.03459459459459456
2021-08-20,0.07477572055735703
2021-08-23,-0.13419879360084075
2021-08-24,0.017199140042995567
2021-08-25,-0.111889329111616
2021-08-26,0.008758900543603426
2021-08-27,-0.03942151739052144
2021-08-30,-0.02093317120854494
2021-08-31,0.013700564971752921
2021-09-01,-0.013472543943314793
2021-09-02,-0.03610787961671995
2021-09-03,-0.013411402377880084
2021-09-06,0.0615835777126103
2021-09-07,0.34360068259385523
2021-09-08,0.09477069521318413
2021-09-09,0.14110245217238332
2021-09-10,0.16319388683689098
2021-09-13,0.09280303030303058
2021-09-14,-0.479519226787962
2021-09-15,-0.006902820920408732
2021-09-16,-0.05298240791643623
2021-09-17,0.05804837664674979
2021-09-22,0.01566650907289807
2021-09-23,0.1055566138991983
2021-09-24,0.020433683790190428
2021-09-27,0.0634993398855806
2021-09-28,-0.22436248763035582
2021-09-29,-0.16743180352687248
2021-09-30,0.06425917340267799
2021-10-08,-0.00038916091165865085
2021-10-11,-0.1767732913062371
2021-10-12,0.1375808784349533
2021-10-13,0.2816603369560834
2021-10-14,0.01640923675212476
2021-10-15,-0.16760692326966456
2021-10-18,0.004278569146426339
2021-10-19,-0.128549238894066
2021-10-20,-0.3075106960793012
2021-10-21,0.00551248565734537
2021-10-22,0.10906774789637702
2021-10-25,0.07306281412501865
2021-10-26,0.13831935383659538
2021-10-27,0.012260175721714117
2021-10-28,-0.13548437550781456
2021-10-29,-1.4988010832439613e-15
2021-11-01,-0.04195121951219518
2021-11-02,-0.08135899967094463
2021-11-03,0.24595146233077253
2021-11-04,0.011004620737845076
2021-11-05,-0.03949345991875089
2021-11-08,-0.00616578390984928
2021-11-09,-0.08932647196994153
2021-11-10,-0.37878286323296106
2021-11-11,0.09133958473579071
2021-11-12,0.04390656790019756
2021-11-15,-0.05797287334603486
2021-11-16,0.08861476457017942
2021-11-17,0.18899040583168542
2021-11-18,-0.24383264163690854
2021-11-19,-0.015183031067053532
2021-11-22,0.08530969672653196
2021-11-23,-0.07782512626262626
2021-11-24,-0.061440736734071924
2021-11-25,0.20165843330981054
2021-11-26,-0.1735730334462573
2021-11-29,0.010144120739777536
2021-11-30,0.10006677350427243
2021-12-01,0.2072705050355188
2021-12-02,0.0425545625667725
2021-12-03,0.17507200963866573
2021-12-06,-0.05426788188095889
2021-12-07,-0.04224592097789981
2021-12-08,-0.01642229708523056
2021-12-09,-0.014967485382938885
2021-12-10,-0.06258005583903636
2021-12-13,0.03290872525859051
2021-12-14,-0.02511800164918013
2021-12-15,-0.2524635698776689
2021-12-16,-0.028827272015703672
2021-12-17,0.0393010940718053
2021-12-20,0.0639830731417673
2021-12-21,0.08426368952684701
2021-12-22,0.05012915293488891
2021-12-23,-0.14712153518123758
2021-12-24,0.037978895332254674
2021-12-27,-0.21719544004406258
2021-12-28,-0.11776793725217716
2021-12-29,0.07068684797684273
2021-12-30,0.1301989150090459
2021-12-31,-0.05941446613088274
2022-01-04,0.171519971778137
2022-01-05,0.021989304014260268
2022-01-06,0.1186335403726716
2022-01-07,-0.024959327010837525
2022-01-10,0.051595255992649455
2022-01-11,0.0441465840086326
2022-01-12,0.037302303677250716
2022-01-13,0.022699386503067964
2022-01-14,0.28898367507751493
2022-01-17,-0.0042601311466079934
2022-01-18,-0.12306846679720991
2022-01-19,0.1258704542942428
2022-01-20,-0.28004928298339865
2022-01-21,-0.16045702930948824
2022-01-24,-0.03555411306502964
2022-01-25,0.12673340748980413
2022-01-26,-0.0991588562823263
2022-01-27,0.23443769091287797
2022-01-28,-0.2638713175492496
2022-02-07,0.159693347193346
2022-02-08,-0.10023279499490936
2022-02-09,-0.037085698352006924
2022-02-10,0.2967860794413247
2022-02-11,0.35656878401720826
2022-02-14,-0.14911836778180285
2022-02-15,0.1491516921896692
2022-02-16,0.0736725201499823
2022-02-17,-0.4784411815661788
2022-02-18,-0.2869622620750372
2022-02-21,0.029156368703039552
2022-02-22,-0.1940502962529403
2022-02-23,-0.08516223288968669
2022-02-24,0.03801156725969436
2022-02-25,0.26556604337891465
2022-02-28,-0.08387825575842367
2022-03-01,0.08404227149081527
2022-03-02,0.13960930485079967
2022-03-03,0.06209808812949223
2022-03-04,-0.3428073536063004
2022-03-07,0.1445628974040922
2022-03-08,0.15186465042987954
2022-03-09,0.003976432422118356
2022-03-10,0.1578968057422741
2022-03-11,0.20467958373271353
2022-03-14,-0.07006733203197454
2022-03-15,-0.2604648467150009
2022-03-16,-0.24987020504888885
2022-03-17,-0.38420838420838493
2022-03-18,-0.05427124805262418
2022-03-21,-0.08011729796384366
2022-03-22,0.10322945755132673
2022-03-23,0.11896690124929098
2022-03-24,0.2415450928381968
2022-03-25,0.22421852999155362
2022-03-28,0.014196151715574555
2022-03-29,0.034376199158880884
2022-03-30,0.08912273309567434
2022-03-31,5.247513891252359e-05
2022-04-01,-0.3461637693968841
2022-04-06,0.14570891557802484
2022-04-07,-0.10245958754616591
2022-04-08,-0.16752944169106343
2022-04-11,-0.04247390682813052
2022-04-12,0.36346289468547355
2022-04-13,-0.21756399851438113
2022-04-14,0.19594863447277844
2022-04-15,0.13313290483101733
2022-04-18,0.19385590830117982
2022-04-19,-0.39231057112688317
2022-04-20,0.30747312262549337
2022-04-21,-0.23847160857470068
2022-04-22,-0.027472527472526452
2022-04-25,-0.029831090022610363
2022-04-26,0.25207164248538855
2022-04-27,-0.2608962248516762
2022-04-28,0.16085250579632626
2022-04-29,-0.013782542113324392
2022-05-05,-0.2783419815775715
2022-05-06,-0.11836277466609271
2022-05-09,0.07539575311310705
2022-05-10,0.17833343089440867
2022-05-11,0.08264013209767435
2022-05-12,0.11668015605249057
2022-05-13,0.009565336624160772
2022-05-16,0.024533968269160947
2022-05-17,-0.4311029086077072
2022-05-18,-0.17330633273096602
2022-05-19,0.07031929392939969
2022-05-20,0.06675303380209648
2022-05-23,-0.0026797451714015465
2022-05-24,0.1510439560439571
2022-05-25,0.15057033603801873
2022-05-26,-0.14123711786423937
2022-05-27,-0.013455442708097416
2022-05-30,-0.09069043576683777
2022-05-31,0.10333446174678226
2022-06-01,-0.131900374329777
2022-06-02,0.026126326727527766
2022-06-06,0.05374313288790295
2022-06-07,0.057105044406530914
2022-06-08,-0.02692039358144429
2022-06-09,0.2694016098224921
2022-06-10,0.07617051013277648
2022-06-13,-0.15929149232915
2022-06-14,0.2128586579528127
2022-06-15,-0.04784263959391105
2022-06-16,-0.33746898263027353
2022-06-17,0.04452361056134583
2022-06-20,0.07882230153478986
2022-06-21,-0.23819509164336405
2022-06-22,0.2250000000000009
2022-06-23,0.2714932126696846
2022-06-24,-0.06416390626916979
2022-06-27,0.09506442888959772
2022-06-28,-0.03793208364872187
2022-06-29,-0.31111111111111056
2022-06-30,-0.22853415559772247
2022-07-01,0.09464136531805721
2022-07-04,-0.09866541353383618
2022-07-05,0.027306073022711368
2022-07-06,0.14497115625783724
2022-07-07,0.26590893083532685
2022-07-08,0.04010476276206798
2022-07-11,0.021505031614570923
2022-07-12,0.16938518997342555
2022-07-13,-0.06548655117082369
2022-07-14,-0.2141198122881951
2022-07-15,-0.2378634254557951
2022-07-18,-0.014286986501787788
2022-07-19,-0.05725426534250037
2022-07-20,0.07992704269672721
2022-07-21,0.08640173249327313
2022-07-22,0.15222261881881288
2022-07-25,0.017180632741271986
2022-07-26,-0.22936602870813455
2022-07-27,-0.1329159212880145
2022-07-28,-0.07352224166117
2022-07-29,-0.0513852503402759
2022-08-01,-0.061347229007217896
2022-08-02,0.16828423924956756
2022-08-03,0.10836835373652487
2022-08-04,0.039257930550410665
2022-08-05,-0.08712080483332396
2022-08-08,0.2480535974961369
2022-08-09,0.013801735939418788
2022-08-10,0.040690275215503315
2022-08-11,0.1132734269388644
2022-08-12,0.11112869379798922
2022-08-15,-0.31095153757104366
2022-08-16,-0.00672618534003227
2022-08-17,-0.09723012958254336
2022-08-18,-0.21042909285460742
2022-08-19,0.08230238606807767
2022-08-22,0.201648009950249
2022-08-23,0.00444743572486261
2022-08-24,-0.08285937325750262
2022-08-25,0.14001365865772775
2022-08-26,-0.1755953973775759
2022-08-29,-0.2229342418343067
2022-08-30,0.04430580141905022
2022-08-31,0.18728804954817724
2022-09-01,-0.07210913506178475
2022-09-02,0.0659875236078536
2022-09-05,0.0826151273475681
2022-09-06,-0.044084119496854174
2022-09-07,-0.08402569197356756
2022-09-08,-0.05156259550649902
2022-09-09,0.02655781340007392
2022-09-13,0.02243252006160354
2022-09-14,-0.0447106890459376
2022-09-15,-0.020583132038239964
2022-09-16,0.12186520376175466
2022-09-19,0.007552584872171093
2022-09-20,0.02719872940242367
2022-09-21,-0.06648249277224183
2022-09-22,0.2313475997686522
2022-09-23,-0.08476658476658397
2022-09-26,0.02815689648429913
2022-09-27,0.024171133611275777
2022-09-28,0.05483831604636669
2022-09-29,-0.3286622569424663
2022-09-30,0.14784166757850997
2022-10-10,0.02727475673333421
2022-10-11,0.0002133004692600124
2022-10-12,0.08426800136503362
2022-10-13,0.07799410844150015
2022-10-14,-0.1523384056959375
2022-10-17,-0.19780752552050967
2022-10-18,-0.05017301038062283
2022-10-19,-0.0675911658962502
2022-10-20,0.03889472455648796
2022-10-21,0.023498205648306125
2022-10-24,0.31830274916433093
2022-10-25,-0.08082445576655682
2022-10-26,0.05685170286940057
2022-10-27,0.022013546798034703
2022-10-28,0.09577677224736095
2022-10-31,-0.1467552452801829
2022-11-01,0.23378834402456125
2022-11-02,0.04905270200407498
2022-11-03,-0.02459513054974662
2022-11-04,0.12745587745587852
2022-11-07,-0.12190451178008951
2022-11-08,-0.09091117399722518
2022-11-09,-0.16755539755895055
2022-11-10,0.10774659279330422
2022-11-11,-0.38576134010916685
2022-11-14,0.07814674690764885
2022-11-15,-0.14816441525886687
2022-11-16,0.20215810462115735
2022-11-17,-0.15059568131049714
2022-11-18,0.18639039855072576
2022-11-21,-0.06726901943012466
2022-11-22,0.11976075383956376
2022-11-23,-0.19459226728666307
2022-11-24,0.1279479533748952
2022-11-25,0.04660560344827347
2022-11-28,0.0542686313588418
2022-11-29,0.021079167560608597
2022-11-30,0.04323592227952566
2022-12-01,-0.09487549692450598
2022-12-02,-0.1180882576332993
2022-12-05,0.4484231103140949
2022-12-06,-0.003396135103092758
2022-12-07,0.13518605074648954
2022-12-08,0.046681696176558984
2022-12-09,0.2404227317678304
2022-12-12,-0.6461113142263664
2022-12-13,-0.021920320593111168
2022-12-14,-0.17484186818008424
2022-12-15,0.09994849766393789
2022-12-16,-0.13825176058934313
2022-12-19,0.37722501141031484
2022-12-20,0.10164835164835598
2022-12-21,0.09577067432428764
2022-12-22,-0.08893808893809223
2022-12-23,-0.13478057889822637
2022-12-26,-0.19779184404149158
2022-12-27,-0.15720390720391056
2022-12-28,0.008566818248498656
2022-12-29,-0.15837781355022518
2022-12-30,0.19085213032581771
2023-01-03,0.11716962008762226
2023-01-04,-0.0233176838810634
2023-01-05,-0.026587515740243216
2023-01-06,0.1295042662717705
2023-01-09,-0.10952840817640463
2023-01-10,-0.23373663153035387
2023-01-11,0.29820409445520824
2023-01-12,0.01830200641456011
2023-01-13,-0.018082499677590517
2023-01-16,0.042776161706569206
2023-01-17,0.05804606438372009
2023-01-18,-0.3488989613308818
2023-01-19,-0.04196145969093103
2023-01-20,-0.07125949478890671
2023-01-30,0.17235423427195767
2023-01-31,0.22018508817880061
2023-02-01,0.17136874939911073
2023-02-02,0.09770521157289376
2023-02-03,0.23036672882409345
2023-02-06,-0.22233273153803856
2023-02-07,-0.06398436907200826
2023-02-08,-0.11322921451538909
2023-02-09,-0.1107754527294754
2023-02-10,-0.17724139029088992
2023-02-13,-0.01935948182799429
2023-02-14,-0.13858480088846764
2023-02-15,0.19274004683840912
2023-02-16,0.0719515410985472
2023-02-17,-0.07449955394174707
2023-02-20,0.019047619047619195
2023-02-21,0.20447044704470746
2023-02-22,-0.2704342824273813
2023-02-23,-0.11807439561102034
2023-02-24,0.19411489062599763
2023-02-27,-0.017268083704073102
2023-02-28,-0.37047111304537206
2023-03-01,0.2940503432494287
2023-03-02,0.08169124363826244
2023-03-03,-0.1415509111762454
2023-03-06,0.20334538457958218
2023-03-07,0.265195741758239
2023-03-08,-0.122026772873104
2023-03-09,0.03407015555135648
2023-03-10,0.09493981822648281
2023-03-13,-0.1619193450102381
2023-03-14,0.018965326855127796
2023-03-15,-0.08052788200284967
2023-03-16,-0.008268012455707907
2023-03-17,0.00944070218411458
2023-03-20,-0.06659963052171211
2023-03-21,0.012341698692319367
2023-03-22,0.012644419682132944
2023-03-23,-0.08680012511729579
2023-03-24,-0.11518724751610149
2023-03-27,0.24763459359053475
2023-03-28,-0.11408020532856764
2023-03-29,0.2274240362742814
2023-03-30,0.07342939158619163
2023-03-31,0.0668762563746803
2023-04-03,-0.1853458560213382
2023-04-04,-0.04103606743077344
2023-04-06,-0.12045786623796445
2023-04-07,0.022916404387418224
2023-04-10,0.1046755938520284
2023-04-11,-0.012468548367006276
2023-04-12,0.18135766270485498
2023-04-13,-0.22810724957600753
2023-04-14,0.070434095330734
2023-04-17,-0.14466746955707382
2023-04-18,-0.06153419895973539
2023-04-19,0.11413603572655454
2023-04-20,0.3838108533315575
2023-04-21,-0.16022171787709155
2023-04-24,0.1814403266199464
2023-04-25,0.11303014328844371
2023-04-26,-0.23583441941289707
2023-04-27,-0.3715332286760838
2023-04-28,0.1307595313567192
2023-05-04,-0.30032797126346944
2023-05-05,-0.024251443001441553
2023-05-08,0.06161839153833122
2023-05-09,0.30401680231031536
2023-05-10,-0.1284801354380828
2023-05-11,0.2396557431314133
2023-05-12,0.04126291989663865
2023-05-15,-0.018104802896767604
2023-05-16,-0.29542204511220704
2023-05-17,0.08905956052055061
2023-05-18,-0.23365974046652352
2023-05-19,0.1935525859076742
2023-05-22,0.20932009167303242
2023-05-23,0.20775139664804435
2023-05-24,-0.046797385620914955
2023-05-25,0.21156460529893345
2023-05-26,-0.3056676079064159
2023-05-29,-0.3143109931431092
2023-05-30,0.05132113821138278
2023-05-31,0.05791326749677733
2023-06-01,-0.0713208827767296
2023-06-02,0.10970168281489112
2023-06-05,0.02018522521324194
2023-06-06,-0.22300227965058772
2023-06-07,-0.09393489620397098
2023-06-08,0.008722460335361525
2023-06-09,-0.2118479467258618
2023-06-12,0.13200455580865467
2023-06-13,0.2554396448405654
2023-06-14,0.05013927576601598
2023-06-15,0.005899910370094716
2023-06-16,0.19422206752523674
2023-06-19,-0.11104651162790632
2023-06-20,-0.3320170173332474
2023-06-21,-0.011406844106463827
2023-06-26,-0.006813512896600139
2023-06-27,-0.03705649859496195
2023-06-28,0.049235488005859925
2023-06-29,0.23356727887212428
2023-06-30,-0.03422053231939183
2023-07-03,-0.11567575850444109
2023-07-04,0.03740456681633255
2023-07-05,-0.11707786526684097
2023-07-06,-0.1753597853483992
2023-07-07,0.06901918929135271
2023-07-10,0.2680933409220234
2023-07-11,0.2555322932847071
2023-07-12,0.17185763888888722
2023-07-13,0.1650042039287607
2023-07-14,-0.041442354381743686
2023-07-17,-0.1228361344537811
2023-07-18,-0.4420906221580267
2023-07-19,0.04754849137931198
2023-07-20,0.14831756746754393
2023-07-21,0.04471720818291437
2023-07-24,-0.012748281130632233
2023-07-25,0.09794596084918646
2023-07-26,0.25086206896551827
2023-07-27,-0.2140483859495822
2023-07-28,0.20084656084655983
2023-07-31,-0.0656120183018654
2023-08-01,0.19828525312871847
2023-08-02,-0.4655199687671232
2023-08-03,0.13692729518277208
2023-08-04,-0.3325232044343929
2023-08-07,0.15411754262828387
2023-08-08,-0.20365319142348592
2023-08-09,-0.010756702281518593
2023-08-10,-0.31881915174675524
2023-08-11,0.07067521297266716
2023-08-14,-0.08815920398009884
2023-08-15,0.10658251319355203
2023-08-16,0.12638672240593965
2023-08-17,0.4719720666327195
2023-08-18,0.027532042860061733
2023-08-21,0.329132420091325
2023-08-22,0.1045023272466898
2023-08-23,0.0646904135787723
2023-08-24,-0.12137704319240289
2023-08-25,0.042250482282466036
2023-08-28,-0.3658891768480829
2023-08-29,-0.08907862037804001
2023-08-30,0.07256802013356219
2023-08-31,-0.2951130319148937
2023-09-01,0.1845152702292616
2023-09-04,0.07190827190827334
2023-09-05,-0.0836977155898741
2023-09-06,-0.21733638400304978
2023-09-07,0.20905323311367402
2023-09-08,-0.3465255314232909
2023-09-11,-0.23632026887840896
2023-09-12,-0.030709683990729715
2023-09-13,0.06494792665005306
2023-09-14,-0.18995895345265662
2023-09-15,-0.010692401960784526
2023-09-18,0.13588736844550817
2023-09-19,0.10595317120270165
2023-09-20,0.030241322004541493
2023-09-21,0.5028063350930789
2023-09-22,0.10128367893920093
2023-09-25,0.12906247980874896
2023-09-26,-0.13235945458571896
2023-09-27,-0.044865966188453885
2023-09-28,-0.5847197460538318
2023-10-09,0.035971223021583336
2023-10-10,-0.11779239396239327
2023-10-11,0.09468822170900844
2023-10-12,-0.007671089637270263
2023-10-13,0.1249140387071432
2023-10-16,-0.004081632653060961
2023-10-17,-0.11915809947207409
2023-10-18,-0.014634146341463733
2023-10-19,0.12019382150229116
2023-10-20,0.032684758491210136
2023-10-23,0.10702280912365023
2023-10-24,0.1065027322404381
2023-10-25,0.03341348906446772
2023-10-26,-0.0972989003969503
2023-10-27,0.09292670202590989
2023-10-30,0.011214074670963123
2023-10-31,0.08612021857923242
2023-11-01,-0.038620612564275486
2023-11-02,-0.08627026623631288
2023-11-03,0.08516295025728962
2023-11-06,-0.19139102349927722
2023-11-07,0.21831443634000447
2023-11-08,0.10434831209479234
2023-11-09,0.365805247384197
2023-11-10,0.060112755461594516
2023-11-13,0.3206568249893049
2023-11-14,-0.29342936391394714
2023-11-15,-0.07529893912276661
2023-11-16,-0.3459095648876676
2023-11-17,-0.23641080610834148
2023-11-20,-0.3370380739081764
2023-11-21,0.08692898129517812
2023-11-22,0.16157841372317727
2023-11-23,0.13932008910433272
2023-11-24,0.06725700028942601
2023-11-27,0.1733271662041323
2023-11-28,0.1483520811670936
2023-11-29,-0.21298060968093596
2023-11-30,-0.01613016874247751
2023-12-01,0.07324559581186714
2023-12-04,-0.12957891133173502
2023-12-05,-0.26615744002373226
2023-12-06,0.057097222484231616
2023-12-07,0.029368575624082148
2023-12-08,-0.08830395373961229
2023-12-11,0.05590023024589888
2023-12-12,-0.04491087440638375
2023-12-13,0.17737570103503747
2023-12-14,-0.11591853111879785
2023-12-15,-0.0638498517572165
2023-12-18,-0.10424574955598555
2023-12-19,0.24286776954341105
2023-12-20,-0.44227883069226526
2023-12-21,0.12085121089791319
2023-12-22,0.10493227702529981
2023-12-25,0.13855398847437078
2023-12-26,-0.26148716912507586
2023-12-27,0.21453900709219903
2023-12-28,-0.20533001933167755
2023-12-29,-0.21414210789210714
2024-01-02,-0.17874800725835474
2024-01-03,0.34958609950004216
2024-01-04,0.2506927809872709
2024-01-05,0.15087888016242115
2024-01-08,0.18704178885630632
2024-01-09,0.1544083044982698
2024-01-10,-0.29421623501881566
2024-01-11,-0.3866603595080409
2024-01-12,-0.037761909236119044
2024-01-15,-0.015131653938222977
2024-01-16,0.11923131672597738
2024-01-17,0.09076921811105797
2024-01-18,0.24285714285714216
2024-01-19,-0.036731634182909534
2024-01-22,0.42682022422894295
2024-01-23,-0.08740522976945594
2024-01-24,0.023790632032155173
2024-01-25,-0.08749282845668349
2024-01-26,0.14046140195208834
2024-01-29,-0.6711708557959355
2024-01-30,-0.037725076855510735
2024-01-31,-0.1706950207468878
2024-02-01,0.0160642570281112
2024-02-02,-0.010026619343392301
2024-02-05,0.24870774227591147
2024-02-06,-0.22477492314448985
2024-02-07,0.1340397923875426
2024-02-08,-0.02777777777777647
2024-02-19,-0.1517080745341604
2024-02-20,0.0416205329368462
2024-02-21,0.289580280084678
2024-02-22,-0.017445715732491134
2024-02-23,-0.0327204428627928
2024-02-26,0.05941558441558407
2024-02-27,-0.13580973064277824
2024-02-28,-0.10924113098969641
2024-02-29,0.13201703445605836
2024-03-01,0.028498220640571878
2024-03-04,0.03512396694214861
2024-03-05,0.4683277962347732
2024-03-06,0.06112047823421164
2024-03-07,-0.09951690821255864
2024-03-08,0.07497994269340631
2024-03-11,0.015075833257652016
2024-03-12,-0.5666157372039731
2024-03-13,-0.10651993355481633
2024-03-14,0.0569978548631814
2024-03-15,-0.06662859134205606
2024-03-18,-0.10705730255903284
2024-03-19,0.2778939326926962
2024-03-20,0.23251199704687928
2024-03-21,-0.09570049149667267
2024-03-22,0.008168772487657206
2024-03-25,0.06386150464625363
2024-03-26,-0.18917304059771503
2024-03-27,-0.16981962699971473
2024-03-28,-0.08313512881565396
2024-03-29,0.09681898296247424
2024-04-01,0.06146488092833992
2024-04-02,0.08073097956277345
2024-04-03,-0.013146830023345202
2024-04-08,0.2658855858968979
2024-04-09,-0.061137086599462334
2024-04-10,-0.058942930620100115
2024-04-11,0.09931388943537316
2024-04-12,0.005266560865220749
2024-04-15,-0.28982732686068124
2024-04-16,-0.09031272130903038
2024-04-17,0.03304258997327914
2024-04-18,0.292180159546086
2024-04-19,0.17307026652820998
2024-04-22,0.28803145736053126
2024-04-23,0.13892790540808356
2024-04-24,0.024424323720101556
2024-04-25,-0.4042944003358729
2024-04-26,-0.18622430045275817
2024-04-29,-0.20176282051282135
2024-04-30,-0.04037081480435656
2024-05-06,0.025947172396078147
2024-05-07,-0.03104685949811868
2024-05-08,-0.017479403250943867
2024-05-09,-0.008644419306183176
2024-05-10,-0.0020674926142236205
2024-05-13,-0.1987174388546435
2024-05-14,0.061539609527821004
2024-05-15,0.025825825825825353
2024-05-16,0.0732741778948556
2024-05-17,0.1133471305147663
2024-05-20,0.22465851905104198
2024-05-21,-0.011693946662904511
2024-05-22,0.09460668722413457
2024-05-23,0.03790875681749052
2024-05-24,-0.31303280030562686
2024-05-27,-0.16362372567191702
2024-05-28,0.022320821433429082
2024-05-29,-0.010753246154199043
2024-05-30,0.02361776006246053
2024-05-31,0.209587952046688
2024-06-03,0.18781998892726104
2024-06-04,-0.04750585432816612
2024-06-05,-0.14001328189235415
2024-06-06,-0.22812775197869073
2024-06-07,0.06371882086167897
2024-06-11,-0.2208285783087113
2024-06-12,-0.0029504654255310125
2024-06-13,0.144548788429242
2024-06-14,0.18155041230602237
2024-06-17,-0.20485933503836418
2024-06-18,0.04619275461380866
2024-06-19,0.02068200809924716
2024-06-20,-0.12387660918144201
2024-06-21,-0.0017619369033754564
2024-06-24,0.18550449632868687
2024-06-25,-0.07407249466951156
2024-06-26,0.09910814054546185
2024-06-27,0.04924295040977841
2024-06-28,-0.013666565992146065
2024-07-01,-0.15412758940533858
2024-07-02,0.2697375193000519
2024-07-03,-0.053790920001655224
2024-07-04,-0.004797072458545895
2024-07-05,0.05952380952380861
2024-07-08,0.1270035548755785
2024-07-09,-0.2082242301309239
2024-07-10,0.12227425791428327
2024-07-11,0.01574638772497339
2024-07-12,-0.20707070707070735
2024-07-15,-0.07677694071405217
2024-07-16,0.03708301502419219
2024-07-17,-0.25696556330972053
2024-07-18,0.025858458961475744
2024-07-19,0.12110904968048097
2024-07-22,-0.06265483896747248
2024-07-23,0.06359649122807012
2024-07-24,-0.02525376464026685
2024-07-25,-0.0971045197740126
2024-07-26,0.06066279722898001
2024-07-29,0.1688800852353718
2024-07-30,-0.045931360659714704
2024-07-31,0.3173283858998144
2024-08-01,0.20474340866290097
2024-08-02,0.017233592095980133
2024-08-05,-0.13772447554207562
2024-08-06,0.09441384736428113
2024-08-07,-0.2712848519689563
2024-08-08,-0.2188149013499488
2024-08-09,-0.14645943097998076
2024-08-12,0.043602626870787725
2024-08-13,-0.1993525570847798
2024-08-14,0.34122389957565735
2024-08-15,0.09663340031397699
2024-08-16,0.07809129675786028
2024-08-19,0.0002896113499641379
2024-08-20,0.14443274418801988
2024-08-21,-0.44878258502166746
2024-08-22,0.17780969722379128
2024-08-23,-0.06292841375287435
2024-08-26,0.007089220101253202
2024-08-27,0.02184516396845189
2024-08-28,0.32607701564380365
2024-08-29,-0.2837788750016822
2024-08-30,0.0957470974255438
2024-09-02,0.14564209701638747
2024-09-03,-0.12196969696969698
2024-09-04,-0.21097897642811678
2024-09-05,0.1498576680611741
2024-09-06,-0.03555582642613445
2024-09-09,-0.2411835806038784
2024-09-10,0.13736605599723578
2024-09-11,0.1953781512605034
2024-09-12,-0.09856630824372747
2024-09-13,0.0339214438595479
2024-09-18,0.07957822638788829
2024-09-19,-0.024370326894124848
2024-09-20,-0.18778801843317888
2024-09-23,0.027334465195246294
2024-09-24,0.10210801287892532
2024-09-25,0.12416722185209814
2024-09-26,-0.023076479298473663
2024-09-27,0.1426169922762373
2024-09-30,0.3048722602261623
2024-10-08,0.22275541337124982
2024-10-09,-0.15016208706390843
2024-10-10,-0.0028149802722529232
2024-10-11,-0.10291671287567881
2024-10-14,-0.3856258683844893
2024-10-15,-0.6551890854699564
2024-10-16,0.08750716423613387
2024-10-17,0.14853027136531463
2024-10-18,0.0711172956828677
2024-10-21,0.03486063304271329
2024-10-22,0.22358400078700746
2024-10-23,-0.10973662196760423
2024-10-24,-0.36863643483709235
2024-10-25,-0.05640192198982533
2024-10-28,0.218460758209712
2024-10-29,0.1230168095874967
2024-10-30,0.08192764549547092
2024-10-31,0.14512310606060558
2024-11-01,0.02036440555742514
2024-11-04,-0.2518101367658886
2024-11-05,-0.17793116671460116
2024-11-06,0.06905238747760123
2024-11-07,0.07802766339351702
2024-11-08,0.06750893825573492
2024-11-11,0.10352079170235103
2024-11-12,0.17616361815402437
2024-11-13,-0.1845573294629899
2024-11-14,-0.044818863061428335
2024-11-15,-0.0898128497009458
2024-11-18,-0.11916783543712098
2024-11-19,-0.1105898476622203
2024-11-20,0.01381916329284684
2024-11-21,0.0898972602739719
2024-11-22,-0.05327894971639824
2024-11-25,0.1504247876061963
2024-11-26,0.0036690085870409797
2024-11-27,0.12325229316947245
2024-11-28,-0.16544117647058817
2024-11-29,0.037732116806370626
2024-12-02,-0.13162561576354542
2024-12-03,0.04924653405665918
2024-12-04,0.13113367174280968
2024-12-05,0.13041370394311558
2024-12-06,0.016977879080095626
2024-12-09,0.0367032967032974
2024-12-10,0.17640091790658305
2024-12-11,-0.37269681742043603
2024-12-12,-0.11608012240923479
2024-12-13,0.010096818891400489
2024-12-16,0.2200844233707358
2024-12-17,-0.3707786851994542
2024-12-18,0.3892354882797216
2024-12-19,0.19865870226208782
2024-12-20,-0.022247739865851372
2024-12-23,-0.3214945739138348
2024-12-24,0.4208290985892469
2024-12-25,-0.24570533752595508
2024-12-26,-0.20096019823446776
2024-12-27,0.0322222222222272
2024-12-30,0.15513830158668396
2024-12-31,-0.362441752096921
