date,FCT_Demark_Atr_Dfive
2019-12-06,
2019-12-09,
2019-12-10,
2019-12-11,
2019-12-12,
2019-12-13,
2019-12-16,
2019-12-17,
2019-12-18,
2019-12-19,0.0
2019-12-20,0.09677419354838676
2019-12-23,0.07142857142857124
2019-12-24,0.037499999999999874
2019-12-25,0.03409090909090898
2019-12-26,0.037499999999999874
2019-12-27,0.037499999999999874
2019-12-30,0.1466666666666666
2019-12-31,0.35483870967741926
2020-01-02,0.8846153846153849
2020-01-03,0.9583333333333335
2020-01-06,0.8
2020-01-07,0.4137931034482758
2020-01-08,0.4137931034482758
2020-01-09,0.0
2020-01-10,0.5283018867924529
2020-01-13,0.5384615384615384
2020-01-14,0.6363636363636362
2020-01-15,0.7681159420289854
2020-01-16,0.8833333333333332
2020-01-17,0.4385964912280701
2020-01-20,0.5245901639344263
2020-01-21,0.609375
2020-01-22,0.26923076923076933
2020-01-23,0.6122448979591837
2020-02-03,0.860215053763441
2020-02-04,0.8773584905660378
2020-02-05,0.8600000000000002
2020-02-06,0.8865979381443301
2020-02-07,0.547945205479452
2020-02-10,0.2666666666666667
2020-02-11,0.0
2020-02-12,0.0
2020-02-13,0.0
2020-02-14,0.0
2020-02-17,0.0
2020-02-18,0.0
2020-02-19,0.0
2020-02-20,0.20370370370370366
2020-02-21,0.5294117647058824
2020-02-24,0.7142857142857142
2020-02-25,0.8846153846153847
2020-02-26,1.0
2020-02-27,0.9204545454545453
2020-02-28,0.9263157894736841
2020-03-02,0.9213483146067415
2020-03-03,0.6056338028169014
2020-03-04,0.29850746268656714
2020-03-05,0.4029850746268658
2020-03-06,0.18309859154929584
2020-03-09,0.2054794520547947
2020-03-10,0.23437500000000014
2020-03-11,0.7
2020-03-12,0.6494845360824743
2020-03-13,0.8024691358024691
2020-03-16,0.6477272727272727
2020-03-17,0.7402597402597404
2020-03-18,0.036363636363636244
2020-03-19,0.40963855421686746
2020-03-20,0.4431818181818182
2020-03-23,0.5405405405405405
2020-03-24,0.5925925925925926
2020-03-25,0.7868852459016393
2020-03-26,0.2807017543859649
2020-03-27,0.2115384615384615
2020-03-30,0.4142857142857143
2020-03-31,0.5
2020-04-01,0.5774647887323944
2020-04-02,0.9574468085106381
2020-04-03,0.9615384615384613
2020-04-07,0.6739130434782608
2020-04-08,0.20370370370370383
2020-04-09,0.2000000000000002
2020-04-10,0.1346153846153845
2020-04-13,0.11764705882352935
2020-04-14,0.1538461538461538
2020-04-15,0.8780487804878052
2020-04-16,0.9797979797979799
2020-04-17,0.9902528889633228
2020-04-20,0.9907366142484243
2020-04-21,0.9994219838797727
2020-04-22,0.7559073724007553
2020-04-23,0.18736629667002927
2020-04-24,0.12016870886812304
2020-04-27,0.0
2020-04-28,0.0
2020-04-29,0.08136780650542136
2020-04-30,0.11688311688311762
2020-05-06,0.19696969696969865
2020-05-07,0.3513513513513537
2020-05-08,0.3714285714285743
2020-05-11,0.3714285714285743
2020-05-12,0.6521739130434691
2020-05-13,0.6799999999999922
2020-05-14,0.916666666666665
2020-05-15,0.7586206896551778
2020-05-18,0.3421052631578962
2020-05-19,0.32432432432434055
2020-05-20,0.12765957446809628
2020-05-21,0.021276595744688733
2020-05-22,0.3157894736842126
2020-05-25,0.5624999999999952
2020-05-26,0.6557377049180246
2020-05-27,0.925373134328355
2020-05-28,1.0
2020-05-29,0.8448275862068952
2020-06-01,0.5797101449275348
2020-06-02,0.3661971830985925
2020-06-03,0.060606060606061496
2020-06-04,0.16216216216216148
2020-06-05,0.14634146341463378
2020-06-08,0.21874999999999734
2020-06-09,0.4333333333333317
2020-06-10,0.5416666666666625
2020-06-11,0.27999999999999564
2020-06-12,0.5957446808510569
2020-06-15,0.6274509803921547
2020-06-16,0.35714285714285754
2020-06-17,0.4363636363636412
2020-06-18,0.5714285714285747
2020-06-19,0.26315789473685675
2020-06-22,0.09756097560976355
2020-06-23,0.14814814814815927
2020-06-24,0.3947368421052636
2020-06-29,0.5600000000000039
2020-06-30,0.739130434782607
2020-07-01,0.9491525423728823
2020-07-02,1.0
2020-07-03,0.6666666666666629
2020-07-06,0.453124999999997
2020-07-07,0.396551724137934
2020-07-08,0.02325581395349137
2020-07-09,5.635657433286747e-15
2020-07-10,0.20689655172414873
2020-07-13,0.7187499999999996
2020-07-14,0.7954545454545437
2020-07-15,0.7446808510638252
2020-07-16,0.7826086956521704
2020-07-17,0.8360655737704888
2020-07-20,0.8484848484848468
2020-07-21,0.800000000000007
2020-07-22,0.9833333333333432
2020-07-23,0.9846153846153937
2020-07-24,0.6515151515151568
2020-07-27,0.32812500000000167
2020-07-28,0.2727272727272683
2020-07-29,0.0714285714285687
2020-07-30,0.0
2020-07-31,0.0655737704917996
2020-08-03,0.4788732394366153
2020-08-04,0.7325581395348862
2020-08-05,0.9929577464788739
2020-08-06,1.0
2020-08-07,1.0
2020-08-10,1.0
2020-08-11,1.0
2020-08-12,0.6600000000000035
2020-08-13,0.5447761194029873
2020-08-14,0.2710280373831793
2020-08-17,0.15447154471544947
2020-08-18,0.0
2020-08-19,0.0
2020-08-20,0.0
2020-08-21,0.0
2020-08-24,0.0
2020-08-25,0.21487334216066986
2020-08-26,0.2371358758144898
2020-08-27,0.5806528472718706
2020-08-28,0.4839245419261747
2020-08-31,0.6461669394435365
2020-09-01,0.5934773452072921
2020-09-02,0.8387096774193528
2020-09-03,0.8461538461538428
2020-09-04,0.9999999999999972
2020-09-07,0.7425742574257385
2020-09-08,0.6880733944954128
2020-09-09,0.5666666666666635
2020-09-10,0.37894736842105364
2020-09-11,0.0
2020-09-14,0.2674418604651158
2020-09-15,0.5132743362831846
2020-09-16,0.4915254237288147
2020-09-17,0.5272727272727249
2020-09-18,0.7731958762886592
2020-09-21,0.5473684210526331
2020-09-22,0.2833333333333381
2020-09-23,0.5416666666666683
2020-09-24,0.7236842105263193
2020-09-25,0.42222222222222083
2020-09-28,0.6124999999999958
2020-09-29,0.3888888888888872
2020-09-30,0.22689075630251895
2020-10-09,0.32846715328466886
2020-10-12,0.5040650406504055
2020-10-13,0.38059701492537207
2020-10-14,0.6542056074766305
2020-10-15,0.7799999999999989
2020-10-16,0.42307692307692396
2020-10-19,0.45454545454545503
2020-10-20,0.5730337078651707
2020-10-21,0.32000000000000656
2020-10-22,0.23300970873786753
2020-10-23,0.3636363636363705
2020-10-26,0.012500000000003146
2020-10-27,0.0
2020-10-28,0.29268292682927194
2020-10-29,0.33802816901408694
2020-10-30,0.3200000000000003
2020-11-02,0.702127659574458
2020-11-03,0.8936170212765863
2020-11-04,0.3913043478260764
2020-11-05,0.3829787234042474
2020-11-06,0.45454545454544826
2020-11-09,0.28205128205128005
2020-11-10,0.047619047619047616
2020-11-11,0.6382978723404314
2020-11-12,0.46875000000000433
2020-11-13,0.43750000000000433
2020-11-16,0.3943661971831039
2020-11-17,0.5303030303030343
2020-11-18,0.15555555555555556
2020-11-19,0.4117647058823529
2020-11-20,0.42424242424242425
2020-11-23,0.6923076923076855
2020-11-24,0.679999999999993
2020-11-25,0.4722222222222222
2020-11-26,0.2631578947368421
2020-11-27,0.5423728813559342
2020-11-30,0.5714285714285751
2020-12-01,0.5970149253731343
2020-12-02,0.8333333333333341
2020-12-03,1.0
2020-12-04,0.6590909090909091
2020-12-07,0.6938775510204032
2020-12-08,0.36923076923076653
2020-12-09,0.5684210526315778
2020-12-10,0.6583333333333333
2020-12-11,0.7758620689655172
2020-12-14,0.7968750000000017
2020-12-15,1.0
2020-12-16,0.7788461538461523
2020-12-17,0.6849315068493138
2020-12-18,0.6406249999999994
2020-12-21,0.6161623663215042
2020-12-22,0.6872168620534614
2020-12-23,1.0
2020-12-24,0.8556862934596154
2020-12-25,0.7007925395250211
2020-12-28,0.4041396781529812
2020-12-29,0.20544180083070412
2020-12-30,0.0
2020-12-31,0.0
2021-01-04,0.12765957446808304
2021-01-05,0.13953488372092748
2021-01-06,0.14942528735631988
2021-01-07,0.5454545454545412
2021-01-08,0.5853658536585324
2021-01-11,0.5853658536585339
2021-01-12,1.0
2021-01-13,0.7808219178082162
2021-01-14,0.4444444444444429
2021-01-15,0.36666666666666753
2021-01-18,0.1562500000000014
2021-01-19,0.0
2021-01-20,0.0
2021-01-21,0.0
2021-01-22,0.1111111111111097
2021-01-25,0.15384615384614955
2021-01-26,0.19354838709677183
2021-01-27,0.4333333333333207
2021-01-28,0.830188679245283
2021-01-29,0.542857142857142
2021-02-01,0.500000000000002
2021-02-02,0.6202531645569604
2021-02-03,0.5454545454545467
2021-02-04,0.14473684210526047
2021-02-05,0.18644067796609914
2021-02-08,0.2931034482758514
2021-02-09,0.280701754385957
2021-02-10,0.2909090909090849
2021-02-18,0.8448275862069023
2021-02-19,0.9454545454545532
2021-02-22,0.9687500000000053
2021-02-23,0.9705882352941227
2021-02-24,1.0
2021-02-25,1.0
2021-02-26,1.0
2021-03-01,1.0
2021-03-02,1.0
2021-03-03,1.0
2021-03-04,0.7777777777777779
2021-03-05,0.729032258064516
2021-03-08,0.4623655913978492
2021-03-09,0.329545454545455
2021-03-10,0.06134969325153356
2021-03-11,0.45853658536585384
2021-03-12,0.38356164383561653
2021-03-15,0.5745856353591172
2021-03-16,0.5683060109289619
2021-03-17,0.76595744680851
2021-03-18,0.29556650246305616
2021-03-19,0.3636363636363655
2021-03-22,0.29999999999999893
2021-03-23,0.3167701863354037
2021-03-24,0.07189542483659783
2021-03-25,0.283333333333317
2021-03-26,0.15789473684208605
2021-03-29,0.09999999999998914
2021-03-30,0.25862068965515855
2021-03-31,0.3409090909090798
2021-04-01,0.5245901639344323
2021-04-02,0.5789473684210635
2021-04-06,0.4782608695652235
2021-04-07,0.513513513513522
2021-04-08,0.6767693080677595
2021-04-09,0.3306129247168611
2021-04-12,0.30707521630073065
2021-04-13,0.3983772470540958
2021-04-14,0.0
2021-04-15,0.25108459869847743
2021-04-16,0.2996367059377161
2021-04-19,0.5748901786302152
2021-04-20,0.4501502563196008
2021-04-21,0.5076923076923041
2021-04-22,0.4074074074074084
2021-04-23,0.3013698630137035
2021-04-26,3.4486524813294457e-15
2021-04-27,0.4018691588785094
2021-04-28,0.32575757575757935
2021-04-29,0.31386861313868764
2021-04-30,0.5174825174825181
2021-05-06,0.8128654970760224
2021-05-07,0.6357615894039724
2021-05-10,0.8875502008032125
2021-05-11,0.9163636363636365
2021-05-12,0.9287925696594429
2021-05-13,0.9272151898734179
2021-05-14,1.0
2021-05-17,0.8414985590778096
2021-05-18,0.774480712166172
2021-05-19,0.6920152091254741
2021-05-20,0.429065743944636
2021-05-21,0.0
2021-05-24,0.0
2021-05-25,0.06410256410256247
2021-05-26,0.04687499999999876
2021-05-27,0.05703422053231779
2021-05-28,0.20118343195265806
2021-05-31,0.1888888888888849
2021-06-01,0.33936651583710326
2021-06-02,0.6180555555555548
2021-06-03,0.7878787878787892
2021-06-04,0.643939393939398
2021-06-07,0.7657657657657684
2021-06-08,0.25663716814159465
2021-06-09,0.14851485148515067
2021-06-10,0.0
2021-06-11,0.0
2021-06-15,0.15740740740740533
2021-06-16,0.19540229885057311
2021-06-17,0.2093023255813955
2021-06-18,0.3466666666666746
2021-06-21,0.3714285714285772
2021-06-22,0.1698113207547401
2021-06-23,0.7083333333333371
2021-06-24,0.8157894736842054
2021-06-25,0.7812499999999892
2021-06-28,1.0
2021-06-29,0.7647058823529362
2021-06-30,0.6984126984126877
2021-07-01,0.4833333333333257
2021-07-02,0.5753424657534203
2021-07-05,0.18518518518518523
2021-07-06,0.4680851063829773
2021-07-07,0.591304347826089
2021-07-08,0.5354330708661436
2021-07-09,0.3605442176870763
2021-07-12,0.5563909774436109
2021-07-13,0.3146853146853171
2021-07-14,0.14189189189189313
2021-07-15,0.3757575757575775
2021-07-16,0.6158192090395485
2021-07-19,0.6091954022988505
2021-07-20,0.8013698630137001
2021-07-21,1.0
2021-07-22,0.7337662337662333
2021-07-23,0.4888888888888907
2021-07-26,0.3356643356643376
2021-07-27,0.5026178010471192
2021-07-28,0.3259668508287281
2021-07-29,0.40410958904109434
2021-07-30,0.4593158170521707
2021-08-02,0.680590896239747
2021-08-03,0.2946933265839845
2021-08-04,0.49176125961186024
2021-08-05,0.6159301691216579
2021-08-06,0.7817985570641368
2021-08-09,0.588211708099439
2021-08-10,0.6330682448677634
2021-08-11,0.4717989090704591
2021-08-12,0.4293785310734429
2021-08-13,0.09154929577464653
2021-08-16,0.31111111111111067
2021-08-17,0.3853211009174332
2021-08-18,0.7142857142857206
2021-08-19,0.6808510638297943
2021-08-20,0.9275362318840625
2021-08-23,0.6363636363636385
2021-08-24,0.6842105263157842
2021-08-25,0.20689655172412494
2021-08-26,0.281249999999991
2021-08-27,0.19565217391303644
2021-08-30,0.17307692307691713
2021-08-31,0.23214285714285818
2021-09-01,0.21666666666666992
2021-09-02,0.12903225806451926
2021-09-03,0.12500000000000475
2021-09-06,0.1860465116279156
2021-09-07,0.7552447552447613
2021-09-08,0.8385093167701891
2021-09-09,0.9073170731707337
2021-09-10,1.0
2021-09-13,1.0
2021-09-14,0.7333333333333351
2021-09-15,0.7377049180327884
2021-09-16,0.7205240174672511
2021-09-17,0.7655677655677677
2021-09-22,0.7845117845117865
2021-09-23,0.9831223628691934
2021-09-24,0.9849624060150333
2021-09-27,0.988023952095805
2021-09-28,0.7926421404682273
2021-09-29,0.594202898550725
2021-09-30,0.6614420062695955
2021-10-08,0.6697247706422038
2021-10-11,0.4323308270676708
2021-10-12,0.6580882352941164
2021-10-13,0.8999999999999997
2021-10-14,0.9083155650319826
2021-10-15,0.7047244094488181
2021-10-18,0.6978557504873293
2021-10-19,0.578740157480315
2021-10-20,0.22279792746114008
2021-10-21,0.199999999999998
2021-10-22,0.3344827586206895
2021-10-25,0.4688644688644682
2021-10-26,0.7152317880794702
2021-10-27,0.7224080267558527
2021-10-28,0.5000000000000026
2021-10-29,0.5
2021-11-01,0.4182509505703417
2021-11-02,0.13559322033897903
2021-11-03,0.7407407407407413
2021-11-04,0.757575757575755
2021-11-05,0.679389312977096
2021-11-08,0.6592592592592578
2021-11-09,0.4835164835164822
2021-11-10,0.0
2021-11-11,0.10000000000000006
2021-11-12,0.15706806282722716
2021-11-15,0.14051522248243725
2021-11-16,0.1837349397590391
2021-11-17,0.43884892086331395
2021-11-18,0.09055118110236603
2021-11-19,0.033472803347281435
2021-11-22,0.0777777777777808
2021-11-23,0.05701754385965036
2021-11-24,0.04980842911877495
2021-11-25,0.14414414414414775
2021-11-26,0.046632124352333985
2021-11-29,0.06122448979591793
2021-11-30,0.14556962025316178
2021-12-01,0.4885057471264334
2021-12-02,0.5482233502538043
2021-12-03,1.0
2021-12-06,0.8421564154327905
2021-12-07,0.7585926435352259
2021-12-08,0.757563333953563
2021-12-09,0.7454022779133852
2021-12-10,0.5699021903843543
2021-12-13,0.6564830742473418
2021-12-14,0.5830885544987641
2021-12-15,0.12727873547392246
2021-12-16,0.014925373134327517
2021-12-17,0.01834862385320998
2021-12-20,0.22627737226277628
2021-12-21,0.3863636363636382
2021-12-22,0.5000000000000019
2021-12-23,0.293413173652695
2021-12-24,0.3468208092485534
2021-12-27,0.1490384615384588
2021-12-28,0.05116279069767274
2021-12-29,0.06285714285714067
2021-12-30,0.09821428571428362
2021-12-31,0.0
2022-01-04,0.0961538461538442
2022-01-05,0.11904761904761621
2022-01-06,0.5230769230769285
2022-01-07,0.4657534246575289
2022-01-10,0.5797101449275284
2022-01-11,0.6506024096385472
2022-01-12,0.7499999999999949
2022-01-13,0.7831325301204777
2022-01-14,0.9631901840490802
2022-01-17,0.9634146341463419
2022-01-18,0.798850574712644
2022-01-19,0.8651162790697678
2022-01-20,0.58167330677291
2022-01-21,0.4642857142857171
2022-01-24,0.4242424242424276
2022-01-25,0.5685279187817296
2022-01-26,0.4480519480519485
2022-01-27,0.9210526315789485
2022-01-28,0.41463414634146195
2022-02-07,0.5915492957746467
2022-02-08,0.48514851485148114
2022-02-09,0.44549763033175216
2022-02-10,0.6568914956011721
2022-02-11,0.9180327868852454
2022-02-14,0.8825396825396802
2022-02-15,0.9472295514511869
2022-02-16,0.9825870646766153
2022-02-17,0.7089783281733752
2022-02-18,0.4062499999999994
2022-02-21,0.44217687074830153
2022-02-22,0.18283582089552375
2022-02-23,0.05058365758755245
2022-02-24,0.061904761904766265
2022-02-25,0.464285714285718
2022-02-28,0.35968379446640386
2022-03-01,0.4649999999999992
2022-03-02,0.652542372881354
2022-03-03,0.7738693467336669
2022-03-04,0.275109170305674
2022-03-07,0.4632034632034609
2022-03-08,0.6137071651090337
2022-03-09,0.625377643504532
2022-03-10,0.7274774774774777
2022-03-11,1.0
2022-03-14,1.0
2022-03-15,0.695512820512822
2022-03-16,0.4066852367688037
2022-03-17,0.07462686567164369
2022-03-18,0.022670025188917167
2022-03-21,0.0
2022-03-22,0.0
2022-03-23,0.0
2022-03-24,0.07042253521126922
2022-03-25,0.657534246575347
2022-03-28,0.6795404427441926
2022-03-29,0.7186250894269521
2022-03-30,0.8244228925722075
2022-03-31,0.8256715421193833
2022-04-01,0.3217439026045594
2022-04-06,0.5330703932739208
2022-04-07,0.39982316763967224
2022-04-08,0.22020009528346507
2022-04-11,0.18662443115909663
2022-04-12,0.5647058823529445
2022-04-13,0.3476702508960601
2022-04-14,0.5266666666666684
2022-04-15,0.6679536679536693
2022-04-18,0.7880597014925377
2022-04-19,0.4691011235955062
2022-04-20,0.6902887139107612
2022-04-21,0.5166240409207161
2022-04-22,0.4973404255319156
2022-04-25,0.4735376044568238
2022-04-26,0.751748251748251
2022-04-27,0.48571428571428654
2022-04-28,0.7303921568627476
2022-04-29,0.6995305164319254
2022-05-05,0.32188841201716833
2022-05-06,0.14018691588785154
2022-05-09,0.18518518518518598
2022-05-10,0.4719999999999993
2022-05-11,0.568421052631579
2022-05-12,0.7677725118483418
2022-05-13,0.7714285714285731
2022-05-16,0.7945205479452062
2022-05-17,0.23931623931623902
2022-05-18,0.04918032786885147
2022-05-19,0.12757201646090585
2022-05-20,0.19396551724138347
2022-05-23,0.1798245614035152
2022-05-24,0.3360655737705025
2022-05-25,0.7000000000000071
2022-05-26,0.3636363636363688
2022-05-27,0.3245614035087647
2022-05-30,0.20714285714284783
2022-05-31,0.37313432835819804
2022-06-01,0.18666666666665832
2022-06-02,0.21538461538460546
2022-06-06,0.3154362416107377
2022-06-07,0.3852459016393478
2022-06-08,0.318181818181828
2022-06-09,0.7465753424657577
2022-06-10,0.9401709401709496
2022-06-13,0.6268656716417995
2022-06-14,0.7971698113207549
2022-06-15,0.7407407407407386
2022-06-16,0.3909090909090867
2022-06-17,0.4393305439330498
2022-06-20,0.5223880597014858
2022-06-21,0.14814814814814653
2022-06-22,0.5072463768115911
2022-06-23,0.8730158730158706
2022-06-24,0.8100558659217846
2022-06-27,0.8687782805429856
2022-06-28,0.7649402390438259
2022-06-29,0.4692982456140375
2022-06-30,0.2107623318385674
2022-07-01,0.3279352226720674
2022-07-04,0.16425120772946922
2022-07-05,0.1857923497267762
2022-07-06,0.36029411764705827
2022-07-07,0.7894736842105231
2022-07-08,0.8222222222222196
2022-07-11,0.8587570621468921
2022-07-12,1.0
2022-07-13,0.9074889867841394
2022-07-14,0.6958762886597926
2022-07-15,0.35609756097561085
2022-07-18,0.3365853658536586
2022-07-19,0.18562874251497094
2022-07-20,0.335260115606939
2022-07-21,0.4900662251655674
2022-07-22,0.9587628865979408
2022-07-25,1.0
2022-07-26,0.3885714285714281
2022-07-27,0.21354166666666533
2022-07-28,0.12626262626262344
2022-07-29,0.03191489361701795
2022-08-01,0.0
2022-08-02,0.0
2022-08-03,0.1538461538461565
2022-08-04,0.21739130434783
2022-08-05,0.1208133843742369
2022-08-08,0.6308506042078561
2022-08-09,0.6492650045699235
2022-08-10,0.6929919107515895
2022-08-11,0.7801554935691459
2022-08-12,1.0
2022-08-15,0.5885700048093317
2022-08-16,0.5804478846608315
2022-08-17,0.4198470796644618
2022-08-18,0.034482758620686414
2022-08-19,0.23287671232876966
2022-08-22,0.5476190476190532
2022-08-23,0.5546875000000064
2022-08-24,0.4303030303030313
2022-08-25,0.6250000000000013
2022-08-26,0.3785714285714316
2022-08-29,0.116129032258069
2022-08-30,0.18452380952381003
2022-08-31,0.39007092198581506
2022-09-01,0.29285714285713776
2022-09-02,0.3660714285714241
2022-09-05,0.5124999999999938
2022-09-06,0.40909090909090395
2022-09-07,0.06521739130434578
2022-09-08,0.04918032786885154
2022-09-09,0.07407407407407263
2022-09-13,0.08888888888888735
2022-09-14,0.019230769230769194
2022-09-15,0.017543859649122823
2022-09-16,0.2631578947368362
2022-09-19,0.29999999999998744
2022-09-20,0.3749999999999902
2022-09-21,0.23999999999999683
2022-09-22,0.6777777777777836
2022-09-23,0.5416666666666711
2022-09-26,0.5769230769230821
2022-09-27,0.605504587155967
2022-09-28,0.6947368421052613
2022-09-29,0.2048192771084312
2022-09-30,0.44565217391303996
2022-10-10,0.48484848484848364
2022-10-11,0.4848484848484821
2022-10-12,0.6145833333333316
2022-10-13,0.7866666666666676
2022-10-14,0.5223880597014946
2022-10-17,0.2000000000000007
2022-10-18,0.12790697674418755
2022-10-19,0.0
2022-10-20,0.0
2022-10-21,0.0
2022-10-24,0.6249999999999922
2022-10-25,0.47058823529411425
2022-10-26,0.547619047619043
2022-10-27,0.5783132530120503
2022-10-28,0.6923076923076955
2022-10-31,0.5409836065573865
2022-11-01,1.0
2022-11-02,1.0
2022-11-03,0.9404761904761846
2022-11-04,0.9609374999999962
2022-11-07,0.7635135135135124
2022-11-08,0.7244094488188974
2022-11-09,0.5109489051094911
2022-11-10,0.6149068322981402
2022-11-11,0.23668639053254573
2022-11-14,0.28571428571428614
2022-11-15,0.18012422360248462
2022-11-16,0.35897435897435837
2022-11-17,0.18881118881118894
2022-11-18,0.3461538461538485
2022-11-21,0.28421052631579125
2022-11-22,0.4375000000000034
2022-11-23,0.017543859649122924
2022-11-24,0.28571428571427965
2022-11-25,0.39682539682538687
2022-11-28,0.5102040816326465
2022-11-29,0.5555555555555487
2022-11-30,0.6818181818181868
2022-12-01,0.4285714285714284
2022-12-02,0.13636363636363305
2022-12-05,0.7389666387937429
2022-12-06,0.740083498028104
2022-12-07,0.8395376860981856
2022-12-08,0.8804547045861698
2022-12-09,1.0
2022-12-12,0.533914769876971
2022-12-13,0.51652187334627
2022-12-14,0.36025757603039704
2022-12-15,0.4486868647684116
2022-12-16,0.27586206896551824
2022-12-19,0.7913043478260866
2022-12-20,0.8421052631578987
2022-12-21,1.0
2022-12-22,1.0
2022-12-23,0.6948051948051917
2022-12-26,0.48275862068965114
2022-12-27,0.19191919191918186
2022-12-28,0.20792079207920425
2022-12-29,0.0606060606060627
2022-12-30,0.2935779816513809
2023-01-03,0.47967479674797103
2023-01-04,0.4503816793893173
2023-01-05,0.411290322580647
2023-01-06,0.6419753086419724
2023-01-09,0.41791044776119174
2023-01-10,0.011363636363633791
2023-01-11,0.504201680672268
2023-01-12,0.5284552845528454
2023-01-13,0.5039370078740172
2023-01-16,0.561983471074379
2023-01-17,0.6538461538461575
2023-01-18,0.10714285714285281
2023-01-19,0.04651162790697401
2023-01-20,0.03883495145630829
2023-01-30,0.3028169014084525
2023-01-31,0.5342465753424663
2023-02-01,0.7583333333333365
2023-02-02,0.8382352941176475
2023-02-03,1.0
2023-02-06,0.8897058823529389
2023-02-07,0.8799999999999976
2023-02-08,0.6879432624113441
2023-02-09,0.5563909774436054
2023-02-10,0.2526315789473677
2023-02-13,0.2400000000000007
2023-02-14,0.0
2023-02-15,0.3394495412844042
2023-02-16,0.457142857142858
2023-02-17,0.36641221374045824
2023-02-20,0.3902439024390246
2023-02-21,0.6350364963503677
2023-02-22,0.3311258278145714
2023-02-23,0.23636363636363852
2023-02-24,0.4133333333333345
2023-02-27,0.4025974025974012
2023-02-28,0.12707182320441826
2023-03-01,0.331249999999998
2023-03-02,0.3897058823529391
2023-03-03,0.23809523809523722
2023-03-06,0.44055944055944335
2023-03-07,0.8313253012048197
2023-03-08,0.7627118644067818
2023-03-09,0.8030303030303023
2023-03-10,1.0
2023-03-13,0.8857142857142782
2023-03-14,0.9024390243902398
2023-03-15,0.5961538461538451
2023-03-16,0.5799999999999976
2023-03-17,0.6037735849056478
2023-03-20,0.43835616438355457
2023-03-21,0.46052631578946207
2023-03-22,0.4861111111111053
2023-03-23,0.34523809523809035
2023-03-24,0.17241379310344707
2023-03-27,0.5352014282387679
2023-03-28,0.3836754176611031
2023-03-29,0.6313969274741006
2023-03-30,0.7300521878763555
2023-03-31,0.8456262628135034
2023-04-03,0.6949655566749233
2023-04-04,0.5810946179764963
2023-04-06,0.3535239969081468
2023-04-07,0.421019509125239
2023-04-10,0.6144578313253047
2023-04-11,0.5862068965517279
2023-04-12,0.8915662650602422
2023-04-13,0.4957983193277379
2023-04-14,0.5620437956204395
2023-04-17,0.40833333333333227
2023-04-18,0.36029411764705876
2023-04-19,0.4596273291925477
2023-04-20,0.7931034482758629
2023-04-21,0.6627218934911263
2023-04-24,0.7766990291262158
2023-04-25,0.8888888888888896
2023-04-26,0.7643312101910827
2023-04-27,0.3708609271523177
2023-04-28,0.5163398692810467
2023-05-04,0.19496855345912037
2023-05-05,0.1513157894736866
2023-05-08,0.20422535211267753
2023-05-09,0.5703125000000006
2023-05-10,0.40322580645160994
2023-05-11,0.7916666666666646
2023-05-12,0.8240740740740699
2023-05-15,0.8155339805825201
2023-05-16,0.36036036036035735
2023-05-17,0.49019607843137264
2023-05-18,0.19354838709677358
2023-05-19,0.42196531791907826
2023-05-22,0.5867768595041339
2023-05-23,0.7767441860465126
2023-05-24,0.7440758293838887
2023-05-25,0.9680851063829814
2023-05-26,0.7547169811320772
2023-05-29,0.3816793893129782
2023-05-30,0.45270270270270513
2023-05-31,0.5312499999999993
2023-06-01,0.42857142857142805
2023-06-02,0.6147540983606574
2023-06-05,0.6465517241379333
2023-06-06,0.2796610169491528
2023-06-07,0.1271186440677996
2023-06-08,0.1315789473684233
2023-06-09,0.0
2023-06-12,0.10218978102189592
2023-06-13,0.41911764705881965
2023-06-14,0.48305084745762156
2023-06-15,0.49152542372881014
2023-06-16,1.0
2023-06-19,0.704225352112676
2023-06-20,0.0795454545454578
2023-06-21,0.07692307692308008
2023-06-26,0.06593406593406875
2023-06-27,0.0
2023-06-28,0.0
2023-06-29,0.4999999999999775
2023-06-30,0.36363636363634716
2023-07-03,0.1935483870967679
2023-07-04,0.2622950819672087
2023-07-05,0.18390804597700786
2023-07-06,0.040000000000000355
2023-07-07,0.08695652173913128
2023-07-10,0.38636363636363674
2023-07-11,0.6115107913669073
2023-07-12,0.7933884297520665
2023-07-13,1.0
2023-07-14,0.9532710280373802
2023-07-17,0.9431818181818143
2023-07-18,0.34999999999999337
2023-07-19,0.42222222222221883
2023-07-20,0.5905511811023604
2023-07-21,0.6384615384615391
2023-07-24,0.6299212598425219
2023-07-25,0.7843137254901965
2023-07-26,0.8777777777777779
2023-07-27,0.7708333333333339
2023-07-28,0.8513513513513511
2023-07-31,0.7631446432113778
2023-08-01,0.8719450760108783
2023-08-02,0.5945228224326053
2023-08-03,0.6877606137832504
2023-08-04,0.43085836490661783
2023-08-07,0.5674802550195074
2023-08-08,0.3803377133924563
2023-08-09,0.38416883793642526
2023-08-10,0.1624417102599101
2023-08-11,0.19101123595505567
2023-08-14,0.020408163265306527
2023-08-15,0.0793650793650779
2023-08-16,0.12195121951219295
2023-08-17,0.8765432098765407
2023-08-18,0.9466666666666609
2023-08-21,0.976744186046509
2023-08-22,0.981651376146787
2023-08-23,0.9917012448132767
2023-08-24,0.9918699186991857
2023-08-25,1.0
2023-08-28,0.9261363636363611
2023-08-29,0.9121621621621594
2023-08-30,0.9336734693877528
2023-08-31,0.5109170305676847
2023-09-01,0.6595744680851061
2023-09-04,0.7155172413793113
2023-09-05,0.6418338108882521
2023-09-06,0.4507462686567177
2023-09-07,0.6840148698884767
2023-09-08,0.28138528138528296
2023-09-11,0.10855263157894778
2023-09-12,0.10679611650485502
2023-09-13,0.12692307692307742
2023-09-14,0.0
2023-09-15,0.0
2023-09-18,0.0
2023-09-19,0.07746478873239245
2023-09-20,0.09701492537313211
2023-09-21,0.6578947368421035
2023-09-22,0.8012820512820491
2023-09-25,0.9122807017543844
2023-09-26,0.7213930348258683
2023-09-27,0.6682242990654204
2023-09-28,0.16847826086956608
2023-10-09,0.18343195266272308
2023-10-10,0.0
2023-10-11,2.0745542914007122e-15
2023-10-12,2.113331007127814e-15
2023-10-13,4.522528355253513e-15
2023-10-16,4.4338513286799216e-15
2023-10-17,2.8990566379830515e-15
2023-10-18,0.0
2023-10-19,0.18072289156626423
2023-10-20,0.21126760563380198
2023-10-23,0.39560439560439714
2023-10-24,0.5625000000000044
2023-10-25,0.6153846153846193
2023-10-26,0.45454545454546164
2023-10-27,0.6530612244898033
2023-10-30,0.6792452830188739
2023-10-31,0.8979591836734724
2023-11-01,0.7999999999999983
2023-11-02,0.5555555555555488
2023-11-03,0.6483516483516423
2023-11-06,0.3999999999999924
2023-11-07,0.6194029850746228
2023-11-08,0.6993464052287554
2023-11-09,0.9073170731707306
2023-11-10,0.9233870967741928
2023-11-13,1.0
2023-11-14,0.9218241042345279
2023-11-15,0.9166666666666669
2023-11-16,0.7170542635658925
2023-11-17,0.5321100917431208
2023-11-20,0.03311258278145688
2023-11-21,0.16438356164383458
2023-11-22,0.4377880184331789
2023-11-23,0.6237113402061841
2023-11-24,0.7411764705882325
2023-11-27,1.0
2023-11-28,1.0
2023-11-29,0.8636363636363652
2023-11-30,0.8617511520737345
2023-12-01,0.8888888888888905
2023-12-04,0.7424242424242452
2023-12-05,0.40099009900990285
2023-12-06,0.5000000000000011
2023-12-07,0.5495049504950504
2023-12-08,0.35742143575782803
2023-12-11,0.5002469079090904
2023-12-12,0.3896835833713524
2023-12-13,0.6544895309833253
2023-12-14,0.49442261809269744
2023-12-15,0.41934965563362353
2023-12-18,0.3366755265067233
2023-12-19,0.5590341707746818
2023-12-20,0.18775626945901186
2023-12-21,0.27794561933534745
2023-12-22,0.35409836065573735
2023-12-25,0.4721189591078066
2023-12-26,0.23443223443223432
2023-12-27,0.4383561643835618
2023-12-28,0.20231213872832268
2023-12-29,0.08636363636363659
2024-01-02,0.0
2024-01-03,0.23348017621145448
2024-01-04,0.4259927797833936
2024-01-05,0.5442477876106212
2024-01-08,0.7590361445783154
2024-01-09,1.0
2024-01-10,0.7181818181818216
2024-01-11,0.1333333333333421
2024-01-12,0.08411214953271601
2024-01-15,0.05660377358490599
2024-01-16,0.2753623188405773
2024-01-17,0.3727272727272682
2024-01-18,0.8767123287671146
2024-01-19,0.7356321839080362
2024-01-22,0.9049773755656088
2024-01-23,0.8975609756097539
2024-01-24,0.9036697247706402
2024-01-25,0.8571428571428559
2024-01-26,0.9638009049773765
2024-01-29,0.3532110091743143
2024-01-30,0.29500000000000426
2024-01-31,0.17991631799163568
2024-02-01,0.18614718614718975
2024-02-02,0.1296296296296292
2024-02-05,0.3333333333333333
2024-02-06,0.1509433962264131
2024-02-07,0.2285714285714252
2024-02-08,0.21238938053097114
2024-02-19,0.0
2024-02-20,0.08264462809917365
2024-02-21,0.4838709677419374
2024-02-22,0.44776119402985226
2024-02-23,0.39473684210526283
2024-02-26,0.5084745762711842
2024-02-27,0.2702702702702695
2024-02-28,0.0
2024-02-29,0.30864197530863874
2024-03-01,0.3472222222222217
2024-03-04,0.40579710144927483
2024-03-05,0.8814814814814845
2024-03-06,0.9411764705882381
2024-03-07,0.9304347826086992
2024-03-08,1.0
2024-03-11,1.0
2024-03-12,0.3423423423423398
2024-03-13,0.23015873015872862
2024-03-14,0.31205673758864994
2024-03-15,0.2180451127819556
2024-03-18,0.13013698630137016
2024-03-19,0.43157894736842484
2024-03-20,0.7391304347826101
2024-03-21,0.6285714285714301
2024-03-22,0.6407766990291264
2024-03-25,0.7764705882352941
2024-03-26,0.4567919286445382
2024-03-27,0.0
2024-03-28,0.0
2024-03-29,0.21326126996587982
2024-04-01,0.3186958107691007
2024-04-02,0.4312727825030352
2024-04-03,0.41253813744006895
2024-04-08,0.826514593278442
2024-04-09,0.7942316461468321
2024-04-10,0.7076923076923142
2024-04-11,0.8500000000000063
2024-04-12,0.8500000000000063
2024-04-15,0.3414634146341504
2024-04-16,0.23157894736842347
2024-04-17,0.28124999999999706
2024-04-18,0.5892857142857137
2024-04-19,0.7122641509433962
2024-04-22,0.9181034482758635
2024-04-23,1.0
2024-04-24,1.0
2024-04-25,0.893617021276597
2024-04-26,0.7483870967741925
2024-04-29,0.46551724137930806
2024-04-30,0.3608247422680417
2024-05-06,0.42592592592592454
2024-05-07,0.37398373983739525
2024-05-08,0.3538461538461545
2024-05-09,0.3484848484848501
2024-05-10,0.33846153846154037
2024-05-13,0.07236842105263187
2024-05-14,0.09166666666666755
2024-05-15,0.10476190476190553
2024-05-16,0.19767441860465165
2024-05-17,0.45238095238095405
2024-05-20,0.8738738738738778
2024-05-21,0.8290598290598308
2024-05-22,0.9333333333333325
2024-05-23,0.941935483870967
2024-05-24,0.4973821989528775
2024-05-27,0.30726256983240063
2024-05-28,0.3274853801169582
2024-05-29,0.2944785276073645
2024-05-30,0.3195266272189381
2024-05-31,0.7142857142857181
2024-06-03,1.0
2024-06-04,0.8435374149659852
2024-06-05,0.6130952380952365
2024-06-06,0.3497536945812783
2024-06-07,0.413333333333332
2024-06-11,0.17924528301886797
2024-06-12,0.18357487922705354
2024-06-13,0.3172043010752687
2024-06-14,0.5419847328244287
2024-06-17,0.24626865671641804
2024-06-18,0.29729729729729876
2024-06-19,0.3235294117647066
2024-06-20,0.11764705882353119
2024-06-21,0.09090909090908843
2024-06-24,0.40963855421686907
2024-06-25,0.317757009345793
2024-06-26,0.46218487394957813
2024-06-27,0.5339805825242688
2024-06-28,0.5151515151515139
2024-07-01,0.2680412371134013
2024-07-02,0.7052631578947371
2024-07-03,0.6500000000000005
2024-07-04,0.634146341463418
2024-07-05,0.7058823529411787
2024-07-08,0.9285714285714309
2024-07-09,0.609756097560975
2024-07-10,0.7440000000000007
2024-07-11,0.7749999999999969
2024-07-12,0.46258503401360324
2024-07-15,0.36029411764705693
2024-07-16,0.4049586776859488
2024-07-17,0.0
2024-07-18,0.05263157894737021
2024-07-19,0.09230769230769616
2024-07-22,0.0731707317073205
2024-07-23,0.18518518518518978
2024-07-24,0.18292682926829756
2024-07-25,0.09574468085106523
2024-07-26,0.19607843137254724
2024-07-29,0.40624999999999756
2024-07-30,0.33333333333332943
2024-07-31,0.7765957446808478
2024-08-01,0.973451327433627
2024-08-02,0.9758064516129021
2024-08-05,0.8225806451612905
2024-08-06,0.8716216216216227
2024-08-07,0.6187050359712254
2024-08-08,0.3740458015267201
2024-08-09,0.20454545454545517
2024-08-12,0.23275862068965542
2024-08-13,0.0
2024-08-14,0.40094875722686113
2024-08-15,0.5101055485325252
2024-08-16,0.6340780007572903
2024-08-19,0.632760249385984
2024-08-20,0.952094457396407
2024-08-21,0.132609948146726
2024-08-22,0.4467107680999629
2024-08-23,0.38746181431796967
2024-08-26,0.3939393939393929
2024-08-27,0.4160583941605832
2024-08-28,0.8272727272727266
2024-08-29,0.4845360824742264
2024-08-30,0.6363636363636371
2024-09-02,0.7578125000000004
2024-09-03,0.6043165467625907
2024-09-04,0.3787878787878802
2024-09-05,0.556521739130436
2024-09-06,0.5140186915887854
2024-09-09,0.14736842105263112
2024-09-10,0.35227272727272824
2024-09-11,0.670329670329669
2024-09-12,0.5108695652173906
2024-09-13,0.5599999999999996
2024-09-18,0.7272727272727283
2024-09-19,0.7083333333333325
2024-09-20,0.313432835820894
2024-09-23,0.3620689655172401
2024-09-24,0.5697674418604645
2024-09-25,0.725663716814159
2024-09-26,0.7102803738317764
2024-09-27,0.9423076923076926
2024-09-30,1.0
2024-10-08,1.0
2024-10-09,0.9109792284866467
2024-10-10,0.9117647058823526
2024-10-11,0.8372093023255811
2024-10-14,0.6053511705685616
2024-10-15,0.03092783505154564
2024-10-16,0.09025270758122739
2024-10-17,0.2432432432432439
2024-10-18,0.295950155763241
2024-10-21,0.3264604810996574
2024-10-22,0.5900621118012425
2024-10-23,0.4566473988439308
2024-10-24,0.07486631016042881
2024-10-25,0.0
2024-10-28,0.23195876288659759
2024-10-29,0.3465909090909091
2024-10-30,0.43137254901960775
2024-10-31,0.6874999999999991
2024-11-01,0.7333333333333324
2024-11-04,0.2658227848101263
2024-11-05,0.0485436893203879
2024-11-06,0.18333333333333332
2024-11-07,0.2621359223300967
2024-11-08,0.3781512605042017
2024-11-11,0.5348837209302334
2024-11-12,1.0
2024-11-13,0.5352112676056346
2024-11-14,0.4459459459459481
2024-11-15,0.23437500000000114
2024-11-18,0.1473684210526303
2024-11-19,0.0
2024-11-20,0.0
2024-11-21,0.14606741573033663
2024-11-22,0.13131313131313085
2024-11-25,0.27027027027026795
2024-11-26,0.2816901408450677
2024-11-27,0.465517241379308
2024-11-28,0.21212121212120993
2024-11-29,0.24999999999999858
2024-12-02,0.10606060606060648
2024-12-03,0.12727272727272732
2024-12-04,0.3513513513513525
2024-12-05,0.5344827586206905
2024-12-06,0.5636363636363618
2024-12-09,0.632653061224489
2024-12-10,0.7866666666666686
2024-12-11,0.3666666666666681
2024-12-12,0.2828282828282849
2024-12-13,0.29046750347156297
2024-12-16,0.46856545724076015
2024-12-17,0.19830087028595078
2024-12-18,0.47970299712752956
2024-12-19,0.6353739349952672
2024-12-20,0.6093974627355031
2024-12-23,0.3776595744680848
2024-12-24,0.678760680510127
2024-12-25,0.5149997087435133
2024-12-26,0.3369565217391285
2024-12-27,0.36046511627907113
2024-12-30,0.5254237288135626
2024-12-31,0.0
