date,FCT_Demark_Atr_Dfive
2015-04-16,
2015-04-17,
2015-04-20,
2015-04-21,
2015-04-22,
2015-04-23,
2015-04-24,
2015-04-27,
2015-04-28,
2015-04-29,0.2624999999999988
2015-04-30,0.2554204124801684
2015-05-04,0.4706448508180948
2015-05-05,0.49195171026157
2015-05-06,0.4951898734177236
2015-05-07,0.27393469839513224
2015-05-08,0.5912557193696009
2015-05-11,0.5176964607078598
2015-05-12,0.4864712514092465
2015-05-13,0.6129261363636368
2015-05-14,0.8209648016989759
2015-05-15,0.5757643224069038
2015-05-18,0.17945714676148966
2015-05-19,0.6007164784110858
2015-05-20,0.6992084873639798
2015-05-21,0.800101224172119
2015-05-22,0.8409310863408187
2015-05-25,1.0
2015-05-26,1.0
2015-05-27,0.9995075104654005
2015-05-28,0.9996181019667733
2015-05-29,0.9996253278381401
2015-06-01,0.9996366279069752
2015-06-02,0.9995903318312149
2015-06-03,1.0
2015-06-04,1.0
2015-06-05,1.0
2015-06-08,0.6895734597156423
2015-06-09,0.6555861845305676
2015-06-10,0.5982598827312267
2015-06-11,0.21370670596904806
2015-06-12,0.057086841194785784
2015-06-15,0.07145950627977297
2015-06-16,0.13015153660954382
2015-06-17,0.059467040673211916
2015-06-18,0.4117690675511053
2015-06-19,0.8300864484132515
2015-06-23,0.8803240106288835
2015-06-24,0.7976701504191092
2015-06-25,0.925055668176647
2015-06-26,0.9154014038628088
2015-06-29,0.9218621698152589
2015-06-30,0.932754326084924
2015-07-01,1.0
2015-07-02,1.0
2015-07-03,1.0
2015-07-06,1.0
2015-07-07,0.907421104536489
2015-07-08,0.8270382312298477
2015-07-09,0.5581668625146892
2015-07-10,0.3192507519824994
2015-07-13,0.01761127121357666
2015-07-14,0.014949714596357673
2015-07-15,0.0
2015-07-16,0.14113828250977392
2015-07-17,0.27525526044045096
2015-07-20,0.4221090605208213
2015-07-21,0.589276984234723
2015-07-22,0.7664388514434776
2015-07-23,0.5052950939467858
2015-07-24,0.27245898633566357
2015-07-27,0.34938307678250274
2015-07-28,0.22817370306494816
2015-07-29,0.6785463071512315
2015-07-30,0.6926759214935377
2015-07-31,0.5664513603444903
2015-08-03,0.3106185412610458
2015-08-04,0.3879872381745045
2015-08-05,0.09573622881355945
2015-08-06,0.09530714474031127
2015-08-07,0.10525549570534297
2015-08-10,0.32904838421710425
2015-08-11,0.15954415954415999
2015-08-12,0.24479618386817129
2015-08-13,0.30654357860439924
2015-08-14,0.2659599528857489
2015-08-17,0.002500000000000645
2015-08-18,0.7296641791044758
2015-08-19,0.7910297086818558
2015-08-20,0.8239005385527537
2015-08-21,0.9431279536515865
2015-08-24,1.0
2015-08-25,0.6535098403666879
2015-08-26,0.6495226451909649
2015-08-27,0.6633035470164794
2015-08-28,0.5128975747769808
2015-08-31,0.4904420788428935
2015-09-01,0.9505019761002228
2015-09-02,0.927233429394814
2015-09-07,0.6041250831670002
2015-09-08,0.7062146892655364
2015-09-09,0.5024027959807772
2015-09-10,0.11401305876443918
2015-09-11,0.06041283907921716
2015-09-14,0.23816114681166586
2015-09-15,0.16568153322586454
2015-09-16,0.29509924468645726
2015-09-17,0.44557522123893845
2015-09-18,0.72854671627823
2015-09-21,0.46285784960671433
2015-09-22,0.5741121309204426
2015-09-23,0.20445958002799752
2015-09-24,0.05900342750964781
2015-09-25,0.15285457939207023
2015-09-28,0.15857812424826317
2015-09-29,0.1733894104081376
2015-09-30,0.2623595211794135
2015-10-08,0.3610738255033553
2015-10-09,0.0
2015-10-12,0.20737913486004947
2015-10-13,0.2160371106693156
2015-10-14,0.23640319071790794
2015-10-15,0.510763209393344
2015-10-16,0.8352817090366825
2015-10-19,0.6450323229955931
2015-10-20,0.7460568278999768
2015-10-21,0.9146012679770644
2015-10-22,0.7913949210600955
2015-10-23,0.8163498574994299
2015-10-26,0.7313497776614998
2015-10-27,0.7722400821042072
2015-10-28,0.39052241178295616
2015-10-29,0.41265206812652006
2015-10-30,0.3620862587763287
2015-11-02,0.5805148914689555
2015-11-03,0.18673647469458998
2015-11-04,0.5239984133280445
2015-11-05,0.456303972366149
2015-11-06,0.49766977363515325
2015-11-09,0.3838129496402881
2015-11-10,0.5724248927038668
2015-11-11,0.0752920813500657
2015-11-12,0.1889648437500001
2015-11-13,0.09420610349402825
2015-11-16,0.25040650406503717
2015-11-17,0.4579409918392927
2015-11-18,0.8005154639175228
2015-11-19,0.8191887848179368
2015-11-20,0.9093048805746999
2015-11-23,0.7047657476867425
2015-11-24,0.3190057682238119
2015-11-25,0.2831527664625262
2015-11-26,0.008660283070719192
2015-11-27,0.6287085343062792
2015-11-30,0.7139382926277255
2015-12-01,0.8385398402392085
2015-12-02,0.8686359269932781
2015-12-03,1.0
2015-12-04,0.3866525423728876
2015-12-07,0.31198808637379594
2015-12-08,0.24417767106843152
2015-12-09,0.05113764361342958
2015-12-10,0.0
2015-12-11,0.0
2015-12-14,0.20132517838939407
2015-12-15,0.2190793122573444
2015-12-16,0.46856465005929443
2015-12-17,0.5532381997804625
2015-12-18,0.4983887478993135
2015-12-21,0.10670776111268108
2015-12-22,0.27093224854604026
2015-12-23,0.4667432673462111
2015-12-24,0.35588011972248434
2015-12-25,0.40899202052078815
2015-12-28,0.8625756146317554
2015-12-29,0.8583600627352428
2015-12-30,0.7371782798643456
2015-12-31,0.8752012882447655
2016-01-04,0.9618956131924412
2016-01-05,0.7932960893854747
2016-01-06,0.7916226680746217
2016-01-07,0.8815130260521055
2016-01-08,0.902714932126698
2016-01-11,0.81638044914135
2016-01-12,0.9244577412116682
2016-01-13,0.9430825584671739
2016-01-14,0.9115586690017515
2016-01-15,0.6520344352256874
2016-01-18,0.4131316911815822
2016-01-19,0.517462015102967
2016-01-20,0.14797967418105148
2016-01-21,0.13681738874719312
2016-01-22,0.11883037958587117
2016-01-25,0.13526379846843137
2016-01-26,0.21851046634668322
2016-01-27,0.5264336881966306
2016-01-28,0.458938630299437
2016-01-29,0.6077750780978823
2016-02-01,0.7544788273615639
2016-02-02,0.4453843324751744
2016-02-03,0.11418944215649535
2016-02-04,0.11988993710691813
2016-02-05,0.03231939163498059
2016-02-15,0.05007776049766801
2016-02-16,0.09133192389006466
2016-02-17,0.12653778558875375
2016-02-18,0.17453186022839376
2016-02-19,0.6026294997149182
2016-02-22,0.189332372559016
2016-02-23,0.07864492461041064
2016-02-24,0.33620882691709914
2016-02-25,0.7609132059755039
2016-02-26,0.7703421154290983
2016-02-29,0.9006350125295634
2016-03-01,1.0
2016-03-02,1.0
2016-03-03,0.558139534883721
2016-03-04,0.5884857460199925
2016-03-07,0.38527705541108104
2016-03-08,0.3894297635605002
2016-03-09,0.20767494356659089
2016-03-10,0.42547660311958296
2016-03-11,0.24391640423704516
2016-03-14,0.3480160174736085
2016-03-15,0.14390021296014713
2016-03-16,0.3454474404064101
2016-03-17,0.24854194706146415
2016-03-18,0.5007068998974327
2016-03-21,0.37164021487082716
2016-03-22,0.6572397965813501
2016-03-23,0.3542758418694504
2016-03-24,0.2621413558423825
2016-03-25,0.042549508306131786
2016-03-28,0.27622149704428534
2016-03-29,0.3040079292789777
2016-03-30,0.5131622971503927
2016-03-31,0.5551679023113785
2016-04-01,0.843733613004719
2016-04-05,0.7918994413407829
2016-04-06,0.5411355735805349
2016-04-07,0.2841352405721741
2016-04-08,0.43569922698524216
2016-04-11,0.23865546218487338
2016-04-12,0.1078373600471392
2016-04-13,0.3609022556390882
2016-04-14,0.34657039711190507
2016-04-15,0.2539259665521529
2016-04-18,0.2641601344386905
2016-04-19,0.43573838717098123
2016-04-20,0.7517446187784297
2016-04-21,0.9359537404356384
2016-04-22,0.970058609510994
2016-04-25,0.9897002129367396
2016-04-26,1.0
2016-04-27,0.27373232434174194
2016-04-28,0.1447963800904941
2016-04-29,0.06841046277666085
2016-05-03,0.32136313668010025
2016-05-04,0.2731559447625431
2016-05-05,0.6286821705426295
2016-05-06,0.7350663716814103
2016-05-09,0.8519855595667847
2016-05-10,0.44118796404845684
2016-05-11,0.5650154798761627
2016-05-12,0.6282051282051289
2016-05-13,0.42626195974925996
2016-05-16,0.27442905278921653
2016-05-17,0.531127313516544
2016-05-18,0.4813895781637718
2016-05-19,0.2631110313547884
2016-05-20,0.5430832663636473
2016-05-23,0.4821877915473951
2016-05-24,0.335106189152719
2016-05-25,0.13756231948502864
2016-05-26,0.3711126018576999
2016-05-27,0.1715158058582699
2016-05-30,0.45930802019702316
2016-05-31,0.729081415835877
2016-06-01,0.6882494004796148
2016-06-02,0.5068493150684936
2016-06-03,0.614240648940965
2016-06-06,0.4646420824295001
2016-06-07,0.04238998788857554
2016-06-08,0.09288194444444439
2016-06-13,0.4509235784136136
2016-06-14,0.40918880114859424
2016-06-15,0.6299970819959124
2016-06-16,0.9362532523850808
2016-06-17,0.9391194954154682
2016-06-20,0.6319788744073169
2016-06-21,0.7728444682848121
2016-06-22,0.45813140824963294
2016-06-23,0.4981612051295407
2016-06-24,0.5921383807613362
2016-06-27,0.760309480853302
2016-06-28,0.47909449451277863
2016-06-29,0.4959630643559783
2016-06-30,0.4005388414907915
2016-07-01,0.06598360655737552
2016-07-04,0.03920741989882164
2016-07-05,0.04388862671071485
2016-07-06,0.12148997134671041
2016-07-07,0.3168746608790045
2016-07-08,0.5834165834165892
2016-07-11,0.3779830638953062
2016-07-12,0.6664411366711829
2016-07-13,0.6348973607038173
2016-07-14,0.3635025754231093
2016-07-15,0.4421634822039324
2016-07-18,0.549979508496089
2016-07-19,0.11375564939818954
2016-07-20,0.10624325080941596
2016-07-21,0.4370358482146843
2016-07-22,0.3293017827386981
2016-07-25,0.35934178250698934
2016-07-26,0.6877739409046498
2016-07-27,0.9336629898239319
2016-07-28,0.9074889867841269
2016-07-29,0.9609329446064021
2016-08-01,0.986034912718198
2016-08-02,0.8892666342884873
2016-08-03,0.15526191599811484
2016-08-04,0.15015974440894994
2016-08-05,0.13976210705183123
2016-08-08,0.038917892738491805
2016-08-09,0.042421107087429855
2016-08-10,0.18426966292136035
2016-08-11,0.35696821515895083
2016-08-12,0.8425196850393716
2016-08-15,0.8599439775910369
2016-08-16,0.829729729729732
2016-08-17,0.9276773296244768
2016-08-18,0.9240883973045483
2016-08-19,0.4787864694642471
2016-08-22,0.11979824881709113
2016-08-23,0.44541641255689746
2016-08-24,0.449759226536568
2016-08-25,0.43164253115292467
2016-08-26,0.6489656087684139
2016-08-29,0.7009866682110906
2016-08-30,0.34607133923600697
2016-08-31,0.33247089262612867
2016-09-01,0.3216520650813452
2016-09-02,0.05781865965835491
2016-09-05,0.0822429906542207
2016-09-06,0.7271714922049191
2016-09-07,0.6265432098765628
2016-09-08,0.5351493848857782
2016-09-09,0.5337423312883506
2016-09-12,0.6257621951219542
2016-09-13,0.13974950560316018
2016-09-14,0.14877192982455636
2016-09-19,0.170478815052231
2016-09-20,0.18618262553100218
2016-09-21,0.0
2016-09-22,0.1931361570570093
2016-09-23,0.16946633911213385
2016-09-26,0.4982006118310035
2016-09-27,0.6543586899476291
2016-09-28,0.8024163039910006
2016-09-29,0.7975977036609083
2016-09-30,0.9064558629776096
2016-10-10,0.9443573667711644
2016-10-11,0.7446153846153922
2016-10-12,0.7622047244094489
2016-10-13,0.6802721088435376
2016-10-14,0.6921397379912625
2016-10-17,0.08221225710014331
2016-10-18,0.33125864453664555
2016-10-19,0.40025906735751066
2016-10-20,0.42225554040139646
2016-10-21,0.4313737046817905
2016-10-24,0.8548235251582859
2016-10-25,0.3489010043367984
2016-10-26,0.19939346185388657
2016-10-27,0.3072558840864589
2016-10-28,0.14975511755619572
2016-10-31,0.11156183596667968
2016-11-01,0.533612400876323
2016-11-02,0.6053811659192783
2016-11-03,0.6842105263157794
2016-11-04,0.616630669546426
2016-11-07,0.865979381443299
2016-11-08,0.7317596566523646
2016-11-09,0.8639825897714928
2016-11-10,0.5741525423728866
2016-11-11,0.66879659211928
2016-11-14,0.6877510040160622
2016-11-15,0.636377432235219
2016-11-16,0.12909470338712092
2016-11-17,0.2527403402458428
2016-11-18,0.1629082954577648
2016-11-21,0.11026333706239037
2016-11-22,0.21865123676107528
2016-11-23,0.7308094173405979
2016-11-24,0.5207435512405324
2016-11-25,0.8510914226804746
2016-11-28,0.816448152562577
2016-11-29,0.8084577114427898
2016-11-30,0.7867036011080379
2016-12-01,0.9516837481698502
2016-12-02,0.8149350649350572
2016-12-05,0.94915254237286
2016-12-06,0.7449392712550288
2016-12-07,0.6838235294117292
2016-12-08,0.41737288135590384
2016-12-09,0.2206047032474724
2016-12-12,0.6249999999999963
2016-12-13,0.6907860489328457
2016-12-14,0.7019667170953081
2016-12-15,0.8073466750136311
2016-12-16,1.0
2016-12-19,0.38048951881543003
2016-12-20,0.3028907397882518
2016-12-21,0.26433565563959843
2016-12-22,0.06961190883152585
2016-12-23,0.0
2016-12-26,0.3003481634145616
2016-12-27,0.31928334198084773
2016-12-28,0.3431372549019691
2016-12-29,0.5175600739371504
2016-12-30,0.5118829981718276
2017-01-03,0.0
2017-01-04,0.5416098226466479
2017-01-05,0.5272244355909631
2017-01-06,0.46216530849824816
2017-01-09,0.4841463414634166
2017-01-10,0.5293333333333405
2017-01-11,0.0
2017-01-12,0.4861963190184067
2017-01-13,0.7173100871731071
2017-01-16,0.8947619047619066
2017-01-17,0.9614217598612895
2017-01-18,0.9564467442863316
2017-01-19,0.9039648487391608
2017-01-20,0.8986906256441706
2017-01-23,0.25055957468017026
2017-01-24,0.07557741220341099
2017-01-25,0.08013045509724533
2017-01-26,0.07964801368046255
2017-02-03,0.0005633349762993841
2017-02-06,0.0019062164268850664
2017-02-07,0.3546517248925383
2017-02-08,0.6026315789473676
2017-02-09,0.8734177215189988
2017-02-10,0.39204545454544537
2017-02-13,0.42134831460674393
2017-02-14,0.2962376475863373
2017-02-15,0.10107811329514368
2017-02-16,0.11372446253346769
2017-02-17,0.6320679908928729
2017-02-20,0.7036204003740195
2017-02-21,0.8508148192544821
2017-02-22,0.8950405386064239
2017-02-23,0.8449805173826824
2017-02-24,0.4222882636689589
2017-02-27,0.20259319286873828
2017-02-28,0.0
2017-03-01,0.18560000000000673
2017-03-02,0.2154605263157947
2017-03-03,0.6188524590164058
2017-03-06,0.7531172069825199
2017-03-07,0.9096385542168198
2017-03-08,0.43764705882350974
2017-03-09,0.5295275590550937
2017-03-10,0.19253438113947774
2017-03-13,0.4555256064689933
2017-03-14,0.4940239043824655
2017-03-15,0.6369863013698636
2017-03-16,0.5419323970491519
2017-03-17,0.9377851667636589
2017-03-20,0.6042951914503427
2017-03-21,0.5898428693047892
2017-03-22,0.6765106526358838
2017-03-23,0.7110377928421853
2017-03-24,0.28839435933319935
2017-03-27,0.5183031412225683
2017-03-28,0.5242823832581767
2017-03-29,0.43450479233227696
2017-03-30,0.3633093525179948
2017-03-31,0.4590909090909147
2017-04-05,0.6315789473684124
2017-04-06,0.5894428152492576
2017-04-07,0.46743849493486644
2017-04-10,0.2946428571428498
2017-04-11,0.5734896302975634
2017-04-12,0.2981530343007955
2017-04-13,0.4233409610984054
2017-04-14,0.5262411347517759
2017-04-17,0.7610294117647085
2017-04-18,0.5635627530364371
2017-04-19,0.8250204415372016
2017-04-20,0.7632338787295396
2017-04-21,0.6498648808024453
2017-04-24,0.6547732395460835
2017-04-25,0.8468623780674525
2017-04-26,0.38484470387665887
2017-04-27,0.6121760719354999
2017-04-28,0.5373723051435739
2017-05-02,0.25845725583191775
2017-05-03,0.2679574645187032
2017-05-04,0.4523796971397264
2017-05-05,0.19054441260745186
2017-05-08,0.4384517766497502
2017-05-09,0.7629513343799089
2017-05-10,0.8297632468996633
2017-05-11,0.8393617021276606
2017-05-12,0.9315230224321113
2017-05-15,0.7274447949526759
2017-05-16,0.7652173913043435
2017-05-17,0.4639843825577446
2017-05-18,0.2843180654523486
2017-05-19,0.30178108781980334
2017-05-22,0.5148071700403604
2017-05-23,0.27283949029130755
2017-05-24,0.5777373597720027
2017-05-25,0.814147369506177
2017-05-26,0.8118027224902471
2017-05-31,0.7442880413338381
2017-06-01,0.9447115384615261
2017-06-02,0.9243421052631404
2017-06-05,0.2613636363636312
2017-06-06,0.2687898089172089
2017-06-07,0.1847690387016346
2017-06-08,0.11954765751212491
2017-06-09,0.0026212319790399298
2017-06-12,0.004020100502527538
2017-06-13,0.18166804293971245
2017-06-14,0.13213213213212632
2017-06-15,0.2773054175837367
2017-06-16,0.3359745935946557
2017-06-19,0.37053632052548346
2017-06-20,0.17230526103942057
2017-06-21,0.4026717614935696
2017-06-22,0.4897650897006054
2017-06-23,0.7557259361242001
2017-06-26,0.8016447633980114
2017-06-27,1.0
2017-06-28,0.9572243346007687
2017-06-29,0.635481023830547
2017-06-30,0.33934252386002894
2017-07-03,0.0030864197530933277
2017-07-04,0.0020597322348073137
2017-07-05,0.08965517241378586
2017-07-06,0.2712975098296119
2017-07-07,0.385435168738882
2017-07-10,0.9774774774774998
2017-07-11,0.9852941176470742
2017-07-12,0.9889135254989032
2017-07-13,0.8753315649867618
2017-07-14,0.7239819004525355
2017-07-17,0.9195323246217465
2017-07-18,0.913843888070706
2017-07-19,0.9174894217207468
2017-07-20,0.9240056818181916
2017-07-21,0.9761559403720076
2017-07-24,0.23753549812044325
2017-07-25,0.21251764457649844
2017-07-26,0.006114259677415556
2017-07-27,0.19860730891596323
2017-07-28,0.2355853797845914
2017-07-31,0.5396608528986877
2017-08-01,0.5088036430840219
2017-08-02,0.849083317060637
2017-08-03,0.4521410579345143
2017-08-04,0.45420326223339
2017-08-07,0.24119947848763604
2017-08-08,0.31174698795183026
2017-08-09,0.18292682926831036
2017-08-10,0.5767790262172233
2017-08-11,0.6719883889695043
2017-08-14,0.8942436412315823
2017-08-15,0.8499999999999969
2017-08-16,0.9486566594083562
2017-08-17,0.7183711050887647
2017-08-18,0.22659753600619878
2017-08-21,0.0006732074027756106
2017-08-22,0.023539539430393195
2017-08-23,0.14913822403043486
2017-08-24,0.16089347396714923
2017-08-25,0.5435130267559646
2017-08-28,0.9225619466688787
2017-08-29,0.928486293206198
2017-08-30,0.7809405940594141
2017-08-31,0.7602409638554339
2017-09-01,0.6533101045296438
2017-09-04,0.15499254843520416
2017-09-05,0.027243589743609554
2017-09-06,0.031716417910470134
2017-09-07,0.26800670016751016
2017-09-08,0.22343749999999032
2017-09-11,0.7658802177858142
2017-09-12,0.8841145833333238
2017-09-13,0.9189189189189136
2017-09-14,0.7782608695652176
2017-09-15,0.7915240345852133
2017-09-18,0.6168935906442938
2017-09-19,0.16508934328809338
2017-09-20,0.5287332888378695
2017-09-21,0.8545794375227709
2017-09-22,0.9603000839889966
2017-09-25,1.0
2017-09-26,0.6101066372636613
2017-09-27,0.49795451258045603
2017-09-28,0.24727838258164817
2017-09-29,0.14684287812041122
2017-10-09,0.0
2017-10-10,0.11130742049469963
2017-10-11,0.1139240506329076
2017-10-12,0.12574850299400753
2017-10-13,0.14482758620689312
2017-10-16,0.7494646680942205
2017-10-17,0.7297921478060106
2017-10-18,0.8156779661017222
2017-10-19,0.9318681318681513
2017-10-20,1.0
2017-10-23,0.4140504009965677
2017-10-24,0.4392478151881067
2017-10-25,0.3474573183967283
2017-10-26,0.4304265962045424
2017-10-27,0.2990152054537629
2017-10-30,0.9172575671850988
2017-10-31,0.9110793603497854
2017-11-01,0.9050100810693529
2017-11-02,0.8156288156288128
2017-11-03,0.9147217235188525
2017-11-06,0.43014705882353826
2017-11-07,0.4034482758620724
2017-11-08,0.4062500000000029
2017-11-09,0.38913525498892343
2017-11-10,0.0
2017-11-13,0.0
2017-11-14,0.09165687426557458
2017-11-15,0.1778916808128052
2017-11-16,0.19187065388595057
2017-11-17,0.7260311508432756
2017-11-20,0.973669336928501
2017-11-21,0.973566318369129
2017-11-22,0.9751518431124085
2017-11-23,1.0
2017-11-24,0.7082671374679976
2017-11-27,0.5089630401172326
2017-11-28,0.5327053898482479
2017-11-29,0.494337485843711
2017-11-30,0.12870012870012484
2017-12-01,0.29239766081871277
2017-12-04,0.34762456546929027
2017-12-05,0.4278455284552805
2017-12-06,0.35256410256410636
2017-12-07,0.5547550432276734
2017-12-08,0.5449189985272418
2017-12-11,0.4868421052631618
2017-12-12,0.07841328413283206
2017-12-13,0.07410636442893569
2017-12-14,0.06955810147298574
2017-12-15,0.0
2017-12-18,0.08213085421380938
2017-12-19,0.27132862426060617
2017-12-20,0.541971717149153
2017-12-21,0.9299185230722034
2017-12-22,0.7081266908822916
2017-12-25,0.7247435291636015
2017-12-26,0.7418322536540255
2017-12-27,0.7146784770001817
2017-12-28,0.30877573131094477
2017-12-29,0.608235294117645
2018-01-02,0.4183908045977007
2018-01-03,0.26514285714285185
2018-01-04,0.21225983531564235
2018-01-05,0.22437137330753776
2018-01-08,0.0
2018-01-09,0.0
2018-01-10,0.006403415154754334
2018-01-11,0.1869918699187046
2018-01-12,0.32357473035439716
2018-01-15,0.7116430903155634
2018-01-16,1.0
2018-01-17,1.0
2018-01-18,0.9986648865153549
2018-01-19,0.9987961573499547
2018-01-22,0.9975958646937091
2018-01-23,0.951055646613974
2018-01-24,0.8566361196610239
2018-01-25,0.8024557070616343
2018-01-26,0.10041122040973537
2018-01-29,0.0
2018-01-30,0.018106341050558552
2018-01-31,0.2940179231565184
2018-02-01,0.7765404602821049
2018-02-02,0.9577765900587885
2018-02-05,0.8910989557434162
2018-02-06,0.9302325581395386
2018-02-07,0.9378370706784025
2018-02-08,0.73802903923386
2018-02-09,0.6841713221601512
2018-02-12,0.7770893045480697
2018-02-13,0.4003923192598515
2018-02-14,0.18261899425569603
2018-02-22,0.21834571704788988
2018-02-23,0.11608650080207542
2018-02-26,0.0
2018-02-27,0.0
2018-02-28,0.1878539676176542
2018-03-01,0.30634105895013497
2018-03-02,0.5706940874035977
2018-03-05,0.47486631016043057
2018-03-06,0.6489361702127739
2018-03-07,0.43088418430884473
2018-03-08,0.17547568710359587
2018-03-09,0.36396074933094685
2018-03-12,0.4129554655870369
2018-03-13,0.2374877330716297
2018-03-14,0.32432432432432423
2018-03-15,0.6202090592334487
2018-03-16,0.4104396785706663
2018-03-19,0.6412853176312833
2018-03-20,0.9012835281639271
2018-03-21,0.9214294709871244
2018-03-22,0.8355237935829992
2018-03-23,0.9610864742002201
2018-03-26,0.966572330400523
2018-03-27,0.9562177798717534
2018-03-28,0.7816888955512651
2018-03-29,0.8265402843601897
2018-03-30,0.33098921706516726
2018-04-02,0.07165389815232284
2018-04-03,0.06916050456720538
2018-04-04,0.1782588668816236
2018-04-09,0.11595639246779033
2018-04-10,0.2883858267716572
2018-04-11,0.47719869706841034
2018-04-12,0.48833333333333867
2018-04-13,0.11970534069982107
2018-04-16,0.09915966386555056
2018-04-17,0.40510543840177315
2018-04-18,0.7715355805243438
2018-04-19,0.8332119446467553
2018-04-20,0.9603618090452254
2018-04-23,1.0
2018-04-24,0.9439028658195823
2018-04-25,0.49758787043418207
2018-04-26,0.5096403544077679
2018-04-27,0.3272137652944727
2018-05-02,0.09236757314086882
2018-05-03,0.155194597151094
2018-05-04,0.29398607745730815
2018-05-07,0.1787330316742089
2018-05-08,0.19774718397997854
2018-05-09,0.2544283413848688
2018-05-10,0.053427419354843894
2018-05-11,0.037909836065589064
2018-05-14,0.02588996763754601
2018-05-15,0.17800167926112778
2018-05-16,0.21391763852619491
2018-05-17,0.3529715657415417
2018-05-18,0.4567135464821659
2018-05-21,0.5699770329818025
2018-05-22,0.28476240303904093
2018-05-23,0.49043860815857576
2018-05-24,0.541731925095345
2018-05-25,0.4391264769274129
2018-05-28,0.7299405992216466
2018-05-29,0.967654986522908
2018-05-30,0.9640179910044951
2018-05-31,1.0
2018-06-01,1.0
2018-06-04,0.8271446862996152
2018-06-05,0.600375234521588
2018-06-06,0.31249999999999184
2018-06-07,0.04735883424406579
2018-06-08,0.08726003490402759
2018-06-11,0.31569664902999517
2018-06-12,0.42486085343226415
2018-06-13,0.9377777777777893
2018-06-14,0.9949474922824438
2018-06-15,0.9980804201728939
2018-06-19,0.9991721758528171
2018-06-20,0.9992303857512649
2018-06-21,0.9993276134126552
2018-06-22,1.0
2018-06-25,0.8052195806539428
2018-06-26,0.3705303157896656
2018-06-27,0.3179740567257046
2018-06-28,0.1318681318681338
2018-06-29,0.07817969661610288
2018-07-02,0.2244058500914067
2018-07-03,0.6880146386093315
2018-07-04,0.5620328849028446
2018-07-05,0.7838983050847484
2018-07-06,0.7125984251968481
2018-07-09,0.37706342311033725
2018-07-10,0.11808873720136075
2018-07-11,0.2167673716012037
2018-07-12,0.10371650821089493
2018-07-13,0.06626173384870612
2018-07-16,0.07707129094412775
2018-07-17,0.17669531996180396
2018-07-18,0.060580204778163095
2018-07-19,0.04327563249001466
2018-07-20,0.37877264814769723
2018-07-23,0.5054500679841321
2018-07-24,0.5697623904583737
2018-07-25,0.611218914683187
2018-07-26,0.6900945186940374
2018-07-27,0.3669955642478597
2018-07-30,0.3213045764990941
2018-07-31,0.06500769417977587
2018-08-01,0.4834248765106167
2018-08-02,0.734367868553175
2018-08-03,0.865475070555036
2018-08-06,0.8753269398430719
2018-08-07,1.0
2018-08-08,0.806620209059232
2018-08-09,0.5907147220525246
2018-08-10,0.43091334894612826
2018-08-13,0.3357761492338334
2018-08-14,0.0
2018-08-15,0.18067186674421098
2018-08-16,0.16962171391967545
2018-08-17,0.49585943876576033
2018-08-20,0.459163064109404
2018-08-21,0.7166647917724158
2018-08-22,0.5133367444899058
2018-08-23,0.5782950203736535
2018-08-24,0.18798682223412086
2018-08-27,0.24708926261319974
2018-08-28,0.04562737642586179
2018-08-29,0.0631025416301579
2018-08-30,0.06405693950178944
2018-08-31,0.20404411764707736
2018-09-03,0.06854130052724004
2018-09-04,0.6042105263158245
2018-09-05,0.711538461538486
2018-09-06,0.822018348623868
2018-09-07,0.8834134615384707
2018-09-10,0.9386973180076601
2018-09-11,0.7931596091205161
2018-09-12,0.6273764258554965
2018-09-13,0.7179856115107748
2018-09-14,0.23763736263735624
2018-09-17,0.19907940161104257
2018-09-18,0.3626033057851162
2018-09-19,0.5102770330652342
2018-09-20,0.2869634512776436
2018-09-21,0.5206119601507015
2018-09-25,0.6087081665920663
2018-09-26,0.4580559361861489
2018-09-27,0.25998849324592793
2018-09-28,0.5875179464003348
2018-10-08,0.32790877669617796
2018-10-09,0.4178583206827283
2018-10-10,0.534345247573053
2018-10-11,0.9075182967398516
2018-10-12,0.9147762109135485
2018-10-15,1.0
2018-10-16,1.0
2018-10-17,1.0
2018-10-18,0.5887760038703415
2018-10-19,0.5171871273203774
2018-10-22,0.555135982903578
2018-10-23,0.4746077667991246
2018-10-24,0.35851142389408847
2018-10-25,0.8905768483819778
2018-10-26,0.6356040666102237
2018-10-29,0.2758050986158129
2018-10-30,0.2802542083608019
2018-10-31,0.3149346717042668
2018-11-01,0.06343959608608146
2018-11-02,0.08407063372034428
2018-11-05,0.1749671623694459
2018-11-06,0.02528225553576728
2018-11-07,0.0
2018-11-08,0.0
2018-11-09,0.0
2018-11-12,0.14159711551999668
2018-11-13,0.6243984189428695
2018-11-14,0.616889804325446
2018-11-15,0.6933471933471965
2018-11-16,0.8971486761710893
2018-11-19,0.6766575840145314
2018-11-20,0.31972789115646316
2018-11-21,0.45404814004375915
2018-11-22,0.3970251716247198
2018-11-23,0.5156250000000057
2018-11-26,0.669451073985701
2018-11-27,0.6607773851590157
2018-11-28,0.6835164835164922
2018-11-29,0.7800338409475435
2018-11-30,0.4446444644464405
2018-12-03,0.4861460957178783
2018-12-04,0.6269592476488988
2018-12-05,0.40158259149356046
2018-12-06,0.10361681329422961
2018-12-07,0.0976058931860008
2018-12-10,0.017100977198694894
2018-12-11,0.0
2018-12-12,0.0
2018-12-13,0.13002566295979695
2018-12-14,0.4744718309859191
2018-12-17,0.6141814389989583
2018-12-18,0.7751371115173654
2018-12-19,1.0
2018-12-20,0.732673267326726
2018-12-21,0.47125462364376847
2018-12-24,0.48327949799276887
2018-12-25,0.4716207434398293
2018-12-26,0.393057742597538
2018-12-27,0.7893099718984186
2018-12-28,0.8931608517782257
2019-01-02,0.7595751686463836
2019-01-03,0.4341403418117847
2019-01-04,0.6144531664020109
2019-01-07,0.3774834437086112
2019-01-08,0.3623978201634882
2019-01-09,0.4983022071307315
2019-01-10,0.573802541544474
2019-01-11,0.18042226487523952
2019-01-14,0.1765258215962442
2019-01-15,0.3935483870967744
2019-01-16,0.22727272727272746
2019-01-17,0.24691358024691532
2019-01-18,0.39624174869493783
2019-01-21,0.5486401841912328
2019-01-22,0.14509535911652174
2019-01-23,0.3552063902741923
2019-01-24,0.7460900324431592
2019-01-25,0.5759389184668297
2019-01-28,0.66913288831928
2019-01-29,0.8402208299461007
2019-01-30,0.8875828817032388
2019-01-31,0.8670120898100191
2019-02-01,1.0
2019-02-11,1.0
2019-02-12,0.6898692814706477
2019-02-13,0.7214589006491956
2019-02-14,0.5572869961181712
2019-02-15,0.23995474958269733
2019-02-18,0.38767487310408943
2019-02-19,0.5738421351777165
2019-02-20,0.38391888803007784
2019-02-21,0.5863956215793609
2019-02-22,0.8392238392238385
2019-02-25,0.8807810894141822
2019-02-26,0.8816930137684842
2019-02-27,1.0
2019-02-28,0.8923611111111122
2019-03-01,0.7412742382271479
2019-03-04,0.332373271889402
2019-03-05,0.2975757575757575
2019-03-06,0.20941336971350952
2019-03-07,0.457685664939555
2019-03-08,0.6575952498763027
2019-03-11,1.0
2019-03-12,0.8762237762237749
2019-03-13,0.864678899082567
2019-03-14,0.7184357541899402
2019-03-15,0.16411259059612615
2019-03-18,0.3143425897048115
2019-03-19,0.2800895470957442
2019-03-20,0.19560579117458754
2019-03-21,0.18903237478107193
2019-03-22,0.251252978923298
2019-03-25,0.0
2019-03-26,0.41850034803368047
2019-03-27,0.39711341522155424
2019-03-28,0.41635220125786
2019-03-29,0.5554997488699177
2019-04-01,0.8523985239852481
2019-04-02,0.5329241071428658
2019-04-03,0.6597462514417576
2019-04-04,0.6167115902964949
2019-04-08,0.4410838059231241
2019-04-09,0.11849529780563856
2019-04-10,0.3433874709976747
2019-04-11,0.22626441881100173
2019-04-12,0.23523985239852466
2019-04-15,0.3508946322067589
2019-04-16,0.8770642201834875
2019-04-17,0.6298292902066523
2019-04-18,0.48782185107863946
2019-04-19,0.6369140123913724
2019-04-22,0.5210150728688904
2019-04-23,0.23021199543861992
2019-04-24,0.3852149754973913
2019-04-25,0.6782844096970677
2019-04-26,0.5220040485929862
2019-04-29,0.6211726164924899
2019-04-30,0.7765362428588968
2019-05-06,0.8595022877887771
2019-05-07,0.5845845845845861
2019-05-08,0.7468706536856716
2019-05-09,0.6580508474576229
2019-05-10,0.7523379554982234
2019-05-13,0.3628003559774525
2019-05-14,0.4063122923588031
2019-05-15,0.26369168356997924
2019-05-16,0.26319724631674324
2019-05-17,0.0
2019-05-20,0.1380985931110224
2019-05-21,0.31174682401258585
2019-05-22,0.41116287150006553
2019-05-23,0.6826440427579777
2019-05-24,0.4241982821762099
2019-05-27,0.47151216994213274
2019-05-28,0.3126157158908728
2019-05-29,0.3070953436807084
2019-05-30,0.18852459016393344
2019-05-31,0.5565693430656876
2019-06-03,0.3157360406091357
2019-06-04,0.5158501440922172
2019-06-05,0.6179966044142579
2019-06-06,0.6933115823817444
2019-06-10,0.3131868131868512
2019-06-11,0.8798449612403056
2019-06-12,0.8340163934426048
2019-06-13,0.841487279843425
2019-06-14,0.8235294117646795
2019-06-17,0.5762195121951076
2019-06-18,0.03650336215177502
2019-06-19,0.18878812860676308
2019-06-20,0.3910891089108968
2019-06-21,0.3465575426975046
2019-06-24,0.3931160909071471
2019-06-25,0.793125853058306
2019-06-26,0.5958115138142285
2019-06-27,0.23696853779751947
2019-06-28,0.31060930909825774
2019-07-01,0.47290074583455044
2019-07-02,0.2285408455779393
2019-07-03,0.24615564938748793
2019-07-04,0.3919652551574522
2019-07-05,0.31963927855712665
2019-07-08,0.3915770609319064
2019-07-09,0.6384720327421649
2019-07-10,0.8428005284015918
2019-07-11,0.8545232273838661
2019-07-12,1.0
2019-07-15,1.0
2019-07-16,0.8641975308642016
2019-07-17,0.49723756906077016
2019-07-18,0.14466546112115491
2019-07-19,0.24731799152245598
2019-07-22,0.10382510663588744
2019-07-23,0.21071025062471796
2019-07-24,0.3669372290737565
2019-07-25,0.5508433634320995
2019-07-26,0.37020044992004864
2019-07-29,0.29730267742131494
2019-07-30,0.3401810702532491
2019-07-31,0.1703241869667845
2019-08-01,0.2028508771929813
2019-08-02,0.2770935960591167
2019-08-05,0.6599999999999904
2019-08-06,0.718076285240455
2019-08-07,1.0
2019-08-08,0.8130841121495297
2019-08-09,0.8484848484848462
2019-08-12,0.844760672703751
2019-08-13,0.3998015873015896
2019-08-14,0.31741836174935034
2019-08-15,0.6209324480670771
2019-08-16,0.4673339544426377
2019-08-19,0.5057123533714205
2019-08-20,0.8031671074548409
2019-08-21,0.7238610441651673
2019-08-22,0.3017982385071512
2019-08-23,0.37006425959674294
2019-08-26,0.12494855639484602
2019-08-27,0.2715231788079508
2019-08-28,0.2962962962963023
2019-08-29,0.465248226950362
2019-08-30,0.6591970121381866
2019-09-02,0.989592367736339
2019-09-03,0.6452380952380893
2019-09-04,0.7233101705622178
2019-09-05,0.7601984564498316
2019-09-06,0.5573496659242765
2019-09-09,0.34386391251519044
2019-09-10,0.5080091533180823
2019-09-11,0.3058608058608129
2019-09-12,0.104493207941485
2019-09-16,0.19709208400647696
2019-09-17,0.4564102564102689
2019-09-18,0.18660287081340898
2019-09-19,0.20103092783506107
2019-09-20,0.18086805472393827
2019-09-23,0.22664637110761995
2019-09-24,0.1112418845369586
2019-09-25,0.4719615830239145
2019-09-26,0.7522203411954622
2019-09-27,0.9522073368143401
2019-09-30,0.9623831984209997
2019-10-08,0.7815334061396342
2019-10-09,0.7581313280422327
2019-10-10,0.42937853107343715
2019-10-11,0.498759305210915
2019-10-14,0.25653798256536714
2019-10-15,0.303387334315154
2019-10-16,0.16353111432705628
2019-10-17,0.17095310136157083
2019-10-18,0.4052044317573949
2019-10-21,0.48825764230269475
2019-10-22,0.5968292218313747
2019-10-23,0.6967088451446808
2019-10-24,0.9517892059530418
2019-10-25,0.577763423253291
2019-10-28,0.5382335158868593
2019-10-29,0.40201302013146123
2019-10-30,0.3216363841518877
2019-10-31,0.0
2019-11-01,0.0
2019-11-04,0.0
2019-11-05,0.28009259259260644
2019-11-06,0.551307847082495
2019-11-07,0.7308584686774866
2019-11-08,0.8974358974359067
2019-11-11,0.95445920303605
2019-11-12,0.7731250946921676
2019-11-13,0.38092393496286436
2019-11-14,0.2964752224075734
2019-11-15,0.32542963148808757
2019-11-18,0.02836977878497714
2019-11-19,0.26361577579325945
2019-11-20,0.5905687813748101
2019-11-21,0.7184001006822792
2019-11-22,0.8615899217542615
2019-11-25,1.0
2019-11-26,0.7242693773824654
2019-11-27,0.7297633872976359
2019-11-28,0.6494845360824786
2019-11-29,0.14946236559140463
2019-12-02,0.128336755646819
2019-12-03,0.2547169811320771
2019-12-04,0.10033076074972389
2019-12-05,0.225772097976568
2019-12-06,0.44258872651355335
2019-12-09,0.4425887265135608
2019-12-10,0.2880952380952337
2019-12-11,0.5325203252032549
2019-12-12,0.039840637450202644
2019-12-13,0.04347826086957124
2019-12-16,0.6258660508083297
2019-12-17,0.8033282904689931
2019-12-18,0.8071216617210758
2019-12-19,0.9908925318761415
2019-12-20,0.9983360240246282
2019-12-23,0.9981375220253678
2019-12-24,0.5631593897757164
2019-12-25,0.5727327147674468
2019-12-26,0.6443008993330074
2019-12-27,0.6301127698719599
2019-12-30,0.5034024791488724
2019-12-31,0.6900612212036071
2020-01-02,0.8216861572847526
2020-01-03,0.6628571428571151
2020-01-06,0.7698309492847675
2020-01-07,0.49317561419471323
2020-01-08,0.6247960848287087
2020-01-09,0.39793486894360736
2020-01-10,0.5011037527593849
2020-01-13,0.3689497716895018
2020-01-14,0.5260416666666694
2020-01-15,0.2368421052631578
2020-01-16,0.3564356435643559
2020-01-17,0.0
2020-01-20,0.0
2020-01-21,0.250921487638467
2020-01-22,0.7788422253529784
2020-01-23,0.9092213405600899
2020-02-03,0.9293534715942608
2020-02-04,1.0
2020-02-05,1.0
2020-02-06,1.0
2020-02-07,0.6099290780141827
2020-02-10,0.5052865887590418
2020-02-11,0.2820380854348932
2020-02-12,0.12853773584905648
2020-02-13,0.0
2020-02-14,0.0
2020-02-17,0.24107142857142602
2020-02-18,0.35702558555991104
2020-02-19,0.2987562346449863
2020-02-20,0.699642470379812
2020-02-21,0.7472384501185686
2020-02-24,0.5567985045745983
2020-02-25,0.7467287182387984
2020-02-26,0.9341960353732741
2020-02-27,0.7720554839818138
2020-02-28,0.8117577503082833
2020-03-02,0.8775510204081627
2020-03-03,0.6589834515366447
2020-03-04,0.5788321167883219
2020-03-05,0.7344290657439481
2020-03-06,0.21786197564276416
2020-03-09,0.046120058565154144
2020-03-10,0.257270693512299
2020-03-11,0.25892857142856796
2020-03-12,0.26057906458796554
2020-03-13,0.9149305555555555
2020-03-16,1.0
2020-03-17,1.0
2020-03-18,1.0
2020-03-19,1.0
2020-03-20,0.624451036510321
2020-03-23,0.3405083438307394
2020-03-24,0.29001021707614355
2020-03-25,0.096316004820473
2020-03-26,0.0
2020-03-27,0.014673363260508322
2020-03-30,0.01951618594285145
2020-03-31,0.020227249478674488
2020-04-01,0.2043175951084638
2020-04-02,0.616362192216044
2020-04-03,0.5164450664800587
2020-04-07,0.4969696969697027
2020-04-08,0.5707656612529086
2020-04-09,0.3487109905020443
2020-04-10,0.0
2020-04-13,0.0
2020-04-14,0.04819277108434163
2020-04-15,0.053388090349080174
2020-04-16,0.37635705669480857
2020-04-17,0.6383463568575913
2020-04-20,0.7949558357868692
2020-04-21,0.7986624428017944
2020-04-22,0.9521658380817192
2020-04-23,0.6564460044004768
2020-04-24,0.5853674300003442
2020-04-27,0.6617588617181878
2020-04-28,0.7400026059868438
2020-04-29,0.43910679488054444
2020-04-30,0.6706521739130429
2020-05-06,0.778855480116395
2020-05-07,0.6850775193798558
2020-05-08,0.38908145580590003
2020-05-11,0.5482954545454609
2020-05-12,0.30355427473583924
2020-05-13,0.11304347826086834
2020-05-14,0.11696246476158208
2020-05-15,0.16146974217625057
2020-05-18,0.0
2020-05-19,0.0
2020-05-20,0.0
2020-05-21,0.4796428697090393
2020-05-22,0.6859394824599906
2020-05-25,0.6492842786512477
2020-05-26,0.8349593788688301
2020-05-27,0.8760806916426435
2020-05-28,0.8323586744639239
2020-05-29,0.6159600997506121
2020-06-01,0.9106438896189257
2020-06-02,0.7836257309941556
2020-06-03,0.7303851640513621
2020-06-04,0.49555555555556235
2020-06-05,0.44158415841584403
2020-06-08,0.0
2020-06-09,0.013017751479288584
2020-06-10,0.012643678160918145
2020-06-11,0.4030150753768856
2020-06-12,0.6595744680851102
2020-06-15,0.9179954441913408
2020-06-16,0.9192825112107591
2020-06-17,0.9931895573212223
2020-06-18,0.5492638731596797
2020-06-19,0.11503972199884512
2020-06-22,0.10098809380421819
2020-06-23,0.07920369015572146
2020-06-24,0.008701202572560336
2020-06-29,0.22531720181884876
2020-06-30,0.6233967446662587
2020-07-01,0.9965538612613697
2020-07-02,0.9987883163688218
2020-07-03,1.0
2020-07-06,1.0
2020-07-07,1.0
2020-07-08,1.0
2020-07-09,1.0
2020-07-10,1.0
2020-07-13,0.6789388197076344
2020-07-14,0.6957414058491572
2020-07-15,0.6734581497797406
2020-07-16,0.7870736086175967
2020-07-17,0.7847961834269247
2020-07-20,0.9689975451186106
2020-07-21,0.7154798065527473
2020-07-22,0.6057252635130701
2020-07-23,0.07371150447851903
2020-07-24,0.3344691011150021
2020-07-27,0.32023624252583416
2020-07-28,0.4266064428445598
2020-07-29,0.5103865053914941
2020-07-30,0.6292293233082699
2020-07-31,0.20406976744185906
2020-08-03,0.23061760840998394
2020-08-04,0.1613110539845768
2020-08-05,0.0
2020-08-06,0.2541310541310583
2020-08-07,0.3245997088791888
2020-08-10,0.40717029449424286
2020-08-11,0.6051844466600178
2020-08-12,0.8782874617736977
2020-08-13,0.5540011191941759
2020-08-14,0.5978260869565193
2020-08-17,0.5259697567389819
2020-08-18,0.13561392791691773
2020-08-19,0.0
2020-08-20,0.11316480377466144
2020-08-21,0.09931908510989158
2020-08-24,0.09426093475213128
2020-08-25,0.4315629585042028
2020-08-26,0.6134700969353819
2020-08-27,0.5179415263541507
2020-08-28,0.8199661133693107
2020-08-31,0.947308499671667
2020-09-01,0.5339470655926242
2020-09-02,0.4125950054288735
2020-09-03,0.4260089686098585
2020-09-04,0.02362948960301596
2020-09-07,0.3235101506221385
2020-09-08,0.5091041514930841
2020-09-09,0.6327645051194547
2020-09-10,0.728928199791883
2020-09-11,0.979035639412996
2020-09-14,0.5612623762376198
2020-09-15,0.43413729128014555
2020-09-16,0.2366450324513217
2020-09-17,0.0
2020-09-18,0.1522375872831223
2020-09-21,0.28226411636262944
2020-09-22,0.49847420200543446
2020-09-23,0.7793602273099436
2020-09-24,1.0
2020-09-25,0.6468356464669845
2020-09-28,0.5708405162823211
2020-09-29,0.18823268095192186
2020-09-30,0.425862942065425
2020-10-09,0.289915966386555
2020-10-12,0.5575971731448772
2020-10-13,0.54715672676838
2020-10-14,0.5077220077220119
2020-10-15,0.2431906614786014
2020-10-16,0.34807946716398547
2020-10-19,0.2866328088386411
2020-10-20,0.37634767113318457
2020-10-21,0.6959244487080583
2020-10-22,1.0
2020-10-23,1.0
2020-10-26,0.7368429854653428
2020-10-27,0.6087754865819511
2020-10-28,0.37387709041706296
2020-10-29,0.43001686340640694
2020-10-30,0.3449612403100731
2020-11-02,0.3459669582118531
2020-11-03,0.5596244131455343
2020-11-04,0.6100307062436022
2020-11-05,0.4697156983930755
2020-11-06,0.2366863905325428
2020-11-09,0.5243902439024436
2020-11-10,0.30779392338177614
2020-11-11,0.3086092715231786
2020-11-12,0.23401109386406238
2020-11-13,0.2750355778108893
2020-11-16,0.0
2020-11-17,0.0
2020-11-18,0.0
2020-11-19,0.2499543570178365
2020-11-20,0.3391272562563897
2020-11-23,0.6928861954905163
2020-11-24,0.7863130573138549
2020-11-25,0.9310344827586257
2020-11-26,0.7276688453159098
2020-11-27,0.753937007874019
2020-11-30,0.538172715894877
2020-12-01,0.7504091653027855
2020-12-02,0.4546153846153832
2020-12-03,0.5822683706070303
2020-12-04,0.4976114649681556
2020-12-07,0.4731264193792588
2020-12-08,0.10422960725075878
2020-12-09,0.3763955342902721
2020-12-10,0.2934973637961294
2020-12-11,0.5564053537284851
2020-12-14,0.633762517882682
2020-12-15,0.9766949152542294
2020-12-16,0.603696098562622
2020-12-17,0.6966666666666677
2020-12-18,0.2555381268525456
2020-12-21,0.39555563864244014
2020-12-22,0.5288779485445948
2020-12-23,0.7105339600244636
2020-12-24,0.5908489513297703
2020-12-25,0.8545404820546035
2020-12-28,0.6235167648778736
2020-12-29,0.3138469678745391
2020-12-30,0.13559084921451575
2020-12-31,0.17021276595744236
2021-01-04,0.3341463414634247
2021-01-05,0.4972776769510145
2021-01-06,0.9486652977412746
2021-01-07,0.8363273453093756
2021-01-08,0.8905775075987763
2021-01-11,0.8484210526315661
2021-01-12,0.8956043956043865
2021-01-13,0.5472727272727159
2021-01-14,0.6424581005586569
2021-01-15,0.3575137842169385
2021-01-18,0.2208275177626642
2021-01-19,0.06987517821755591
2021-01-20,0.15031311014651713
2021-01-21,0.07506950594579657
2021-01-22,0.07264792464149566
2021-01-25,0.07519128453406825
2021-01-26,0.2800895007511048
2021-01-27,0.1632496801614714
2021-01-28,0.1365384615384657
2021-01-29,0.7075023741690389
2021-02-01,0.6302588607098277
2021-02-02,0.5912946594294701
2021-02-03,0.6400918381052619
2021-02-04,0.7060473958231729
2021-02-05,0.1274881511266929
2021-02-08,0.47248121667868237
2021-02-09,0.5926877266199543
2021-02-10,0.6906031500989869
2021-02-18,0.7059410127887386
2021-02-19,1.0
2021-02-22,1.0
2021-02-23,0.7471910112359584
2021-02-24,0.748837209302328
2021-02-25,0.6490683229813676
2021-02-26,0.5223880597014883
2021-03-01,0.21115537848605295
2021-03-02,0.40838126540673264
2021-03-03,0.18427323272438179
2021-03-04,0.16654702081837647
2021-03-05,0.19558359621451232
2021-03-08,0.6830329397141122
2021-03-09,0.7139652271452648
2021-03-10,0.8810082063306028
2021-03-11,1.0
2021-03-12,0.9490603363006902
2021-03-15,0.5890788747931567
2021-03-16,0.34106130860380984
2021-03-17,0.23376623376622957
2021-03-18,0.0
2021-03-19,0.0
2021-03-22,0.0
2021-03-23,0.18467623845408898
2021-03-24,0.18245659602659628
2021-03-25,0.4041295381440723
2021-03-26,0.3359210173900806
2021-03-29,0.22202889603507722
2021-03-30,0.0
2021-03-31,0.0
2021-04-01,0.005226480836236683
2021-04-02,0.004398826979471887
2021-04-06,0.04914529914530985
2021-04-07,0.07958477508652287
2021-04-08,0.12403100775196678
2021-04-09,0.0657596371882265
2021-04-12,0.6180327868852514
2021-04-13,0.5702875399360998
2021-04-14,0.6401944894651505
2021-04-15,0.6307189542483541
2021-04-16,0.9400792427796683
2021-04-19,0.8856414884873649
2021-04-20,0.8556450198193557
2021-04-21,0.7796221748455571
2021-04-22,0.5404664470932152
2021-04-23,0.07385875505282559
2021-04-26,0.0
2021-04-27,0.15247752746295026
2021-04-28,0.36867867744861427
2021-04-29,0.5123287671232906
2021-04-30,0.8864468864468869
2021-05-06,0.7997176356787724
2021-05-07,0.8209814989452182
2021-05-10,0.3946253740309074
2021-05-11,0.6984046943704072
2021-05-12,0.7287351373291251
2021-05-13,0.6347101407438387
2021-05-14,0.6786655758031165
2021-05-17,0.8335821419261635
2021-05-18,0.47865089510883985
2021-05-19,0.29323968393327754
2021-05-20,0.3836538461538521
2021-05-21,0.16146788990826183
2021-05-24,0.09415262636273238
2021-05-25,0.431293881644932
2021-05-26,0.5205811138014496
2021-05-27,0.44028950542822026
2021-05-28,0.6271477663230255
2021-05-31,0.4834054834054828
2021-06-01,0.0
2021-06-02,0.3609154929577399
2021-06-03,0.4957264957264955
2021-06-04,0.6629072681704203
2021-06-07,0.7622478386167201
2021-06-08,0.9449404761904827
2021-06-09,0.7337883959044531
2021-06-10,0.735144312393901
2021-06-11,0.30793650793650956
2021-06-15,0.5311398354876599
2021-06-16,0.42928039702233134
2021-06-17,0.5447263017356376
2021-06-18,0.3759977640338984
2021-06-21,0.6539409280089623
2021-06-22,0.29469008271840447
2021-06-23,0.3208052168997482
2021-06-24,0.22919909993798188
2021-06-25,0.42671798994471544
2021-06-28,0.1525854317550494
2021-06-29,0.5105357440297997
2021-06-30,0.37026606343750645
2021-07-01,0.6318510858324651
2021-07-02,0.5267947421637972
2021-07-05,0.6525323910482921
2021-07-06,0.6246819338422384
2021-07-07,0.8725824800910168
2021-07-08,0.47010550996483463
2021-07-09,0.649845520082389
2021-07-12,0.7027972027972001
2021-07-13,0.6368515205724486
2021-07-14,0.430830039525681
2021-07-15,0.7277970011533886
2021-07-16,0.4687355698620683
2021-07-19,0.2449729760315213
2021-07-20,0.24117961157082324
2021-07-21,0.27653554178141765
2021-07-22,0.0
2021-07-23,0.03147235308413823
2021-07-26,0.6768405506718578
2021-07-27,0.8317561993299276
2021-07-28,0.9066239673343246
2021-07-29,1.0
2021-07-30,1.0
2021-08-02,0.7530625402965785
2021-08-03,0.41407736207989543
2021-08-04,0.10863158976185189
2021-08-05,0.008855058515309697
2021-08-06,0.0
2021-08-09,0.0
2021-08-10,0.0
2021-08-11,0.0
2021-08-12,0.313457138574413
2021-08-13,0.5019546522983849
2021-08-16,0.5944529062579641
2021-08-17,0.8457711442785911
2021-08-18,0.9442724458204235
2021-08-19,0.9309462915600901
2021-08-20,0.9349397590361338
2021-08-23,1.0
2021-08-24,0.4210526315789806
2021-08-25,0.33460803059275973
2021-08-26,0.22557471264369852
2021-08-27,0.013745704467377743
2021-08-30,0.0
2021-08-31,0.0
2021-09-01,0.505185185185171
2021-09-02,0.825396825396814
2021-09-03,0.8831168831168739
2021-09-06,0.9113924050632906
2021-09-07,1.0
2021-09-08,0.7221494102228047
2021-09-09,0.5677276091783791
2021-09-10,0.4576642335766417
2021-09-13,0.4288888888888861
2021-09-14,0.0
2021-09-15,0.31854838709677896
2021-09-16,0.6956140350877312
2021-09-17,0.8684879794949407
2021-09-22,0.906231922701638
2021-09-23,0.8030885884454736
2021-09-24,0.7315641364805192
2021-09-27,0.6786036957299425
2021-09-28,0.35430482637390964
2021-09-29,0.2268069526053791
2021-09-30,0.28820330887541135
2021-10-08,0.4945839093758285
2021-10-11,0.19615179048637554
2021-10-12,0.4986931521170941
2021-10-13,0.4327014218009439
2021-10-14,0.46920115495668135
2021-10-15,0.31199759424851065
2021-10-18,0.531855789867662
2021-10-19,0.05655889665322138
2021-10-20,0.069510477016572
2021-10-21,0.04266430202904506
2021-10-22,0.06629509023457081
2021-10-25,0.0996944401773653
2021-10-26,0.5632584852084599
2021-10-27,0.7384069828332275
2021-10-28,0.43055555555542074
2021-10-29,0.8616352201257128
2021-11-01,0.6466932919064299
2021-11-02,0.8900703751520457
2021-11-03,0.74712789793241
2021-11-04,0.6268771132629912
2021-11-05,0.47866309276364527
2021-11-08,0.45805870539334986
2021-11-09,0.0
2021-11-10,0.18015225487794448
2021-11-11,0.29237838232076363
2021-11-12,0.32142857142856907
2021-11-15,0.4747826086956541
2021-11-16,0.9442857142857081
2021-11-17,0.5960784313725483
2021-11-18,0.5353383458646669
2021-11-19,0.7032967032967093
2021-11-22,0.4509169363538342
2021-11-23,0.30000000000000365
2021-11-24,0.37361282367447984
2021-11-25,0.2730769230769237
2021-11-26,0.0
2021-11-29,0.11312217194571277
2021-11-30,0.29397590361446974
2021-12-01,0.40940366972477044
2021-12-02,0.6719901719901726
2021-12-03,1.0
2021-12-06,1.0
2021-12-07,1.0
2021-12-08,1.0
2021-12-09,0.9125295508274276
2021-12-10,0.7058823529411832
2021-12-13,0.5364667747163803
2021-12-14,0.16523867809058454
2021-12-15,0.0
2021-12-16,0.0
2021-12-17,0.08181272186653787
2021-12-20,0.3603345546450262
2021-12-21,0.7383905905096849
2021-12-22,0.90783759222116
2021-12-23,0.9185221695043257
2021-12-24,0.9085722720991617
2021-12-27,0.5007596620009662
2021-12-28,0.1438334293468369
2021-12-29,0.15611412479372383
2021-12-30,0.0
2021-12-31,0.0
2022-01-04,0.31355932203390957
2022-01-05,0.8205499276411173
2022-01-06,0.8722891566265173
2022-01-07,0.9158291457286588
2022-01-10,1.0
2022-01-11,1.0
2022-01-12,0.33148404993065167
2022-01-13,0.32303370786517627
2022-01-14,0.3556149732620327
2022-01-17,0.4408352668213527
2022-01-18,0.3371017471736956
2022-01-19,0.7947103274559228
2022-01-20,0.740797546012264
2022-01-21,0.7386452910633211
2022-01-24,0.6047917141365022
2022-01-25,0.9553786760654062
2022-01-26,0.7510132706980158
2022-01-27,0.8168075824438333
2022-01-28,0.8548705973938869
2022-02-07,0.8435733013770789
2022-02-08,0.537275624687027
2022-02-09,0.6914339331613529
2022-02-10,0.3923270397949337
2022-02-11,0.14868212078360607
2022-02-14,0.22798301235463936
2022-02-15,0.2392409186578539
2022-02-16,0.08663634251627364
2022-02-17,0.20016287809320987
2022-02-18,0.2729145211122556
2022-02-21,0.10204081632653056
2022-02-22,0.1769784172661791
2022-02-23,0.611021069692064
2022-02-24,0.7750702905342115
2022-02-25,0.7977736549165209
2022-02-28,1.0
2022-03-01,0.9121863799283202
2022-03-02,0.7353224254090444
2022-03-03,0.20076849183477025
2022-03-04,0.1614678899082502
2022-03-07,0.28816199376946466
2022-03-08,0.6398940864960212
2022-03-09,0.8408071748878899
2022-03-10,0.9768688293370932
2022-03-11,1.0
2022-03-14,1.0
2022-03-15,1.0
2022-03-16,0.833749375936095
2022-03-17,0.8469052127977669
2022-03-18,0.5230195525453833
2022-03-21,0.4425404392654734
2022-03-22,0.08923027722312078
2022-03-23,0.06407709760283976
2022-03-24,0.0
2022-03-25,0.0013979615225530107
2022-03-28,0.05660904323853973
2022-03-29,0.09020649388240363
2022-03-30,0.44637385086823
2022-03-31,0.7199341021416749
2022-04-01,0.5559845559845483
2022-04-06,0.2513255567338242
2022-04-07,0.5166374781085802
2022-04-08,0.390728476821196
2022-04-11,0.6397849462365605
2022-04-12,0.7975322490185099
2022-04-13,0.9719753930280232
2022-04-14,0.7779842292230998
2022-04-15,0.6563921738564114
2022-04-18,0.39848843476476337
2022-04-19,0.0
2022-04-20,0.25348388305077996
2022-04-21,0.5184526277116042
2022-04-22,0.6507633383383792
2022-04-25,0.7870792535855337
2022-04-26,1.0
2022-04-27,1.0
2022-04-28,0.8528138528138526
2022-04-29,0.8567128236002407
2022-05-05,0.557861544073921
2022-05-06,0.300226416396283
2022-05-09,0.11476959550609578
2022-05-10,0.25006257693371453
2022-05-11,0.14334739094593366
2022-05-12,0.21028830524754608
2022-05-13,0.29096953579840856
2022-05-16,0.6503011763401102
2022-05-17,0.09648051231269499
2022-05-18,0.07908496732025752
2022-05-19,0.14915458937198064
2022-05-20,0.23765252760022923
2022-05-23,0.15553235908141752
2022-05-24,0.5435868961687945
2022-05-25,0.7812723373838452
2022-05-26,0.8016850291639667
2022-05-27,0.7591807909604557
2022-05-30,0.9685816876122122
2022-05-31,0.5913818722139801
2022-06-01,0.42706766917294864
2022-06-02,0.005471956224359956
2022-06-06,0.2510822510822522
2022-06-07,0.2220058422590017
2022-06-08,0.215909090909087
2022-06-09,0.4023178807947009
2022-06-10,0.6701754385964901
2022-06-13,0.4364820846905561
2022-06-14,0.7187500000000034
2022-06-15,0.8444881889763802
2022-06-16,0.7346513756594027
2022-06-17,0.6935177099445816
2022-06-20,0.8598960796572839
2022-06-21,0.2849254751495767
2022-06-22,0.10038805549832253
2022-06-23,0.3931231824636176
2022-06-24,0.2877585156974711
2022-06-27,0.2201229584255285
2022-06-28,0.3845052061785551
2022-06-29,0.43565217391303895
2022-06-30,0.08195364238410616
2022-07-01,0.1098779134295226
2022-07-04,0.3845391476709562
2022-07-05,0.3094218415417497
2022-07-06,0.359550561797747
2022-07-07,0.743076923076925
2022-07-08,0.9607843137254926
2022-07-11,0.6659242761692885
2022-07-12,0.6139630390143952
2022-07-13,0.3089005235602256
2022-07-14,0.16253869969041046
2022-07-15,0.38059202886168364
2022-07-18,0.5323077139995437
2022-07-19,0.4532413090521129
2022-07-20,0.6950557351231146
2022-07-21,0.5752593661356655
2022-07-22,0.42332596841168424
2022-07-25,0.28616096982412276
2022-07-26,0.6923104929731307
2022-07-27,0.5971558898447494
2022-07-28,0.8795454545454436
2022-07-29,0.4166666666666602
2022-08-01,0.32074496128462726
2022-08-02,0.43401129735379596
2022-08-03,0.6453162307533077
2022-08-04,0.6627319348299779
2022-08-05,0.8701862872729561
2022-08-08,0.89146376044433
2022-08-09,0.4940942714044868
2022-08-10,0.18651056130164814
2022-08-11,0.1437460968255011
2022-08-12,0.026438569206843066
2022-08-15,0.056861673045377405
2022-08-16,0.16569525395502863
2022-08-17,0.38867438867439397
2022-08-18,0.2298534798534821
2022-08-19,0.621900826446279
2022-08-22,0.6900931414055901
2022-08-23,0.588235294117654
2022-08-24,0.7126567844925903
2022-08-25,0.9133165829145755
2022-08-26,0.8517374517374585
2022-08-29,0.7265625000000083
2022-08-30,0.843085106382986
2022-08-31,0.3701979045401723
2022-09-01,0.25172890733057013
2022-09-02,0.21487603305784955
2022-09-05,0.20472440944881531
2022-09-06,0.25968586387433595
2022-09-07,0.23754789272029603
2022-09-08,0.13986013986013598
2022-09-09,0.20530367835756508
2022-09-13,0.23346303501945062
2022-09-14,0.05660377358490285
2022-09-15,0.6250856751199442
2022-09-16,0.8722796408459785
2022-09-19,0.8750892837454886
2022-09-20,0.8907563753103637
2022-09-21,1.0
2022-09-22,0.6266005923720452
2022-09-23,0.3784408098491579
2022-09-26,0.4235018515269036
2022-09-27,0.465681873058688
2022-09-28,0.3621769508463471
2022-09-29,0.859947643979055
2022-09-30,0.7415349887133161
2022-10-10,0.7041343669250607
2022-10-11,0.49447513812154137
2022-10-12,0.6822916666666601
2022-10-13,0.5187772925764133
2022-10-14,0.7040441176470553
2022-10-17,0.5014880952380911
2022-10-18,0.5439870863599696
2022-10-19,0.10934520025429244
2022-10-20,0.32293986636971
2022-10-21,0.21094636283776638
2022-10-24,0.5143250553529685
2022-10-25,0.5818976558301776
2022-10-26,0.8686413563094146
2022-10-27,0.6821705677877649
2022-10-28,0.8325478254517403
2022-10-31,0.5758346974233138
2022-11-01,0.5412332826759298
2022-11-02,0.35942201681704167
2022-11-03,0.4347031501916836
2022-11-04,0.12177086140362493
2022-11-07,0.16120287244099146
2022-11-08,0.0
2022-11-09,0.0
2022-11-10,0.010310114979000591
2022-11-11,0.009823264546841752
2022-11-14,0.09548611111112242
2022-11-15,0.6076260762607746
2022-11-16,0.6776406035665455
2022-11-17,0.6940104166666721
2022-11-18,0.6015801354401775
2022-11-21,0.49265536723163256
2022-11-22,0.08482871125609516
2022-11-23,0.3027522935779609
2022-11-24,0.23866666666666353
2022-11-25,0.3776371308016877
2022-11-28,0.6004016064257058
2022-11-29,0.8040540540540805
2022-11-30,0.37316561844865187
2022-12-01,0.4090909090909027
2022-12-02,0.45454545454544487
2022-12-05,0.10489510489509511
2022-12-06,0.0030581039755216057
2022-12-07,0.0983606557376883
2022-12-08,0.07986111111111237
2022-12-09,0.18449612403101498
2022-12-12,0.4320987654321005
2022-12-13,0.4156769596199691
2022-12-14,0.3385826771653635
2022-12-15,0.41612903225805686
2022-12-16,0.17594990644508163
2022-12-19,0.7087255178013684
2022-12-20,0.8779995237734848
2022-12-21,0.8949669348814129
2022-12-22,0.940112512252263
2022-12-23,1.0
2022-12-26,0.6149658588451488
2022-12-27,0.542025548608009
2022-12-28,0.41526062077295334
2022-12-29,0.10989010989010414
2022-12-30,0.0
2023-01-03,0.22266401590457668
2023-01-04,0.2200392927308492
2023-01-05,0.4284253578732142
2023-01-06,0.5448634590377164
2023-01-09,0.7662771285475831
2023-01-10,0.28940886699508006
2023-01-11,0.3913043478260962
2023-01-12,0.1729222520107337
2023-01-13,0.1872278664731592
2023-01-16,0.4010695187165789
2023-01-17,0.660211267605625
2023-01-18,0.4605475040257566
2023-01-19,0.6658641523840532
2023-01-20,0.5820602609718253
2023-01-30,0.29576193312116067
2023-01-31,0.4820130978039244
2023-02-01,0.7410223075021577
2023-02-02,0.5175394007686634
2023-02-03,0.7560043426447233
2023-02-06,0.6432776524925155
2023-02-07,0.6130823308768923
2023-02-08,0.5452815571812717
2023-02-09,0.7839401983687638
2023-02-10,0.6942877818734557
2023-02-13,0.9976185941619097
2023-02-14,0.7741935483871062
2023-02-15,0.5292035398230113
2023-02-16,0.5349650349650321
2023-02-17,0.539930555555543
2023-02-20,0.705882352941176
2023-02-21,0.8201117318435777
2023-02-22,1.0
2023-02-23,0.44205128205128563
2023-02-24,0.4471544715447202
2023-02-27,0.11902231668438085
2023-02-28,0.09694989106753882
2023-03-01,0.18805093046033391
2023-03-02,0.30283911671924263
2023-03-03,0.24054054054054094
2023-03-06,0.34833659491192587
2023-03-07,0.36931818181816295
2023-03-08,0.16457960644005695
2023-03-09,0.3216630196936442
2023-03-10,0.48787061994606395
2023-03-13,0.6298342541436337
2023-03-14,0.583850931677018
2023-03-15,0.9641025641025973
2023-03-16,0.9739776951673099
2023-03-17,0.9773085191613173
2023-03-20,0.7866144882725009
2023-03-21,0.3831230042592463
2023-03-22,0.3358010058500777
2023-03-23,0.11588182759095113
2023-03-24,0.0
2023-03-27,0.0
2023-03-28,0.0
2023-03-29,0.21453026005371775
2023-03-30,0.4448051948052007
2023-03-31,0.8408071748879077
2023-04-03,0.8976234003656487
2023-04-04,0.8862815884476372
2023-04-06,0.6742857142856926
2023-04-07,0.45974576271184037
2023-04-10,0.4178082191780631
2023-04-11,0.1306042884990213
2023-04-12,0.14408602150537156
2023-04-13,0.21832884097035418
2023-04-14,0.23893805309735294
2023-04-17,0.03954802259888184
2023-04-18,0.12865497076024762
2023-04-19,0.4904942965779457
2023-04-20,0.3911564625850252
2023-04-21,0.8343793279058691
2023-04-24,0.9439372341939872
2023-04-25,0.9691717036546172
2023-04-26,0.9683652594751825
2023-04-27,1.0
2023-04-28,0.7658721113209971
2023-05-04,0.644834635927545
2023-05-05,0.247005584706051
2023-05-08,0.2042094394774897
2023-05-09,0.06613664009227997
2023-05-10,0.08437161207907344
2023-05-11,0.21688751946869284
2023-05-12,0.5872205868246653
2023-05-15,0.7823301149667262
2023-05-16,0.5939172231112402
2023-05-17,0.6568265682656727
2023-05-18,0.6429942418425999
2023-05-19,0.5200668896320914
2023-05-22,0.08957654723126557
2023-05-23,0.1999999999999975
2023-05-24,0.3557858376511222
2023-05-25,0.5467800729040138
2023-05-26,0.6738609112709929
2023-05-29,1.0
2023-05-30,1.0
2023-05-31,0.9227053140096644
2023-06-01,0.5591836734693902
2023-06-02,0.25511811023622183
2023-06-05,0.18453865336658182
2023-06-06,0.1150202976995804
2023-06-07,0.10841836734692602
2023-06-08,0.12859304084718676
2023-06-09,0.321276595744671
2023-06-12,0.657568238213403
2023-06-13,0.24793388429753557
2023-06-14,0.265095729013269
2023-06-15,0.2567760342368192
2023-06-16,0.22230172781382612
2023-06-19,0.05271884168670302
2023-06-20,0.13331489222505427
2023-06-21,0.713326844092535
2023-06-26,0.8413345157522979
2023-06-27,0.7587028777422286
2023-06-28,0.9232889426408689
2023-06-29,0.9320013292237804
2023-06-30,0.7303742470810771
2023-07-03,0.5043227665705825
2023-07-04,0.4475703324808094
2023-07-05,0.03038674033148735
2023-07-06,0.18466898954703345
2023-07-07,0.16861081654294563
2023-07-10,0.19653893695920785
2023-07-11,0.40718562874250824
2023-07-12,0.6857541899441374
2023-07-13,0.5704467353951906
2023-07-14,0.7328918322295764
2023-07-17,0.681724845995887
2023-07-18,0.4364161849710994
2023-07-19,0.0
2023-07-20,0.3317323532980528
2023-07-21,0.548063320531571
2023-07-24,0.6995839658832276
2023-07-25,0.7159558499527994
2023-07-26,0.7086454297884243
2023-07-27,0.41141682780283945
2023-07-28,0.6082951784692646
2023-07-31,0.6346492523163183
2023-08-01,0.6223589690793001
2023-08-02,0.7712296544355729
2023-08-03,0.820002458312595
2023-08-04,0.40130764211875053
2023-08-07,0.1804363426149204
2023-08-08,0.21817683072550503
2023-08-09,0.03758740935268773
2023-08-10,0.04174775790860915
2023-08-11,0.521807370336406
2023-08-14,0.8763358778625963
2023-08-15,0.9131832797427661
2023-08-16,0.976244343891394
2023-08-17,1.0
2023-08-18,0.9362637362637305
2023-08-21,0.9318448883666213
2023-08-22,0.8967971530249018
2023-08-23,0.92952612393681
2023-08-24,0.7194928684627422
2023-08-25,0.6696165191740366
2023-08-28,0.8304314912944717
2023-08-29,0.8653036680697522
2023-08-30,0.7437858508604195
2023-08-31,0.7553398058252457
2023-09-01,0.6828554710356942
2023-09-04,0.18661787767904042
2023-09-05,0.0
2023-09-06,0.004006009013520723
2023-09-07,0.055361596009977115
2023-09-08,0.06250000000000212
2023-09-11,0.31111111111111184
2023-09-12,0.671232876712335
2023-09-13,0.7328385899814542
2023-09-14,0.4345238095238161
2023-09-15,0.5641926763619614
2023-09-18,0.35277902229619534
2023-09-19,0.4856552652823496
2023-09-20,0.27047130341828435
2023-09-21,0.4852747167158794
2023-09-22,0.5117971201508593
2023-09-25,0.49213806412063327
2023-09-26,0.3768343981431756
2023-09-27,0.610850695829899
2023-09-28,0.3941411451398156
2023-10-09,0.13157894736842105
2023-10-10,0.2521246458923531
2023-10-11,0.49633251833740505
2023-10-12,0.363526570048304
2023-10-13,0.4439528023598745
2023-10-16,0.7435424354243446
2023-10-17,0.5296950240770371
2023-10-18,0.2475728155339759
2023-10-19,0.7092298954948172
2023-10-20,0.8039878015798293
2023-10-23,0.8628508740180633
2023-10-24,0.9872994847070553
2023-10-25,0.9769252918744333
2023-10-26,0.8185674571674455
2023-10-27,0.8423838629287972
2023-10-30,0.48450905303397124
2023-10-31,0.31519347258408525
2023-11-01,0.31335856727636485
2023-11-02,0.36513811050803857
2023-11-03,0.0013404036798281458
2023-11-06,0.0021909561616632028
2023-11-07,0.0733977565644164
2023-11-08,0.10287539701177877
2023-11-09,0.09163643166205757
2023-11-10,0.12191851598094201
2023-11-13,0.1149689821210759
2023-11-14,0.028301886792457612
2023-11-15,0.03286384976524977
2023-11-16,0.02978723404254621
2023-11-17,0.1781818181818039
2023-11-20,0.6411609498680764
2023-11-21,0.8082788671024079
2023-11-22,0.8370370370370475
2023-11-23,1.0
2023-11-24,1.0
2023-11-27,0.8027210884353714
2023-11-28,0.778963414634143
2023-11-29,0.5867418899858937
2023-11-30,0.2696969696969678
2023-12-01,0.12681159420291568
2023-12-04,0.14314928425359866
2023-12-05,0.06888888888891455
2023-12-06,0.4354166666666807
2023-12-07,0.8014527845036425
2023-12-08,0.61264822134387
2023-12-11,0.8837920489296587
2023-12-12,0.6916868442292169
2023-12-13,0.5497975708502054
2023-12-14,0.49596710730715615
2023-12-15,0.6458540856577248
2023-12-18,0.23297104848610187
2023-12-19,0.40962936968328073
2023-12-20,0.5634342326759644
2023-12-21,0.6174561367566336
2023-12-22,0.4449931422862669
2023-12-25,0.7771784767584365
2023-12-26,0.7154610806280606
2023-12-27,0.4753623188405732
2023-12-28,0.4843304843304877
2023-12-29,0.5396825396825314
2024-01-02,0.43814432989690444
2024-01-03,0.31566265060240645
2024-01-04,0.37604456824511256
2024-01-05,0.010471204188473738
2024-01-08,0.5662983425414363
2024-01-09,0.7246558197747149
2024-01-10,0.8519230769230751
2024-01-11,0.8790259230164954
2024-01-12,0.870817120622569
2024-01-15,0.5844262295081972
2024-01-16,0.5469168900804305
2024-01-17,0.509196515004845
2024-01-18,0.5411764705882368
2024-01-19,0.6886322913790387
2024-01-22,1.0
2024-01-23,1.0
2024-01-24,1.0
2024-01-25,1.0
2024-01-26,0.9778158082710482
2024-01-29,0.48043920325476724
2024-01-30,0.21712608571166672
2024-01-31,0.09122239642383363
2024-02-01,0.0
2024-02-02,0.4222814396933613
2024-02-05,0.756217824925959
2024-02-06,0.895309064978546
2024-02-07,0.9599889356725331
2024-02-08,1.0
2024-02-19,0.822102961426826
2024-02-20,0.5838534605214968
2024-02-21,0.27517759971812267
2024-02-22,0.115408904325859
2024-02-23,0.0
2024-02-26,0.0
2024-02-27,0.07970867893991608
2024-02-28,0.15606758832565343
2024-02-29,0.4297872340425532
2024-03-01,0.6725181598062943
2024-03-04,0.8403933434190628
2024-03-05,0.5077903682719555
2024-03-06,0.3447684391080625
2024-03-07,0.0
2024-03-08,0.08640406607369944
2024-03-11,0.18547418967587084
2024-03-12,0.3518930957683739
2024-03-13,0.4266426642664272
2024-03-14,0.6286472148541131
2024-03-15,0.5987628288033173
2024-03-18,0.3541102710274437
2024-03-19,0.11128034300949172
2024-03-20,0.12600179412948156
2024-03-21,0.10765864108936463
2024-03-22,0.0
2024-03-25,0.17896367828955065
2024-03-26,0.38296106357909215
2024-03-27,0.7552451983839854
2024-03-28,0.9869822485207079
2024-03-29,0.8742138364779912
2024-04-01,0.7973568281938326
2024-04-02,0.7092119866814623
2024-04-03,0.2737487231869214
2024-04-08,0.0
2024-04-09,0.0
2024-04-10,0.03157894736842189
2024-04-11,0.31693989071038203
2024-04-12,0.6528258362168339
2024-04-15,0.8324324324324247
2024-04-16,1.0
2024-04-17,1.0
2024-04-18,1.0
2024-04-19,1.0
2024-04-22,0.679587586227969
2024-04-23,0.17084624371742269
2024-04-24,0.046079436271384853
2024-04-25,0.03092727082229277
2024-04-26,0.15781002953172873
2024-04-29,0.27677837969558683
2024-04-30,0.29391288549910377
2024-05-06,0.2898034001992338
2024-05-07,0.31813740671810603
2024-05-08,0.07958699039289187
2024-05-09,0.04931877734287141
2024-05-10,0.2867126517205178
2024-05-13,0.44090208268216424
2024-05-14,0.6297257712480591
2024-05-15,0.9713899560555657
2024-05-16,0.7086253359397945
2024-05-17,0.5805739514348929
2024-05-20,0.3675417661097901
2024-05-21,0.02631578947368421
2024-05-22,0.019189765458421586
2024-05-23,0.3048780487804818
2024-05-24,0.32304038004750757
2024-05-27,0.5597484276729435
2024-05-28,0.6586538461538353
2024-05-29,1.0
2024-05-30,0.5834862385321095
2024-05-31,0.40877914951988964
2024-06-03,0.3338485316847119
2024-06-04,0.5189732142857159
2024-06-05,0.4260985352862898
2024-06-06,0.713884992987384
2024-06-07,1.0
2024-06-11,0.8821138211382157
2024-06-12,0.4770531400966193
2024-06-13,0.4357798165137614
2024-06-14,0.2519788918205779
2024-06-17,0.0
2024-06-18,0.0
2024-06-19,0.2343195266272245
2024-06-20,0.4006116207951104
2024-06-21,0.37102852232622674
2024-06-24,0.6775982947015826
2024-06-25,0.8662504792804151
2024-06-26,0.8638412227514816
2024-06-27,0.7958277429246999
2024-06-28,0.9546936954503389
2024-07-01,0.9342093603423318
2024-07-02,0.6607784571510101
2024-07-03,0.29136760151700103
2024-07-04,0.4163372859025051
2024-07-05,0.20098846787479835
2024-07-08,0.19966996699670989
2024-07-09,0.6049237983587401
2024-07-10,0.8973913043478325
2024-07-11,0.6661129568106302
2024-07-12,0.5095298602287175
2024-07-15,0.37511870845204026
2024-07-16,0.0
2024-07-17,0.0
2024-07-18,0.049421661409044214
2024-07-19,0.24186219723823213
2024-07-22,0.4412012234727665
2024-07-23,0.9999999999999927
2024-07-24,1.0
2024-07-25,0.9555282919640005
2024-07-26,0.947830118705558
2024-07-29,0.824436840401492
2024-07-30,0.24125656366077225
2024-07-31,0.5618645394542728
2024-08-01,0.6332130624984041
2024-08-02,0.6560453313597583
2024-08-05,0.7909938810379884
2024-08-06,1.0
2024-08-07,0.5801298900819284
2024-08-08,0.5035116270137922
2024-08-09,0.4673878332255443
2024-08-12,0.07223585793643611
2024-08-13,0.004190160739642923
2024-08-14,0.012195121951216784
2024-08-15,0.1066217732884323
2024-08-16,0.07445008460236614
2024-08-19,0.32344632768360937
2024-08-20,0.6311881188118772
2024-08-21,0.48374760994263205
2024-08-22,0.37147887323943185
2024-08-23,0.4795454545454489
2024-08-26,0.30117899249731794
2024-08-27,0.0
2024-08-28,0.13122171945701896
2024-08-29,0.30769230769231176
2024-08-30,0.625
2024-09-02,0.7747010698552548
2024-09-03,1.0
2024-09-04,1.0
2024-09-05,0.8220230473751613
2024-09-06,0.5068603712671514
2024-09-09,0.2848158131176963
2024-09-10,0.3102253032928896
2024-09-11,0.17057761732851764
2024-09-12,0.3439099283520957
2024-09-13,0.4062877871825867
2024-09-18,0.5973684210526371
2024-09-19,0.6005221932115
2024-09-20,0.6747606696110432
2024-09-23,0.5746470066100323
2024-09-24,0.9562520938297153
2024-09-25,0.9592582863297352
2024-09-26,0.970361178932842
2024-09-27,0.9970449229988051
2024-09-30,1.0
2024-10-08,1.0
2024-10-09,1.0
2024-10-10,1.0
2024-10-11,0.8938824333561176
2024-10-14,0.6640640249853594
2024-10-15,0.2827194357366767
2024-10-16,0.0014081673707511814
2024-10-17,0.0
2024-10-18,0.1520565387594898
2024-10-21,0.17502285564597347
2024-10-22,0.2426033137756881
2024-10-23,0.3594806137798183
2024-10-24,0.3995235883459194
2024-10-25,0.0
2024-10-28,0.0
2024-10-29,0.012488197763903476
2024-10-30,0.01234966744230319
2024-10-31,0.14834491213730924
2024-11-01,0.4298727185287936
2024-11-04,0.6594855538750788
2024-11-05,0.8237009101242819
2024-11-06,0.9494284306539266
2024-11-07,0.9418768082967601
2024-11-08,0.9792672052060571
2024-11-11,1.0
2024-11-12,0.6821472132730374
2024-11-13,0.503635711129171
2024-11-14,0.33083411433927107
2024-11-15,0.285285285285291
2024-11-18,0.26163391933816493
2024-11-19,0.3480055020632849
2024-11-20,0.5135623869801271
2024-11-21,0.3983169705469833
2024-11-22,0.5586419753086324
2024-11-25,0.3232142857142788
2024-11-26,0.28127428127427495
2024-11-27,0.4812114413909092
2024-11-28,0.627862595419846
2024-11-29,0.45024021962937544
2024-12-02,0.6073211314475891
2024-12-03,0.7411167512690329
2024-12-04,0.19370229007633477
2024-12-05,0.07414829659319083
2024-12-06,0.08277404921700765
2024-12-09,0.0
2024-12-10,0.38413361169102384
2024-12-11,0.5673175745118264
2024-12-12,0.6488706365503109
2024-12-13,0.503987240829341
2024-12-16,0.5658005029337765
2024-12-17,0.10275689223057419
2024-12-18,0.1543264942016011
2024-12-19,0.13582497721057255
2024-12-20,0.19345419612521592
2024-12-23,0.16497336733882784
2024-12-24,0.5310054513592495
2024-12-25,0.6598086982902935
2024-12-26,0.32534183030097985
2024-12-27,0.5796655554874675
2024-12-30,0.40283346473289394
2024-12-31,0.6923774769712298
