date,FCT_Cr_Atr_Dfive
2015-04-16,
2015-04-17,
2015-04-20,
2015-04-21,
2015-04-22,
2015-04-23,
2015-04-24,
2015-04-27,
2015-04-28,
2015-04-29,
2015-04-30,-0.015519825324551713
2015-05-04,0.12342778203252616
2015-05-05,0.013225746972773079
2015-05-06,0.001593064165163624
2015-05-07,-0.12874111358315246
2015-05-08,0.18970580028294926
2015-05-11,-0.05026761502028368
2015-05-12,-0.015880595673851396
2015-05-13,0.05473614127262924
2015-05-14,0.08037724611105969
2015-05-15,-0.12195865012021145
2015-05-18,-0.11886713171258588
2015-05-19,0.17501783206997756
2015-05-20,0.06811640888792175
2015-05-21,0.14390971864361335
2015-05-22,0.07068375043583155
2015-05-25,0.267693111871082
2015-05-26,-0.09714274000227655
2015-05-27,-0.0504764660248736
2015-05-28,0.041776951923569644
2015-05-29,-0.01643890817342579
2015-06-01,-0.05472037987267531
2015-06-02,-0.05932746548029045
2015-06-03,0.085089990631405
2015-06-04,-0.13415116694416546
2015-06-05,0.019510959154339473
2015-06-08,-0.21455267344637924
2015-06-09,-0.017677236059025898
2015-06-10,-0.057583287117041984
2015-06-11,-0.3109130180505744
2015-06-12,-0.18936224052032713
2015-06-15,0.08346210061772821
2015-06-16,0.04977439929291427
2015-06-17,-0.07108819045988399
2015-06-18,0.33341291404934636
2015-06-19,0.2337545907167094
2015-06-23,0.07034463989277888
2015-06-24,-0.05774027562150978
2015-06-25,0.10600469389137365
2015-06-26,-0.061694530207317
2015-06-29,-0.0022485034950968513
2015-06-30,0.027571335877606212
2015-07-01,0.21230933275989272
2015-07-02,-0.03236862292100044
2015-07-03,-0.021642041417970194
2015-07-06,-0.024422250636266046
2015-07-07,-0.11735324908949382
2015-07-08,-0.18257905888034015
2015-07-09,-0.08432592996345067
2015-07-10,-0.12434866636769404
2015-07-13,-0.263734267954866
2015-07-14,-0.09946264396790522
2015-07-15,-0.20571899846631875
2015-07-16,0.21015920741137847
2015-07-17,0.21415995192004894
2015-07-20,0.2047255200326581
2015-07-21,0.15962973771786654
2015-07-22,0.11937165403533827
2015-07-23,-0.2269572904191661
2015-07-24,-0.11238815575943417
2015-07-27,0.030848422087656993
2015-07-28,-0.045729291827230886
2015-07-29,0.21409677910287672
2015-07-30,0.011121043257229901
2015-07-31,-0.05611047981944737
2015-08-03,-0.20862853922780472
2015-08-04,0.06707376249851854
2015-08-05,-0.3077522279814816
2015-08-06,-0.03495939675058962
2015-08-07,0.03444666151378259
2015-08-10,0.26403985136029745
2015-08-11,-0.2452550725233897
2015-08-12,0.17498536929663674
2015-08-13,0.07732138106290534
2015-08-14,-0.06656741379834151
2015-08-17,-0.168840779043098
2015-08-18,0.6990182533690831
2015-08-19,0.13579607662072404
2015-08-20,0.05853313968436623
2015-08-21,0.22617416150680025
2015-08-24,0.07785376590856521
2015-08-25,-0.6517863845603156
2015-08-26,-0.025727174945950407
2015-08-27,0.012326123562010793
2015-08-28,-0.14896513945028284
2015-08-31,-0.014486304204406605
2015-09-01,0.251724066235194
2015-09-02,-0.10367441193109032
2015-09-07,-0.11244257339584868
2015-09-08,0.04913225212294393
2015-09-09,-0.08459298056476566
2015-09-10,-0.3104956358286897
2015-09-11,-0.2929047573606841
2015-09-14,0.2766611632162993
2015-09-15,-0.19105645773615648
2015-09-16,0.2520486277640426
2015-09-17,0.26697712183114775
2015-09-18,0.31233051529788297
2015-09-21,-0.3293614642907995
2015-09-22,0.09762165458014918
2015-09-23,-0.37550306495271446
2015-09-24,-0.18988789194156408
2015-09-25,0.1019206002533494
2015-09-28,-0.03111320826964499
2015-09-29,0.038606319602413904
2015-09-30,0.16162538913276886
2015-10-08,0.11550309646874334
2015-10-09,-0.27586039290415465
2015-10-12,0.21083695476016226
2015-10-13,0.008827173387063915
2015-10-14,0.018575610426479976
2015-10-15,0.15364723786986614
2015-10-16,0.14065285904737032
2015-10-19,-0.10114129181915724
2015-10-20,0.06283442574573517
2015-10-21,0.2690273279421481
2015-10-22,-0.1754491818851997
2015-10-23,0.024991945694988114
2015-10-26,-0.03015368901485524
2015-10-27,0.058701778693304625
2015-10-28,-0.3382935540341442
2015-10-29,0.01552366171351759
2015-10-30,-0.028595285476308935
2015-11-02,0.13068161988338955
2015-11-03,-0.26291962823934967
2015-11-04,0.24663451093402838
2015-11-05,-0.05578942091024991
2015-11-06,0.03817391042603176
2015-11-09,-0.09909879230058119
2015-11-10,0.13270751204712086
2015-11-11,-0.3761759873089222
2015-11-12,0.11661607054981006
2015-11-13,-0.10675023823212203
2015-11-16,0.12093877173203087
2015-11-17,0.18976724263959385
2015-11-18,0.23786327628592674
2015-11-19,0.025130327597171223
2015-11-20,0.05083930292650324
2015-11-23,-0.15284838634685416
2015-11-24,-0.26122820986388423
2015-11-25,-0.01348768600835025
2015-11-26,-0.1799354550305155
2015-11-27,0.5640315593448756
2015-11-30,0.09366660601398596
2015-12-01,0.12456698831536797
2015-12-02,0.10584282279454381
2015-12-03,0.13770666754366498
2015-12-04,-0.8155850639248516
2015-12-07,-0.10605258217527257
2015-12-08,-0.10226547070309791
2015-12-09,-0.31554430283349083
2015-12-10,-0.038207240832790305
2015-12-11,0.25806979050537066
2015-12-14,0.17630545660741828
2015-12-15,0.01820965965546152
2015-12-16,0.18173567933936183
2015-12-17,0.03713469335535618
2015-12-18,-0.02375239471586972
2015-12-21,-0.20262140763844047
2015-12-22,0.09211877914818518
2015-12-23,0.09540888567988691
2015-12-24,-0.0646005309031481
2015-12-25,0.03529395416300634
2015-12-28,0.3030848337872927
2015-12-29,-0.018008976023573327
2015-12-30,-0.09672452965824654
2015-12-31,0.09448615481341816
2016-01-04,0.42469645322139904
2016-01-05,-0.27279546656733844
2016-01-06,-0.010491497024439913
2016-01-07,0.23310818865052166
2016-01-08,0.09390325458524398
2016-01-11,-0.4246585888338479
2016-01-12,0.058279508280367986
2016-01-13,0.10126346884333559
2016-01-14,-0.20606675060529184
2016-01-15,-0.18441978647765764
2016-01-18,-0.09456709660238309
2016-01-19,0.060843529373509064
2016-01-20,-0.22734347862549303
2016-01-21,-0.024438357883953817
2016-01-22,-0.06623447483255349
2016-01-25,0.020239583818548082
2016-01-26,0.06502257678623077
2016-01-27,0.25428774125206405
2016-01-28,-0.05880444383415562
2016-01-29,0.13013750828647666
2016-02-01,0.09885295222462749
2016-02-02,-0.24120339338866342
2016-02-03,-0.2828280494794696
2016-02-04,-0.008308679891103385
2016-02-05,-0.2017874522185293
2016-02-15,0.026071402559030354
2016-02-16,0.1428297635614713
2016-02-17,0.09279820554055895
2016-02-18,0.08934552361552416
2016-02-19,0.1960805757914474
2016-02-22,-0.15100510067660233
2016-02-23,-0.14893454087044125
2016-02-24,0.1698538007472999
2016-02-25,0.7162487343774825
2016-02-26,0.018390672854173545
2016-02-29,0.3169315845230778
2016-03-01,0.19692581482037907
2016-03-02,-0.011423958301710585
2016-03-03,-0.9725592884333016
2016-03-04,0.054085634917784044
2016-03-07,-0.327968725682371
2016-03-08,0.01693959068717571
2016-03-09,-0.2816247882939646
2016-03-10,0.3249597180833545
2016-03-11,-0.20804438449920473
2016-03-14,0.1410694212472928
2016-03-15,-0.27027795656957043
2016-03-16,0.26675577384030724
2016-03-17,-0.05871508882416842
2016-03-18,0.2101225720983948
2016-03-21,-0.12235412719970888
2016-03-22,0.21437797506391515
2016-03-23,-0.2178537651384409
2016-03-24,-0.12737675811338584
2016-03-25,-0.30020271692895606
2016-03-28,0.3031504937987647
2016-03-29,0.03559278800368616
2016-03-30,0.2587414830366015
2016-03-31,0.047181989427931226
2016-04-01,0.2883884430362526
2016-04-05,-0.17653996384839854
2016-04-06,-0.17340495637910236
2016-04-07,-0.2178871581649699
2016-04-08,0.1245298764068131
2016-04-11,-0.11551292258240001
2016-04-12,-0.19499140433727438
2016-04-13,0.24854184594681505
2016-04-14,-0.030567758673827133
2016-04-15,-0.07573881013481402
2016-04-18,0.013287318978216505
2016-04-19,0.16307065771242968
2016-04-20,0.4103919058709389
2016-04-21,0.20719565013011038
2016-04-22,0.05570659012277005
2016-04-25,0.01857460251427371
2016-04-26,0.021408667531895926
2016-04-27,-0.8904975514645797
2016-04-28,-0.07881465171105964
2016-04-29,-0.07897352752966369
2016-05-03,0.2408667832915351
2016-05-04,-0.09287837891225138
2016-05-05,0.3407437240852751
2016-05-06,0.1450504724869519
2016-05-09,0.18261300232073394
2016-05-10,-0.4809305419222704
2016-05-11,0.17218497588307552
2016-05-12,0.10947552419256756
2016-05-13,-0.3096368526225606
2016-05-16,-0.19062476513040374
2016-05-17,0.2982140267940004
2016-05-18,-0.049378433391514785
2016-05-19,-0.15846967790522787
2016-05-20,0.17979411111745405
2016-05-23,-0.029251132522118785
2016-05-24,-0.06757453071272886
2016-05-25,-0.09366958523712476
2016-05-26,0.11167625221989604
2016-05-27,-0.1426258288096762
2016-05-30,0.18291953003584388
2016-05-31,0.3043903464759149
2016-06-01,-0.01704625665519044
2016-06-02,-0.202998689867466
2016-06-03,0.1425777692652408
2016-06-06,-0.20884919401460417
2016-06-07,-0.6692646331200601
2016-06-08,0.12353188973468468
2016-06-13,0.6514004776668003
2016-06-14,-0.07370345905144186
2016-06-15,0.4558423125299416
2016-06-16,0.36627257217746745
2016-06-17,-0.0012392078526830622
2016-06-20,-0.6425745448339106
2016-06-21,0.2571218823131758
2016-06-22,-0.4790869552271839
2016-06-23,0.04535090492598883
2016-06-24,0.13452324220429052
2016-06-27,0.17279188900330075
2016-06-28,-0.3344976750920345
2016-06-29,0.014842584726353858
2016-06-30,-0.11541563793571427
2016-07-01,-0.46642475266609507
2016-07-04,0.002583104614502188
2016-07-05,-0.003367144700801669
2016-07-06,0.1710057241185973
2016-07-07,0.2317159013423863
2016-07-08,0.23947098396827826
2016-07-11,-0.18614104047381602
2016-07-12,0.34328762399688395
2016-07-13,-0.05483349919807404
2016-07-14,-0.2916942274676526
2016-07-15,0.08412393406456628
2016-07-18,0.09881695796744237
2016-07-19,-0.376740077346186
2016-07-20,-0.035389293532648934
2016-07-21,0.30588198124106186
2016-07-22,-0.0927106255890236
2016-07-25,0.031063884831857038
2016-07-26,0.22730437199625067
2016-07-27,0.7174697344046523
2016-07-28,-0.17909532967610256
2016-07-29,0.045867393278840665
2016-08-01,0.1079162014105244
2016-08-02,-0.12066792073495411
2016-08-03,-1.0901198000448777
2016-08-04,-0.036917036502587534
2016-08-05,-0.07584923220101862
2016-08-08,-0.04806458900516779
2016-08-09,0.037290343238875395
2016-08-10,0.373627195465678
2016-08-11,0.07698453151716844
2016-08-12,0.2672862400750276
2016-08-15,0.025212422521464703
2016-08-16,-0.007566892951798902
2016-08-17,0.057187597991582795
2016-08-18,-0.020903107379288098
2016-08-19,-0.2731932561582374
2016-08-22,-0.20997834852767458
2016-08-23,0.1977739297836954
2016-08-24,0.004231113325906893
2016-08-25,-0.012843710056180815
2016-08-26,0.16894413203371228
2016-08-29,0.04294979441033882
2016-08-30,-0.2806064577755704
2016-08-31,-0.004647765390996757
2016-09-01,-0.012033681521788514
2016-09-02,-0.16828148893946884
2016-09-05,0.07985136461124481
2016-09-06,0.4165661875425566
2016-09-07,-0.0667883345866596
2016-09-08,-0.06688779172072323
2016-09-09,0.0015583058155437396
2016-09-12,0.1235883651817106
2016-09-13,-0.6718688806370762
2016-09-14,0.028423722588679222
2016-09-19,0.07068129386026101
2016-09-20,0.027992427254187997
2016-09-21,-0.2950050275821101
2016-09-22,0.4400000687146407
2016-09-23,-0.05891837232435554
2016-09-26,0.3134066340910215
2016-09-27,0.22204646924255442
2016-09-28,0.14845380757507579
2016-09-29,-0.03802362134146072
2016-09-30,0.11308106904772394
2016-10-10,0.19576294899106417
2016-10-11,-0.27391088713814693
2016-10-12,0.02552105556341045
2016-10-13,-0.09815724503041223
2016-10-14,0.016025971681314817
2016-10-17,-0.8637915591383627
2016-10-18,0.3658539471993473
2016-10-19,0.09642740223933877
2016-10-20,0.03325966803301868
2016-10-21,0.018887022571165715
2016-10-24,0.3300195397751083
2016-10-25,-0.46854328595507655
2016-10-26,-0.09613952394683818
2016-10-27,0.07824275737731297
2016-10-28,-0.07060812287864734
2016-10-31,-0.13344358245970306
2016-11-01,0.39435882389352606
2016-11-02,0.06401311572198648
2016-11-03,0.09745945790246024
2016-11-04,-0.04896205818139158
2016-11-07,0.17699929749819748
2016-11-08,-0.207057109439252
2016-11-09,0.24959119695723866
2016-11-10,-0.2749412203769302
2016-11-11,0.09083825964236453
2016-11-14,0.025601112155378487
2016-11-15,-0.0336124314432846
2016-11-16,-0.6283651420904278
2016-11-17,0.20111720093749239
2016-11-18,-0.1431905493228432
2016-11-21,-0.030120178202654405
2016-11-22,0.13880854786426197
2016-11-23,0.45084775561389046
2016-11-24,-0.15551235030158872
2016-11-25,0.3673906571734729
2016-11-28,-0.02238178911669044
2016-11-29,-0.043436647860927005
2016-11-30,-0.07242821918627479
2016-12-01,0.11520413187431612
2016-12-02,-0.2780694883469089
2016-12-05,0.1117177425160737
2016-12-06,-0.08758397681493102
2016-12-07,-0.04720266859813543
2016-12-08,-0.10731596973188046
2016-12-09,-0.2073149602728343
2016-12-12,0.6352562539327026
2016-12-13,0.10534669529945272
2016-12-14,0.02365679401161002
2016-12-15,0.2255093528265844
2016-12-16,0.26239128815021384
2016-12-19,-1.116025135081286
2016-12-20,-0.1474856097543144
2016-12-21,-0.09693841340183447
2016-12-22,-0.30960356991006777
2016-12-23,-0.06876623903383157
2016-12-26,0.5709186145850991
2016-12-27,0.012787258050403913
2016-12-28,0.022402993511595366
2016-12-29,0.14976855979089612
2016-12-30,-0.0035051299355565793
2017-01-03,-0.3163931364879825
2017-01-04,0.3726919217155434
2017-01-05,-0.009740795256436327
2017-01-06,-0.0654404172254241
2017-01-09,0.024582419280614477
2017-01-10,0.04423226736049096
2017-01-11,-0.3635424013696423
2017-01-12,0.30887778271118094
2017-01-13,0.228481735666288
2017-01-16,0.704508514620377
2017-01-17,0.19488437214763224
2017-01-18,0.03598089615215565
2017-01-19,-0.27656949788970714
2017-01-20,-0.11646573379135206
2017-01-23,-1.065579617687743
2017-01-24,-0.2750248191908627
2017-01-25,0.02938601287645197
2017-01-26,-0.03191346150812148
2017-02-03,-0.05950094286068412
2017-02-06,0.3554439028952164
2017-02-07,0.21751495680374217
2017-02-08,0.08427865421839999
2017-02-09,0.0865982241953402
2017-02-10,-0.1996110548319479
2017-02-13,0.02543966454234929
2017-02-14,-0.11847496651323586
2017-02-15,-0.16404459937072693
2017-02-16,0.01821322083369925
2017-02-17,0.42877561759681393
2017-02-20,0.08459265134079944
2017-02-21,0.1375649736363033
2017-02-22,0.040620491820852325
2017-02-23,-0.060343841818704655
2017-02-24,-0.37346850945689314
2017-02-27,-0.161275659447434
2017-02-28,-0.13216142427475533
2017-03-01,0.12395698299247107
2017-03-02,0.027300112510428787
2017-03-03,0.27326183269728205
2017-03-06,0.056627095230566055
2017-03-07,0.049498865394916845
2017-03-08,-0.21349912408094013
2017-03-09,0.05874752675868044
2017-03-10,-0.22792299540797967
2017-03-13,0.18225587174434954
2017-03-14,0.035316262537353586
2017-03-15,0.10348133156831396
2017-03-16,-0.08130520914521855
2017-03-17,0.512762210165671
2017-03-20,-0.3479278770939554
2017-03-21,-0.023091310395355228
2017-03-22,0.13498786359020645
2017-03-23,0.060775287635307276
2017-03-24,-0.5697966231211391
2017-03-27,0.22260939316343317
2017-03-28,0.0049828774454222634
2017-03-29,-0.06699178931526983
2017-03-30,-0.03471727553339529
2017-03-31,0.04674832428981654
2017-04-05,0.12301658587422845
2017-04-06,-0.024439539450013394
2017-04-07,-0.08857937775947858
2017-04-10,-0.19837633712663724
2017-04-11,0.3473541551330117
2017-04-12,-0.351130902390807
2017-04-13,0.16249864959936555
2017-04-14,0.1524689865804997
2017-04-17,0.3364413682939157
2017-04-18,-0.32013319331325496
2017-04-19,0.3311126504552224
2017-04-20,-0.15513654711704514
2017-04-21,-0.14236293594411584
2017-04-24,-0.013187774253076795
2017-04-25,0.0973688285646966
2017-04-26,-0.3071900106628702
2017-04-27,0.21038669829731652
2017-04-28,-0.061166866144622224
2017-05-02,-0.3921355949014097
2017-05-03,0.01284020700405306
2017-05-04,0.2905490773981598
2017-05-05,-0.348982749803485
2017-05-08,0.3492812219227322
2017-05-09,0.3870802032072166
2017-05-10,0.20562840344901936
2017-05-11,-0.0194928309041372
2017-05-12,0.1167666766397856
2017-05-15,-0.35354907398987856
2017-05-16,0.056175687919944955
2017-05-17,-0.3948781118964937
2017-05-18,-0.23787253349636933
2017-05-19,0.032778529747102554
2017-05-22,0.28291457588687097
2017-05-23,-0.28008234716499414
2017-05-24,0.31647628080067874
2017-05-25,0.237652759371481
2017-05-26,-0.0004781598924440051
2017-05-31,-0.16335435060103137
2017-06-01,0.08006300591053556
2017-06-02,-0.09817612489271707
2017-06-05,-0.273809115486075
2017-06-06,0.004659768305378585
2017-06-07,-0.045721690333911
2017-06-08,-0.15376486205535986
2017-06-09,-0.22273696061455403
2017-06-12,0.15038446561313756
2017-06-13,0.1106608205579
2017-06-14,-0.21731327048586194
2017-06-15,0.2570000549271643
2017-06-16,0.07057803114774716
2017-06-19,0.039084524721448535
2017-06-20,-0.2786377368057082
2017-06-21,0.32334865563165366
2017-06-22,0.10012282645651295
2017-06-23,0.3346016111995663
2017-06-26,0.11078643784370334
2017-06-27,0.16782577913488383
2017-06-28,-0.09734434051346053
2017-06-29,-0.34327146690948995
2017-06-30,-0.32639216576455693
2017-07-03,-0.33074201350492477
2017-07-04,0.00010713980164249503
2017-07-05,0.0763275213492011
2017-07-06,0.22204759267270208
2017-07-07,0.10668669464071916
2017-07-10,0.1820575820073304
2017-07-11,0.06777315326029026
2017-07-12,0.0494163749334844
2017-07-13,-0.09220026280702776
2017-07-14,-0.04299451572787264
2017-07-17,0.5270970681879966
2017-07-18,-0.060968294547703854
2017-07-19,-0.02048153834453656
2017-07-20,0.010544588754586076
2017-07-21,0.040042079493458005
2017-07-24,-0.8065934964248177
2017-07-25,-0.03249681258490858
2017-07-26,-0.29789322333659807
2017-07-27,0.2054014265661318
2017-07-28,0.04230940550915787
2017-07-31,0.3628212377556549
2017-08-01,-0.02820681644706176
2017-08-02,0.24930649614848283
2017-08-03,-0.32806320221505014
2017-08-04,0.0031690136723045575
2017-08-07,-0.14956596999615168
2017-08-08,0.06369840602066036
2017-08-09,-0.07809286628114999
2017-08-10,0.23029918203995633
2017-08-11,0.07154875807189802
2017-08-14,0.1558288526295999
2017-08-15,-0.02473508931274356
2017-08-16,0.039730977343373705
2017-08-17,-0.15490005407905938
2017-08-18,-0.33835653607723826
2017-08-21,-0.2555037671920355
2017-08-22,0.028435727362508913
2017-08-23,0.09441926141338798
2017-08-24,0.02206893136600721
2017-08-25,0.3838624537115274
2017-08-28,0.30963872995643504
2017-08-29,0.02482378614664579
2017-08-30,-0.14596051437071128
2017-08-31,-0.0028080765269668587
2017-09-01,-0.15719302489972342
2017-09-04,-0.31609048609048346
2017-09-05,-0.06273022352923735
2017-09-06,0.03413133516905381
2017-09-07,0.12386446487121062
2017-09-08,-0.041383897171063964
2017-09-11,0.33503190967107943
2017-09-12,0.1500082684686314
2017-09-13,0.017577692000094645
2017-09-14,-0.12672505003780604
2017-09-15,0.011104773321956557
2017-09-18,-0.16856612959182682
2017-09-19,-0.11246002278648856
2017-09-20,0.06879032955322606
2017-09-21,0.13423681285448652
2017-09-22,0.045698953132097965
2017-09-25,0.04781956232791356
2017-09-26,-0.13959448192491675
2017-09-27,-0.08769933202588426
2017-09-28,-0.14076570924498866
2017-09-29,-0.06813786453611287
2017-10-09,-0.1616434010152245
2017-10-10,0.15966147240969247
2017-10-11,0.002580959869523336
2017-10-12,0.01712483482627571
2017-10-13,0.0273536217860344
2017-10-16,0.2846514898145273
2017-10-17,-0.020429197119157076
2017-10-18,0.048951641720751275
2017-10-19,0.04822898921775786
2017-10-20,0.05656783328704098
2017-10-23,-0.30063469745048854
2017-10-24,0.013001998840612572
2017-10-25,-0.042652916009574875
2017-10-26,0.038884645740938556
2017-10-27,-0.06601869992684369
2017-10-30,0.46522972823027886
2017-10-31,-0.02746194531722722
2017-11-01,0.00037281571175917967
2017-11-02,-0.0826528956737912
2017-11-03,0.16072578484035732
2017-11-06,-0.4512714512884142
2017-11-07,-0.02079338972842448
2017-11-08,0.001749735626425897
2017-11-09,-0.016697041494243767
2017-11-10,-0.28047379565406694
2017-11-13,-0.017336279800838197
2017-11-14,0.06520489898712617
2017-11-15,0.053522680576825014
2017-11-16,0.02160250044763718
2017-11-17,0.5264432969728472
2017-11-20,0.3725981756906318
2017-11-21,-0.021642593032617757
2017-11-22,0.009331429797839894
2017-11-23,0.21590276008131157
2017-11-24,-0.5323945384502167
2017-11-27,-0.3064851158715843
2017-11-28,0.028389397603487854
2017-11-29,-0.044775477339952775
2017-11-30,-0.32957055104750343
2017-12-01,0.1860459489610039
2017-12-04,0.04259788991968911
2017-12-05,0.04529929058701163
2017-12-06,-0.054904142940710915
2017-12-07,0.11416473380694558
2017-12-08,-0.005768937877887022
2017-12-11,-0.025238724419700626
2017-12-12,-0.3028099863627577
2017-12-13,-0.0442810329121631
2017-12-14,-0.044511938058997454
2017-12-15,-0.05606329477295155
2017-12-18,0.10517008490034732
2017-12-19,0.23581659546382255
2017-12-20,0.1270742761969229
2017-12-21,0.30221724848518006
2017-12-22,-0.08626409062135329
2017-12-25,0.018118103676973536
2017-12-26,0.02341034872003327
2017-12-27,-0.04341225626129205
2017-12-28,-0.35896288753023353
2017-12-29,0.21470623816783713
2018-01-02,-0.1327794739167637
2018-01-03,-0.11026313353483846
2018-01-04,-0.09844262835633506
2018-01-05,-0.008705149518667396
2018-01-08,-0.20013052022802985
2018-01-09,-0.10092096250912698
2018-01-10,0.062358393941593954
2018-01-11,0.2216763153850102
2018-01-12,0.16368661993419625
2018-01-15,0.39309076274905724
2018-01-16,0.22303426123221295
2018-01-17,0.06758869548674835
2018-01-18,-0.11877248596944767
2018-01-19,0.025627649756396212
2018-01-22,-0.2807657801273376
2018-01-23,-0.060418435826677566
2018-01-24,-0.07680126429617704
2018-01-25,-0.005347727940252098
2018-01-26,-0.15464082707946886
2018-01-29,-0.05009824197449217
2018-01-30,0.009248920515526681
2018-01-31,0.06624842268340882
2018-02-01,0.4307879915180802
2018-02-02,0.3387212282817758
2018-02-05,-0.01981888914984055
2018-02-06,0.31247074943356623
2018-02-07,0.04599666833917077
2018-02-08,-0.5450723898227083
2018-02-09,-0.20106358994348983
2018-02-12,0.13148995208220482
2018-02-13,-0.5008593376411014
2018-02-14,-0.3158829326157537
2018-02-22,0.07908045790242861
2018-02-23,-0.2742551568360783
2018-02-26,-0.11747696402622239
2018-02-27,0.11649999628037709
2018-02-28,0.3296284937535629
2018-03-01,0.11480428163225473
2018-03-02,0.20658131353051734
2018-03-05,-0.05964938292524269
2018-03-06,0.14144198429655075
2018-03-07,-0.17311047124096324
2018-03-08,-0.21254644247473678
2018-03-09,0.14628053767832477
2018-03-12,0.045201508664287474
2018-03-13,-0.16557696304005282
2018-03-14,0.08818949422947239
2018-03-15,0.2503034934120754
2018-03-16,-0.16248495937767232
2018-03-19,0.1642100282657329
2018-03-20,0.2322808532937532
2018-03-21,0.07961349632672254
2018-03-22,-0.13746845961156345
2018-03-23,0.40195325601983384
2018-03-26,0.03318570572879814
2018-03-27,-0.14146328058108126
2018-03-28,-0.19594618460733357
2018-03-29,0.06468170212258706
2018-03-30,-0.6092275838700968
2018-04-02,-0.33741515205644645
2018-04-03,-0.03283540629899979
2018-04-04,0.17195836140930854
2018-04-09,-0.03655209654450106
2018-04-10,0.2708322505760282
2018-04-11,0.11445071709502985
2018-04-12,0.005129206751069908
2018-04-13,-0.16153973351321532
2018-04-16,-0.027535390607445958
2018-04-17,0.1416860147105708
2018-04-18,0.339389746425498
2018-04-19,0.06488201283487958
2018-04-20,0.14681293585119629
2018-04-23,0.12563057972900116
2018-04-24,-0.18431868575527152
2018-04-25,-0.4253330172068972
2018-04-26,0.011307047351276696
2018-04-27,-0.16912748707118483
2018-05-02,-0.23590734437177993
2018-05-03,0.060454213513516666
2018-05-04,0.18677711792553348
2018-05-07,-0.04446169053638202
2018-05-08,0.01169910389394585
2018-05-09,0.04352358784381964
2018-05-10,-0.24240486073489004
2018-05-11,-0.00030707511533741363
2018-05-14,-0.14103634096834253
2018-05-15,0.18996128426732942
2018-05-16,0.07114794810736548
2018-05-17,0.1547328632342967
2018-05-18,0.06947044381801094
2018-05-21,0.0725222489003338
2018-05-22,-0.18087419814662054
2018-05-23,0.1282449167110264
2018-05-24,0.03439622705733957
2018-05-25,-0.06403024461075743
2018-05-28,0.17017983673578532
2018-05-29,0.23799228497782476
2018-05-30,-0.06561998385966192
2018-05-31,0.0975431029719101
2018-06-01,-0.012434487904433295
2018-06-04,-0.15541132436092084
2018-06-05,-0.19867689343263434
2018-06-06,-0.15994224217426484
2018-06-07,-0.09717440559600088
2018-06-08,0.013987520845441916
2018-06-11,0.11266893085178689
2018-06-12,0.05385148286925569
2018-06-13,0.20200635482181356
2018-06-14,0.012456088733911266
2018-06-15,0.2734115314249342
2018-06-19,0.43397012545860425
2018-06-20,0.028618295107554013
2018-06-21,0.033387588509970964
2018-06-22,0.06477867869789458
2018-06-25,-0.40982433886296704
2018-06-26,-0.7496111459954145
2018-06-27,-0.053324422168844206
2018-06-28,-0.20088882262892852
2018-06-29,-0.008426252447167333
2018-07-02,0.18817307897145452
2018-07-03,0.3183924685996251
2018-07-04,-0.05577569887716254
2018-07-05,0.12573435856258616
2018-07-06,-0.06411489175346229
2018-07-09,-0.17573914826243425
2018-07-10,-0.2135878787186309
2018-07-11,0.09332208125517549
2018-07-12,-0.04021954165447607
2018-07-13,-0.19612005108556757
2018-07-16,0.036171611902190315
2018-07-17,0.17599604770597943
2018-07-18,-0.1277305666880018
2018-07-19,-0.1454320768630747
2018-07-20,0.39937309562621
2018-07-23,0.11921990305205918
2018-07-24,0.06868255560887974
2018-07-25,0.039043527838817184
2018-07-26,0.06964592978663618
2018-07-27,-0.31806855171616155
2018-07-30,-0.025061830618028268
2018-07-31,-0.22658868289748552
2018-08-01,0.4047278271617623
2018-08-02,0.4224304000265696
2018-08-03,0.19088145230514464
2018-08-06,0.03301013726637414
2018-08-07,0.26167025751512474
2018-08-08,-0.4521567259620972
2018-08-09,-0.405669371115854
2018-08-10,-0.14858442796235943
2018-08-13,-0.07076727193622352
2018-08-14,-0.3098443822357746
2018-08-15,0.19338296997727578
2018-08-16,-0.04756304910048395
2018-08-17,0.33207234678498787
2018-08-20,-0.04452573413034412
2018-08-21,0.27702924354931296
2018-08-22,-0.21899850204842822
2018-08-23,0.07220207175198004
2018-08-24,-0.45956141831460895
2018-08-27,0.08250007088080041
2018-08-28,-0.23813680499275142
2018-08-29,0.12285857261560504
2018-08-30,-0.007491466743525542
2018-08-31,0.22825582328275215
2018-09-03,-0.07854198654291712
2018-09-04,0.2698863368593413
2018-09-05,0.07596744864832711
2018-09-06,0.04181041441575363
2018-09-07,0.11980783561929223
2018-09-10,0.029859573294909694
2018-09-11,-0.15876279956816253
2018-09-12,-0.09931507035335488
2018-09-13,0.0683834486743062
2018-09-14,-0.2753687734608119
2018-09-17,-0.06480406787155246
2018-09-18,0.11524416615162417
2018-09-19,0.12407110128964519
2018-09-20,-0.24710896881560857
2018-09-21,0.2754930074143124
2018-09-25,0.08360568398114582
2018-09-26,-0.15349014548152456
2018-09-27,-0.1972426329329021
2018-09-28,0.3052961135729815
2018-10-08,-0.20302996847272037
2018-10-09,0.05772444676459655
2018-10-10,0.08640882794459709
2018-10-11,0.5329481944990578
2018-10-12,-0.009206688921407843
2018-10-15,0.13770119742188985
2018-10-16,0.03187555997830004
2018-10-17,0.03818050645696611
2018-10-18,-0.6265102829422197
2018-10-19,-0.0991183344710821
2018-10-22,0.040429286990690996
2018-10-23,-0.07765107993162886
2018-10-24,-0.08244683997122941
2018-10-25,0.27875194901113
2018-10-26,-0.1018376105523904
2018-10-29,-0.2560120023517643
2018-10-30,0.004926858515295831
2018-10-31,0.03277284989327019
2018-11-01,-0.17213970102352094
2018-11-02,0.07109747425014945
2018-11-05,0.1253401623558103
2018-11-06,-0.1710221885873563
2018-11-07,-0.04133089432619197
2018-11-08,0.05618257769951626
2018-11-09,-0.07018751026266441
2018-11-12,0.077773709732156
2018-11-13,0.351395311584955
2018-11-14,-0.001198244426769128
2018-11-15,0.05632145691991455
2018-11-16,0.15828041919577013
2018-11-19,-0.14727511298490553
2018-11-20,-0.28750812064382153
2018-11-21,0.08962278732797596
2018-11-22,-0.03588854909955014
2018-11-23,0.0880665320599276
2018-11-26,0.08385525353714161
2018-11-27,0.004786142291849468
2018-11-28,0.016827635468358304
2018-11-29,0.11239827916860129
2018-11-30,-0.27522482463440556
2018-12-03,0.0310390900563953
2018-12-04,0.09174118449499892
2018-12-05,-0.15308610368913772
2018-12-06,-0.2151082195072308
2018-12-07,-0.062355568171066564
2018-12-10,-0.1418131621014107
2018-12-11,-0.07624814113019028
2018-12-12,-0.06478778297801742
2018-12-13,0.2203050060814097
2018-12-14,0.4180721159181091
2018-12-17,0.13792909228721445
2018-12-18,0.19798807451871253
2018-12-19,0.19946439324311427
2018-12-20,-0.23126356112489688
2018-12-21,-0.3329540408088038
2018-12-24,0.01174196833586827
2018-12-25,-0.008315689051226302
2018-12-26,-0.051696782479384314
2018-12-27,0.2919620823777071
2018-12-28,0.05559064535270644
2019-01-02,-0.08179958114739301
2019-01-03,-0.24232469639185578
2019-01-04,0.1906234945338497
2019-01-07,-0.23830135204867975
2019-01-08,-0.022549367662258055
2019-01-09,0.1304836350532861
2019-01-10,0.06503055767761313
2019-01-11,-0.37743296417995303
2019-01-14,-0.03844959511372735
2019-01-15,0.2387714332568776
2019-01-16,-0.22521635684341523
2019-01-17,0.03870223978920049
2019-01-18,0.2026229849770304
2019-01-21,0.13098040823125634
2019-01-22,-0.22538917293434377
2019-01-23,0.13045430709528077
2019-01-24,0.13120550710150455
2019-01-25,-0.05933324983081799
2019-01-28,0.06151364918326703
2019-01-29,0.12570886295777103
2019-01-30,0.07274297598218268
2019-01-31,-0.07789482082099333
2019-02-01,0.19659793568948422
2019-02-11,-0.07594421406502924
2019-02-12,-0.18328926647799723
2019-02-13,0.03131466573018275
2019-02-14,-0.11686150146362562
2019-02-15,-0.28160213953374624
2019-02-18,0.12039691342114117
2019-02-19,0.18607538285872927
2019-02-20,-0.18888049703973903
2019-02-21,0.21173357235686358
2019-02-22,0.3099490238766769
2019-02-25,0.12604985790427883
2019-02-26,-0.03063880766091509
2019-02-27,0.18475378616640062
2019-02-28,-0.18011294060602032
2019-03-01,-0.2424050251949707
2019-03-04,-0.4326934765332472
2019-03-05,-0.016591719062164785
2019-03-06,-0.03725059833868506
2019-03-07,0.19011501179879797
2019-03-08,0.19513543090049928
2019-03-11,0.19061968092398238
2019-03-12,-0.07942864729583637
2019-03-13,-0.04106194758682702
2019-03-14,-0.15696839061875212
2019-03-15,-0.20392955183847053
2019-03-18,0.03713754362943986
2019-03-19,-0.02599453860060244
2019-03-20,-0.053508247406766477
2019-03-21,-0.011971970695563293
2019-03-22,0.057869982733685654
2019-03-25,-0.21429056261609414
2019-03-26,0.2816547412915729
2019-03-27,-0.02575851930619505
2019-03-28,0.019355904042517445
2019-03-29,0.14087612341289113
2019-04-01,0.2971259072452957
2019-04-02,-0.3437151701862392
2019-04-03,0.11579584953082928
2019-04-04,-0.028773837320347724
2019-04-08,-0.17475919311064458
2019-04-09,-0.27230919776098383
2019-04-10,0.20724485569084894
2019-04-11,-0.056018087108785225
2019-04-12,0.0056902893118703154
2019-04-15,0.07525261372719241
2019-04-16,0.31834544093297357
2019-04-17,-0.14995256834989512
2019-04-18,-0.0866454044914573
2019-04-19,0.1499152405893895
2019-04-22,-0.10751750114803965
2019-04-23,-0.29416442508579504
2019-04-24,0.15393112593508382
2019-04-25,0.33841473557538104
2019-04-26,-0.1865000436929407
2019-04-29,0.09294571105186157
2019-04-30,0.10633906100635215
2019-05-06,0.20471835779457787
2019-05-07,-0.3474841219329049
2019-05-08,0.16889132695287623
2019-05-09,-0.06859720121786587
2019-05-10,0.17870278631299566
2019-05-13,-0.5443816489361708
2019-05-14,0.06615095049877917
2019-05-15,-0.20050657995170879
2019-05-16,-0.023003184054580864
2019-05-17,-0.23886177742791903
2019-05-20,0.3104033734908905
2019-05-21,0.110730762170782
2019-05-22,0.07708314831216984
2019-05-23,0.15468998944209406
2019-05-24,-0.15779711887230954
2019-05-27,0.055166512908407565
2019-05-28,-0.18671253500785642
2019-05-29,-0.017810348126762878
2019-05-30,-0.09271071892211721
2019-05-31,0.35117856448326634
2019-06-03,-0.1765412875336493
2019-06-04,0.13000430947553143
2019-06-05,0.04375271994319757
2019-06-06,0.03702607037438492
2019-06-10,-0.14561581864196976
2019-06-11,0.19221647599644215
2019-06-12,-0.023999244712995315
2019-06-13,0.00737312529055842
2019-06-14,-0.019633408391553874
2019-06-17,-0.06222069040939544
2019-06-18,-0.38485449735448685
2019-06-19,0.09829819277108776
2019-06-20,0.18104483677511327
2019-06-21,-0.07362586042281047
2019-06-24,0.06628507534977081
2019-06-25,0.3746253834048121
2019-06-26,-0.18289423071592031
2019-06-27,-0.36315260949441475
2019-06-28,0.09122298595616224
2019-07-01,0.15261130478937307
2019-07-02,-0.29067567926280624
2019-07-03,0.01605095597762407
2019-07-04,0.19410298673064186
2019-07-05,-0.08504659019192867
2019-07-08,0.09636277384182795
2019-07-09,0.18957397086471164
2019-07-10,0.1536813928720821
2019-07-11,0.021416068302780904
2019-07-12,0.0686223563266517
2019-07-15,-0.20184352849640708
2019-07-16,-0.036551191402501085
2019-07-17,-0.13072304559874656
2019-07-18,-0.1682798013321594
2019-07-19,0.0379134105474517
2019-07-22,-0.15357145335714445
2019-07-23,0.0741546508516906
2019-07-24,0.12349251618277479
2019-07-25,0.1263578184618817
2019-07-26,-0.10983373205715266
2019-07-29,-0.09179935653111912
2019-07-30,0.045281543073455256
2019-07-31,-0.1743748147215317
2019-08-01,0.02450045577133625
2019-08-02,0.09406056289438323
2019-08-05,0.28380187950245084
2019-08-06,0.05239998982246516
2019-08-07,0.16893384032335018
2019-08-08,-0.084268932190695
2019-08-09,0.07243734597641265
2019-08-12,-0.026516564344793783
2019-08-13,-0.3702344802939992
2019-08-14,-0.06310241462654977
2019-08-15,0.3567696871990437
2019-08-16,-0.18997931018426706
2019-08-19,0.05115072489140361
2019-08-20,0.27780081818115915
2019-08-21,-0.05066967737554125
2019-08-22,-0.4819301984822807
2019-08-23,0.0846039291692861
2019-08-26,-0.2894610396854821
2019-08-27,0.17144400582671082
2019-08-28,0.04244655237304386
2019-08-29,0.1821278891175793
2019-08-30,0.22279758145604045
2019-09-02,0.4021617754135379
2019-09-03,-0.3986796668034106
2019-09-04,0.16119911993842315
2019-09-05,0.09687296317135685
2019-09-06,-0.34980341002241877
2019-09-09,-0.3266737077692525
2019-09-10,0.21861735216627814
2019-09-11,-0.20869546375018394
2019-09-12,-0.14380928305287938
2019-09-16,0.14504354724369947
2019-09-17,0.15076092148578651
2019-09-18,-0.11238323920059226
2019-09-19,0.008598592786993688
2019-09-20,-0.03024963283895444
2019-09-23,0.01725473720339267
2019-09-24,-0.044093693651166284
2019-09-25,0.16907246559264505
2019-09-26,0.1984886002138682
2019-09-27,0.08593392876714674
2019-09-30,0.06267179876645848
2019-10-08,-0.06474592903558044
2019-10-09,-0.06236189895585989
2019-10-10,-0.2505655259034427
2019-10-11,0.0485745889409262
2019-10-14,-0.18126686231018774
2019-10-15,0.04745212457057267
2019-10-16,-0.09876985921585013
2019-10-17,-0.008233154964934819
2019-10-18,0.17815617251821453
2019-10-21,0.07156271205820466
2019-10-22,0.09026360753259663
2019-10-23,0.06839022431786712
2019-10-24,0.203608136294761
2019-10-25,-0.3279049522555526
2019-10-28,-0.020311512277588702
2019-10-29,-0.08297391759521244
2019-10-30,-0.0588250064445405
2019-10-31,-0.15798403175899745
2019-11-01,0.03353248291080419
2019-11-04,0.03128132146159223
2019-11-05,0.10112219530852111
2019-11-06,0.13495099018465098
2019-11-07,0.08057279479389501
2019-11-08,0.04807342353034463
2019-11-11,0.1068624659317339
2019-11-12,-0.11800045223197685
2019-11-13,-0.21953173606690765
2019-11-14,-0.06460187102131158
2019-11-15,0.021971953336487063
2019-11-18,-0.16729682556705883
2019-11-19,0.1351121578091427
2019-11-20,0.19531836208828968
2019-11-21,0.053314394326201636
2019-11-22,0.22663349124061438
2019-11-25,0.07412573943630285
2019-11-26,-0.1889673042467931
2019-11-27,-0.0033537854940088527
2019-11-28,-0.051737414126605395
2019-11-29,-0.46992044491700447
2019-12-02,-0.04274815505642358
2019-12-03,0.15566887430646237
2019-12-04,-0.17477483909299568
2019-12-05,0.1252912010504129
2019-12-06,0.21781171695378174
2019-12-09,-0.0013087039892040048
2019-12-10,-0.08111849243900315
2019-12-11,0.12036540504353571
2019-12-12,-0.17080214190195875
2019-12-13,0.013023872269071353
2019-12-16,0.23493955734469263
2019-12-17,0.18571807169175286
2019-12-18,0.005540916905015341
2019-12-19,0.08612216465542578
2019-12-20,0.032990738710768304
2019-12-23,-0.09471080564256755
2019-12-24,-0.26452725743808425
2019-12-25,0.005352292768804728
2019-12-26,0.051531677387973075
2019-12-27,-0.013802219929767982
2019-12-30,-0.0782994703414156
2019-12-31,0.05479934131438808
2020-01-02,0.11298118770321122
2020-01-03,-0.085915594718334
2020-01-06,0.10910620693325132
2020-01-07,-0.17685275235263295
2020-01-08,0.15195192081665196
2020-01-09,-0.25858691216585294
2020-01-10,0.12341482445738254
2020-01-13,-0.13115440290540362
2020-01-14,0.12865315531817414
2020-01-15,-0.20682051880042243
2020-01-16,0.10553057825412242
2020-01-17,-0.1027745899729657
2020-01-20,-0.0762760430032404
2020-01-21,0.11011026039898728
2020-01-22,0.44432707893759804
2020-01-23,0.4300442034090234
2020-02-03,0.0740910341194271
2020-02-04,0.17889595435867262
2020-02-05,-0.005167763053378946
2020-02-06,-0.29434651992375527
2020-02-07,-0.562248481327468
2020-02-10,-0.10426781906110846
2020-02-11,-0.23204230361857237
2020-02-12,-0.1065273450718198
2020-02-13,-0.2877589356575965
2020-02-14,0.14612767336357635
2020-02-17,0.22596840473542454
2020-02-18,0.15030199479415715
2020-02-19,-0.09417682562621588
2020-02-20,0.3852828425506224
2020-02-21,0.06659049385617194
2020-02-24,-0.22053556475249797
2020-02-25,0.26562182853394606
2020-02-26,0.2077625349208682
2020-02-27,-0.21326857750697248
2020-02-28,0.08039056376024598
2020-03-02,0.09886584325946651
2020-03-03,-0.3475579812424113
2020-03-04,-0.08628538389686337
2020-03-05,0.07938551866029656
2020-03-06,-0.33413471484260526
2020-03-09,-0.1019150071895111
2020-03-10,0.1511828318804573
2020-03-11,0.0011200660309096243
2020-03-12,0.0031504975547711495
2020-03-13,0.5280992133826689
2020-03-16,0.18736433143273237
2020-03-17,-0.08088814951540284
2020-03-18,0.09807436874079245
2020-03-19,0.035278573659699365
2020-03-20,-0.481885832114171
2020-03-23,-0.28622676368784616
2020-03-24,-0.09090096388884139
2020-03-25,-0.2902554974439576
2020-03-26,-0.2045598492013965
2020-03-27,0.16205531127555034
2020-03-30,0.09576683752964693
2020-03-31,-0.03316109508875696
2020-04-01,0.27803314359027165
2020-04-02,0.3398412859585688
2020-04-03,-0.07646816861036691
2020-04-07,-0.017618416362586153
2020-04-08,0.06661330744258173
2020-04-09,-0.23799896343541338
2020-04-10,-0.3394185290143041
2020-04-13,0.004832833053679209
2020-04-14,0.09106237181395395
2020-04-15,0.027641308242698382
2020-04-16,0.29061896219777944
2020-04-17,0.14704657066666657
2020-04-20,0.04989736964798282
2020-04-21,0.00032781916011059495
2020-04-22,0.1613813554333336
2020-04-23,-0.2036682167136487
2020-04-24,-0.027883440323463484
2020-04-27,0.053298065309858304
2020-04-28,0.08550474516981678
2020-04-29,-0.22545242692405698
2020-04-30,0.17723765487839005
2020-05-06,0.10630908099340375
2020-05-07,-0.07974326123969067
2020-05-08,-0.25788481352275616
2020-05-11,0.14795797629574903
2020-05-12,-0.21843263570835889
2020-05-13,-0.21035607566540418
2020-05-14,0.0037973055247579324
2020-05-15,0.10267336798647894
2020-05-18,-0.08752960670090332
2020-05-19,0.03336927239671755
2020-05-20,0.11822020047928282
2020-05-21,0.19682154563360377
2020-05-22,0.14443215043555363
2020-05-25,-0.014661318847543358
2020-05-26,0.15577831401863268
2020-05-27,0.031351084566168905
2020-05-28,-0.13249552714966917
2020-05-29,-0.135974729550295
2020-06-01,0.2660850076042642
2020-06-02,-0.11801909350132164
2020-06-03,-0.029261803123193902
2020-06-04,-0.1459697274025446
2020-06-05,-0.05313790929440619
2020-06-08,-0.40584179539066023
2020-06-09,0.039617647452816325
2020-06-10,-0.0251423469605086
2020-06-11,0.37464196512454245
2020-06-12,0.30097973189250665
2020-06-15,0.1818783207508485
2020-06-16,0.0038495686947084586
2020-06-17,0.06621282650494636
2020-06-18,-0.42742544452809916
2020-06-19,-0.32561405623265843
2020-06-22,-0.05604359238096689
2020-06-23,-0.007164313846181323
2020-06-24,-0.02436393763066677
2020-06-29,0.21869060704900295
2020-06-30,0.15528925174207134
2020-07-01,0.09938100398822283
2020-07-02,0.23950538762167034
2020-07-03,0.07723725162415088
2020-07-06,0.41211255305637967
2020-07-07,0.031378546751594086
2020-07-08,0.09920485313774471
2020-07-09,-0.19050545611435077
2020-07-10,-0.03715579260729371
2020-07-13,-0.5854720006414242
2020-07-14,0.01194410282105568
2020-07-15,-0.05100148882881399
2020-07-16,0.18279716635803128
2020-07-17,-0.014662837199269856
2020-07-20,0.11002708126092045
2020-07-21,-0.18787102929288702
2020-07-22,-0.11993344480961099
2020-07-23,-0.4307699938498648
2020-07-24,0.19602472443366564
2020-07-27,-0.025956934703494534
2020-07-28,0.11868799169254578
2020-07-29,0.0778445513699802
2020-07-30,0.0902047289230781
2020-07-31,-0.33642206848007994
2020-08-03,0.03617978899383458
2020-08-04,-0.04919158702428256
2020-08-05,-0.18454317474402132
2020-08-06,0.2250908782491865
2020-08-07,0.06764379552761618
2020-08-10,0.048430045615998375
2020-08-11,0.16945728861390802
2020-08-12,0.18466913125587686
2020-08-13,-0.24092658336665784
2020-08-14,0.03222304039432629
2020-08-17,-0.06081826670062042
2020-08-18,-0.3033820977929169
2020-08-19,-0.13088355088766876
2020-08-20,0.1646928960522444
2020-08-21,-0.056279300685454475
2020-08-24,-0.029165724669010646
2020-08-25,0.28645309204240443
2020-08-26,0.10915446139208256
2020-08-27,-0.05735874611704209
2020-08-28,0.17730810116051385
2020-08-31,0.04871920816286337
2020-09-01,-0.2181325210396769
2020-09-02,-0.06535505703401716
2020-09-03,0.008247985591598415
2020-09-04,-0.26640503656900427
2020-09-07,0.1752371030906952
2020-09-08,0.15966724789837156
2020-09-09,0.10691366309174469
2020-09-10,0.135374215462497
2020-09-11,0.15371260635633446
2020-09-14,-0.34812930826999167
2020-09-15,-0.1243465806425873
2020-09-16,-0.25859888907739015
2020-09-17,-0.231810427119755
2020-09-18,0.14343858893100825
2020-09-21,0.2076476401351324
2020-09-22,0.22256066560144305
2020-09-23,0.20975323725893122
2020-09-24,0.1346617180401271
2020-09-25,-0.25312312771917556
2020-09-28,-0.06366232408871582
2020-09-29,-0.24868909327171973
2020-09-30,0.14031870126945367
2020-10-09,-0.1362998911345935
2020-10-12,0.2549930433877588
2020-10-13,-0.007562330038596254
2020-10-14,-0.03340782122904834
2020-10-15,-0.3105296080066744
2020-10-16,0.13948246299496053
2020-10-19,-0.02496830792879423
2020-10-20,0.07496492327163996
2020-10-21,0.2905831968945737
2020-10-22,0.1873714138817302
2020-10-23,0.05472695794713375
2020-10-26,-0.21169102271550094
2020-10-27,-0.10936166226941829
2020-10-28,-0.21224986356124126
2020-10-29,0.04063763877669005
2020-10-30,-0.04527675714116517
2020-11-02,-0.008904185115441735
2020-11-03,0.14797909568403272
2020-11-04,0.030064990869053752
2020-11-05,-0.09138679816039144
2020-11-06,-0.1599085841819689
2020-11-09,0.19467901860905074
2020-11-10,-0.11650789084990058
2020-11-11,-0.0004893626092178568
2020-11-12,-0.08826575864878466
2020-11-13,0.03534554658880448
2020-11-16,-0.15550915924389927
2020-11-17,-0.041219157640268234
2020-11-18,-0.029889153624700078
2020-11-19,0.20839384336378353
2020-11-20,0.08182645672099342
2020-11-23,0.23006771800998743
2020-11-24,0.047386882946355444
2020-11-25,0.18070359628685426
2020-11-26,-0.17398433839769967
2020-11-27,0.038871315377336534
2020-11-30,-0.20756903285363434
2020-12-01,0.2232796900236812
2020-12-02,-0.2751177324119751
2020-12-03,0.12345512364270289
2020-12-04,-0.08182641545410001
2020-12-07,-0.025222276112157133
2020-12-08,-0.4005946318425506
2020-12-09,0.3108979854189273
2020-12-10,-0.06373487405363386
2020-12-11,0.2821977119608824
2020-12-14,0.0757989999748418
2020-12-15,0.21678591835781402
2020-12-16,-0.3038568910931211
2020-12-17,0.11101096666425231
2020-12-18,-0.4279253098743321
2020-12-21,0.12377565217632719
2020-12-22,0.16497495616575056
2020-12-23,0.2180729085099657
2020-12-24,-0.157540095963732
2020-12-25,0.20891802119234368
2020-12-28,-0.2215310149183325
2020-12-29,-0.26897438187643313
2020-12-30,-0.07162905464732228
2020-12-31,0.05240782969262545
2021-01-04,0.06749269793114798
2021-01-05,0.08765805180233371
2021-01-06,0.15903322915468532
2021-01-07,-0.03639302436637423
2021-01-08,0.061573522331537046
2021-01-11,-0.07495286315733918
2021-01-12,0.03303952787625261
2021-01-13,-0.12804906951080278
2021-01-14,0.03394466722975327
2021-01-15,-0.0996083174885378
2021-01-18,-0.06319103510615423
2021-01-19,-0.07328927855665548
2021-01-20,0.06971475349264754
2021-01-21,-0.012289739419321254
2021-01-22,-0.010925819818880737
2021-01-25,-0.0011734624638776794
2021-01-26,0.07519183446655861
2021-01-27,-0.0630133415737818
2021-01-28,-0.02498275404801714
2021-01-29,0.3473201170954497
2021-02-01,-0.03637357103300364
2021-02-02,-0.040176501135368976
2021-02-03,0.036539035244898536
2021-02-04,0.06394936530591398
2021-02-05,-0.44730440371611446
2021-02-08,0.22829632439800837
2021-02-09,0.09870906815248612
2021-02-10,0.10683679072128352
2021-02-18,0.015659098300819116
2021-02-19,0.1837430475447791
2021-02-22,-0.06684843811202508
2021-02-23,-0.1617689236819122
2021-02-24,-0.011941972225524997
2021-02-25,-0.07583584440379859
2021-02-26,-0.07016613548976304
2021-03-01,-0.22424967607566332
2021-03-02,0.15262837075855276
2021-03-03,-0.17489384777001832
2021-03-04,-0.05202227689892709
2021-03-05,0.045288543168162845
2021-03-08,0.46576211151056524
2021-03-09,0.036140950652689866
2021-03-10,0.1552795518999492
2021-03-11,0.17462628596267607
2021-03-12,-0.028423569144486207
2021-03-15,-0.4607821023380869
2021-03-16,-0.2537446468243656
2021-03-17,-0.09976704867577652
2021-03-18,-0.2424256429775388
2021-03-19,0.02147519041265222
2021-03-22,0.13332963608684886
2021-03-23,0.18937088885562664
2021-03-24,-0.009985505979087483
2021-03-25,0.12836888943529
2021-03-26,-0.025846744704033135
2021-03-29,-0.08113837215691141
2021-03-30,-0.1470397929588803
2021-03-31,0.03241996312096848
2021-04-01,0.011752663540034493
2021-04-02,-0.059151403115486265
2021-04-06,0.10120187609928108
2021-04-07,0.07190591141998086
2021-04-08,0.02366280998381807
2021-04-09,-0.1000637286891275
2021-04-12,0.29063963175284663
2021-04-13,-0.02808232668067776
2021-04-14,0.0433149543487525
2021-04-15,-0.006746104967713998
2021-04-16,0.216680221773716
2021-04-19,-0.1914913443531929
2021-04-20,-0.0032444928317192194
2021-04-21,-0.02970915880518686
2021-04-22,-0.06854271277643186
2021-04-23,-0.1889705229187177
2021-04-26,-0.021521910793102512
2021-04-27,0.05328335081601407
2021-04-28,0.074209902819798
2021-04-29,0.06334085646602702
2021-04-30,0.09732862896218664
2021-05-06,-0.013034137130355804
2021-05-07,0.014371069893973028
2021-05-10,-0.14287100206726586
2021-05-11,0.18362024182034892
2021-05-12,0.031121607953307946
2021-05-13,-0.04468103435970651
2021-05-14,0.04928888677690856
2021-05-17,0.12313281132132378
2021-05-18,-0.30721320970535737
2021-05-19,-0.18497674624311367
2021-05-20,0.09831265854074556
2021-05-21,-0.22749701304304923
2021-05-24,-0.027028734574193233
2021-05-25,0.31330735160952045
2021-05-26,0.07075620381967147
2021-05-27,-0.06550945964081833
2021-05-28,0.11823837492906038
2021-05-31,-0.08881711919867594
2021-06-01,-0.25320148450235
2021-06-02,0.17841599439561026
2021-06-03,0.07821669848036847
2021-06-04,0.13421190995830728
2021-06-07,0.05547723513410681
2021-06-08,0.11935341189455809
2021-06-09,-0.17388120600964127
2021-06-10,-0.0043131182378882
2021-06-11,-0.24546312187265945
2021-06-15,0.14761740675858945
2021-06-16,-0.0760797673712798
2021-06-17,0.08074502524165508
2021-06-18,-0.1259169213406961
2021-06-21,0.20009753900568794
2021-06-22,-0.25255353788509965
2021-06-23,0.02673832232985165
2021-06-24,-0.06034271624989557
2021-06-25,0.13385505277019857
2021-06-28,-0.16483769341871463
2021-06-29,0.20932519983404213
2021-06-30,-0.09453559680495048
2021-07-01,0.24208975785823914
2021-07-02,-0.10180375280321027
2021-07-05,0.10567896373303519
2021-07-06,-0.04228241142762736
2021-07-07,0.22541392453244052
2021-07-08,-0.35230724929809754
2021-07-09,0.16510352763393624
2021-07-12,0.07360352391967573
2021-07-13,-0.07188265521045858
2021-07-14,-0.20035321076368925
2021-07-15,0.22843692282054529
2021-07-16,-0.20110295843144893
2021-07-19,-0.15580977447833028
2021-07-20,-0.011164146310335542
2021-07-21,0.03689686747509806
2021-07-22,-0.17568303287718504
2021-07-23,0.09772782585923558
2021-07-26,0.4311933247756513
2021-07-27,0.2507335884410153
2021-07-28,0.2010097723752583
2021-07-29,0.13243283083395724
2021-07-30,-0.004907590853836729
2021-08-02,-0.4723707538472419
2021-08-03,-0.3820309606867992
2021-08-04,-0.3170231997791801
2021-08-05,-0.1024196496183464
2021-08-06,-0.07234466344473738
2021-08-09,0.031295350181647516
2021-08-10,0.1394474954674604
2021-08-11,0.09209295587975078
2021-08-12,0.18217075547194606
2021-08-13,0.12265823720455689
2021-08-16,0.048169192412546274
2021-08-17,0.3129903861457456
2021-08-18,0.08351727742536147
2021-08-19,-0.11585515175446053
2021-08-20,0.004570182152669265
2021-08-23,0.03033794820053237
2021-08-24,-0.4055675501541652
2021-08-25,-0.033975915611741854
2021-08-26,-0.08822428713483363
2021-08-27,-0.07469692591619505
2021-08-30,-0.014241358185539585
2021-08-31,0.08218158235373103
2021-09-01,0.1763136873198015
2021-09-02,0.2229329924800162
2021-09-03,0.06808328141694837
2021-09-06,0.028192179004778897
2021-09-07,0.24059822902472805
2021-09-08,-0.2911301998758954
2021-09-09,-0.19446053745711264
2021-09-10,-0.10711786243974208
2021-09-13,-0.027209615366431787
2021-09-14,-0.26010653462568106
2021-09-15,0.21596679033068555
2021-09-16,0.2533536006080258
2021-09-17,0.19006315011734506
2021-09-22,0.09104495947157268
2021-09-23,-0.03353086607783464
2021-09-24,-0.12093925720988434
2021-09-27,-0.12817865357041494
2021-09-28,-0.277562331840312
2021-09-29,-0.06823171727760452
2021-09-30,0.06458820203458106
2021-10-08,0.12858511855236215
2021-10-11,-0.3164114256036314
2021-10-12,0.3615740325805316
2021-10-13,-0.08532804694439564
2021-10-14,0.04881125304980294
2021-10-15,-0.2073033500352704
2021-10-18,0.2420193736659248
2021-10-19,-0.3866164150328151
2021-10-20,0.0581110102211089
2021-10-21,-0.004111251791510711
2021-10-22,0.09777744746889512
2021-10-25,0.010674809178442065
2021-10-26,0.1725617960212685
2021-10-27,0.012517376679597273
2021-10-28,-0.023761146457415568
2021-10-29,0.05490850506167855
2021-11-01,-0.026432335329808484
2021-11-02,0.17113168072376234
2021-11-03,-0.040085519148507325
2021-11-04,-0.04947677400977792
2021-11-05,-0.1030185593277789
2021-11-08,-0.016772818793603886
2021-11-09,-0.4273899521781491
2021-11-10,0.16414098724860743
2021-11-11,0.11995694003968442
2021-11-12,0.036983477759292664
2021-11-15,0.14724125553367276
2021-11-16,0.30398177723589864
2021-11-17,-0.23906621581450832
2021-11-18,-0.05372186345637298
2021-11-19,0.157775820128513
2021-11-22,-0.21513009152514612
2021-11-23,-0.14691100009972974
2021-11-24,0.07981907894736925
2021-11-25,-0.14493441994567283
2021-11-26,-0.3072146005614058
2021-11-29,0.1783713655449562
2021-11-30,0.1962143511096336
2021-12-01,0.10989730423619051
2021-12-02,0.2492975889805169
2021-12-03,0.1957477310662181
2021-12-06,-0.07348706957319198
2021-12-07,0.00045769563535665025
2021-12-08,-0.00860842863810117
2021-12-09,-0.130170768285501
2021-12-10,-0.07347361049987547
2021-12-13,-0.07190926460028851
2021-12-14,-0.30423423778290715
2021-12-15,-0.19299393697357337
2021-12-16,0.015732723928632338
2021-12-17,0.09534445066357623
2021-12-20,0.2590500733212587
2021-12-21,0.34053683369140453
2021-12-22,0.09952944482647172
2021-12-23,0.03880492677400464
2021-12-24,-0.0492530488806595
2021-12-27,-0.3170112326960456
2021-12-28,-0.20884698073225513
2021-12-29,0.01811546617307363
2021-12-30,-0.06311942061550993
2021-12-31,-0.04362208933917257
2022-01-04,0.2037529590174084
2022-01-05,0.3621813525782789
2022-01-06,0.089228373212513
2022-01-07,0.027347020131556002
2022-01-10,0.05560491230613741
2022-01-11,-0.05291619979027554
2022-01-12,-0.505491238809176
2022-01-13,0.005580479906200947
2022-01-14,0.019022002259396778
2022-01-17,0.05930604084531137
2022-01-18,-0.10109108788546325
2022-01-19,0.36974338712550714
2022-01-20,-0.08605527054436131
2022-01-21,-0.005392921366902215
2022-01-24,-0.09377911191795689
2022-01-25,0.48701164305499145
2022-01-26,-0.23765790773043866
2022-01-27,0.1505590100610941
2022-01-28,0.12818082986209625
2022-02-07,0.0016462231334116346
2022-02-08,-0.528609082429124
2022-02-09,0.16324049191672452
2022-02-10,-0.32626864940900313
2022-02-11,-0.2737532798333807
2022-02-14,0.08492669740324946
2022-02-15,-0.012384713591966523
2022-02-16,-0.22456385012133004
2022-02-17,0.2310690235859684
2022-02-18,0.11915834119234696
2022-02-21,-0.16857737328363345
2022-02-22,0.14117831079485715
2022-02-23,0.27819015521471724
2022-02-24,0.20787898489784673
2022-02-25,0.02277668010502576
2022-02-28,0.16976312912843255
2022-03-01,-0.043551001552518634
2022-03-02,-0.19869917732003045
2022-03-03,-0.47323997440158416
2022-03-04,-0.05205771908815867
2022-03-07,0.12211519165161581
2022-03-08,0.49343763325441875
2022-03-09,0.6245292108259667
2022-03-10,0.2291098340825462
2022-03-11,0.18803104139131557
2022-03-14,-0.17150868686868467
2022-03-15,-0.3525779348358129
2022-03-16,-0.6086266250272382
2022-03-17,0.022437508225484005
2022-03-18,-0.23615147107839796
2022-03-21,-0.053048824514426406
2022-03-22,-0.34823534415891116
2022-03-23,-0.27167467955274
2022-03-24,-0.1621236071462062
2022-03-25,0.08969924018484404
2022-03-28,0.10821323681099174
2022-03-29,0.18921178388259
2022-03-30,0.40353868221099876
2022-03-31,0.117994889848639
2022-04-01,-0.05962461039054631
2022-04-06,-0.19710225240876683
2022-04-07,0.19373718359065933
2022-04-08,-0.08411024998671453
2022-04-11,0.21545129072630392
2022-04-12,0.1943218747412323
2022-04-13,0.1160999459133766
2022-04-14,-0.20990846319004489
2022-04-15,-0.07075536568137102
2022-04-18,-0.255030651523201
2022-04-19,-0.3327370607538678
2022-04-20,0.1815248945500869
2022-04-21,0.2909771977419813
2022-04-22,0.16245510033073637
2022-04-25,0.26144563405840404
2022-04-26,0.395858136410806
2022-04-27,-0.07096131054834826
2022-04-28,-0.29693374389637334
2022-04-29,-0.020538648068054263
2022-05-05,-0.3882898011184168
2022-05-06,-0.347984213039511
2022-05-09,-0.306281724601315
2022-05-10,0.21698876220961638
2022-05-11,-0.1308336070322379
2022-05-12,0.1743075473865081
2022-05-13,0.12294830711604911
2022-05-16,0.23602672547295067
2022-05-17,-0.3505583353160758
2022-05-18,-0.11063957129760171
2022-05-19,0.051342203548088085
2022-05-20,0.08639994761655008
2022-05-23,-0.138418341490732
2022-05-24,0.4788231520019196
2022-05-25,0.2056635748407163
2022-05-26,0.0307006302168098
2022-05-27,-0.07075143338897527
2022-05-30,0.10971377694231083
2022-05-31,-0.33859028966920884
2022-06-01,-0.06766932489912136
2022-06-02,-0.19245704617883463
2022-06-06,0.08936639603284674
2022-06-07,-0.03573155950258469
2022-06-08,-0.02262568937676608
2022-06-09,0.1269588605964574
2022-06-10,0.20126496091777615
2022-06-13,-0.17677991025719897
2022-06-14,0.3612403107606506
2022-06-15,0.1468566624306793
2022-06-16,-0.14616241503531663
2022-06-17,-0.09049618157540584
2022-06-20,0.12296104147338799
2022-06-21,-0.48262371231431644
2022-06-22,-0.1075189203257775
2022-06-23,0.17695200659029525
2022-06-24,-0.12805010039473722
2022-06-27,-0.08328689314359913
2022-06-28,0.18935587234164974
2022-06-29,0.044908669339139756
2022-06-30,-0.2767008629553345
2022-07-01,0.06981445986221062
2022-07-04,0.17569723237787874
2022-07-05,-0.04214538415622335
2022-07-06,0.0291180739596048
2022-07-07,0.19815989012913757
2022-07-08,0.09141204797731659
2022-07-11,-0.16007478586734208
2022-07-12,-0.012727029599389768
2022-07-13,-0.14377186912599416
2022-07-14,-0.052481077610689764
2022-07-15,0.09853286821422597
2022-07-18,0.09183873169492483
2022-07-19,-0.05222521224144338
2022-07-20,0.13940741645295493
2022-07-21,-0.05599551138912911
2022-07-22,-0.09916865748638326
2022-07-25,-0.04586293797244366
2022-07-26,0.15765186597134676
2022-07-27,-0.037039682848275884
2022-07-28,0.08147259852139503
2022-07-29,-0.15864025056911096
2022-08-01,-0.07759544772793608
2022-08-02,0.08580494681127139
2022-08-03,0.21127977032450718
2022-08-04,0.02134021871976711
2022-08-05,0.17683301068609056
2022-08-08,0.031228837504678746
2022-08-09,-0.3782638648085688
2022-08-10,-0.3851782608615242
2022-08-11,-0.018573423659956973
2022-08-12,-0.26314962174049966
2022-08-15,0.07182459102771953
2022-08-16,0.2600002624966319
2022-08-17,0.24512082377663738
2022-08-18,-0.2020647249019515
2022-08-19,0.4186132184741511
2022-08-22,0.10153966592056497
2022-08-23,-0.11159334083939774
2022-08-24,0.24039771306388544
2022-08-25,0.25217894493192483
2022-08-26,-0.227213664516151
2022-08-29,-0.17293579827199462
2022-08-30,0.10059930255382106
2022-08-31,-0.41765283960388183
2022-09-01,-0.04662821334472943
2022-09-02,-0.04951611001890393
2022-09-05,-0.025318332461192625
2022-09-06,0.038065447814035626
2022-09-07,-0.059062730835100566
2022-09-08,-0.180526718032989
2022-09-09,0.10268098778379792
2022-09-13,0.053580406521586244
2022-09-14,-0.2000936644411354
2022-09-15,0.7393881974194543
2022-09-16,0.447571403923671
2022-09-19,-0.0021944098498756087
2022-09-20,0.03720383285389205
2022-09-21,0.22106342930743259
2022-09-22,-0.7557774422277647
2022-09-23,-0.3310259924802467
2022-09-26,0.04132843640983047
2022-09-27,0.03973917749155177
2022-09-28,-0.07592189698099144
2022-09-29,0.259417512590536
2022-09-30,-0.029782555170264367
2022-10-10,-0.04528645422780642
2022-10-11,-0.10530284619191416
2022-10-12,0.13680148728255154
2022-10-13,-0.110711963945776
2022-10-14,0.11717225796576633
2022-10-17,-0.1251355379417042
2022-10-18,0.03215155548331844
2022-10-19,-0.4184877397768997
2022-10-20,0.22072388864139897
2022-10-21,-0.16022964583594748
2022-10-24,0.43189973171973994
2022-10-25,0.11381291850849741
2022-10-26,0.3816754424752502
2022-10-27,-0.27966265990350747
2022-10-28,0.27863183699961724
2022-10-31,-0.47350280949302814
2022-11-01,-0.060700070270298806
2022-11-02,-0.21240062696762085
2022-11-03,0.08761673937331418
2022-11-04,-0.21014117276460037
2022-11-07,0.05609540615421703
2022-11-08,-0.2828925314960369
2022-11-09,0.03959206492091724
2022-11-10,0.028215992083745953
2022-11-11,-0.052009139144518476
2022-11-14,0.13043505684683465
2022-11-15,0.42364699625830926
2022-11-16,0.037496582078627515
2022-11-17,0.015344907929790902
2022-11-18,-0.03611424060262047
2022-11-21,-0.09302825290133267
2022-11-22,-0.23811235077856496
2022-11-23,0.10302084989274467
2022-11-24,-0.03952704384214015
2022-11-25,0.10711763523301046
2022-11-28,0.10271107491044777
2022-11-29,0.08071918908305871
2022-11-30,-0.18630461182663005
2022-12-01,0.019214888466104096
2022-12-02,0.020867045475151072
2022-12-05,-0.205203650123488
2022-12-06,-0.10803926376562588
2022-12-07,0.12412016179355359
2022-12-08,-0.05630712289791795
2022-12-09,0.049474338573156786
2022-12-12,0.18153521157120586
2022-12-13,-0.012289401524691268
2022-12-14,-0.033069019105188696
2022-12-15,0.042683554773819084
2022-12-16,-0.10222401306493803
2022-12-19,0.41983410001709187
2022-12-20,0.1556641751302726
2022-12-21,0.04528835213428434
2022-12-22,0.19925211699081916
2022-12-23,0.10320018278261461
2022-12-26,-0.6256693402916884
2022-12-27,-0.08819574631731364
2022-12-28,-0.1448390712753943
2022-12-29,-0.32224567389394543
2022-12-30,-0.16785730486314956
2023-01-03,0.31566205701471617
2023-01-04,-0.015004126679252869
2023-01-05,0.21823011142782947
2023-01-06,0.10027033509883221
2023-01-09,0.14126785285552518
2023-01-10,-0.37854946826231795
2023-01-11,0.10336742258972248
2023-01-12,-0.18904798761610309
2023-01-13,0.02824887998754659
2023-01-16,0.18284257137441806
2023-01-17,0.19234764829297787
2023-01-18,-0.1502289876583684
2023-01-19,0.18066462565926972
2023-01-20,-0.05781773713683106
2023-01-30,-0.2407000603166186
2023-01-31,0.12680225004822462
2023-02-01,0.1995730955356425
2023-02-02,-0.1750729004806079
2023-02-03,0.21299444743703805
2023-02-06,-0.05992685767017125
2023-02-07,-0.05089577215222317
2023-02-08,-0.07719153077186505
2023-02-09,0.2298826609772655
2023-02-10,-0.14853821301367925
2023-02-13,0.09730963799387525
2023-02-14,-0.08302602715634183
2023-02-15,-0.11361814177545798
2023-02-16,0.0008998046687336281
2023-02-17,0.002769789659518771
2023-02-20,0.14918974841370447
2023-02-21,0.08781808904531054
2023-02-22,0.07927129492860677
2023-02-23,-0.3709414557611924
2023-02-24,0.0044951500989648605
2023-02-27,-0.28801249985610466
2023-02-28,0.002816716682643876
2023-03-01,0.05525751072961322
2023-03-02,0.12909239002683748
2023-03-03,-0.07309445904629029
2023-03-06,0.10427952731193352
2023-03-07,0.014380687637558946
2023-03-08,-0.1328936636844256
2023-03-09,0.11436471886632668
2023-03-10,0.08694193695551908
2023-03-13,0.06109564256272534
2023-03-14,-0.0262109569790046
2023-03-15,0.07370356868515307
2023-03-16,0.03821029853157222
2023-03-17,0.017992481694779086
2023-03-20,-0.059361728017442314
2023-03-21,-0.16440146419727425
2023-03-22,-0.045256488307146236
2023-03-23,-0.1744425979851218
2023-03-24,-0.2308346576691426
2023-03-27,0.018232733246046205
2023-03-28,0.08448680754775015
2023-03-29,0.17746622613485383
2023-03-30,0.21537750681816642
2023-03-31,0.26745938632927746
2023-04-03,0.09355752727131095
2023-04-04,0.009411544493099958
2023-04-06,-0.20046966692703466
2023-04-07,-0.17421167804656343
2023-04-10,-0.02388043667083742
2023-04-11,-0.21970244946174525
2023-04-12,0.02769865515704123
2023-04-13,0.08420968075096487
2023-04-14,0.016413558112311183
2023-04-17,-0.12413990669621487
2023-04-18,0.14696987146601181
2023-04-19,0.11432629935455639
2023-04-20,-0.05081027083025559
2023-04-21,0.5147890216049299
2023-04-24,0.1446331766553144
2023-04-25,0.37070076775222444
2023-04-26,-0.0728081791950752
2023-04-27,0.13343910108035315
2023-04-28,-0.5926529880667547
2023-05-04,-0.15614362264215104
2023-05-05,-0.5594376265028581
2023-05-08,-0.027006460929371423
2023-05-09,-0.05977150142362293
2023-05-10,0.05909267215363202
2023-05-11,0.12807401916702302
2023-05-12,0.19433370312802942
2023-05-15,0.13770974196141636
2023-05-16,-0.09561098592629311
2023-05-17,0.032835734986799946
2023-05-18,-0.014932643506016703
2023-05-19,-0.06478295901464229
2023-05-22,-0.28582476002303736
2023-05-23,0.09413283502344935
2023-05-24,0.08979683075853365
2023-05-25,0.14316543285944816
2023-05-26,0.10651343011431952
2023-05-29,0.1528298812187553
2023-05-30,0.035027140593605864
2023-05-31,-0.08052632689892544
2023-06-01,-0.24627456145213522
2023-06-02,-0.17765584889567346
2023-06-05,-0.10499126298590285
2023-06-06,-0.017125960250457303
2023-06-07,-0.03261668225791851
2023-06-08,0.04694847129461999
2023-06-09,0.1638201631958362
2023-06-12,0.16674007805934193
2023-06-13,-0.27999707721826106
2023-06-14,0.01995667903772485
2023-06-15,-0.023086673627669505
2023-06-16,-0.013494223505708208
2023-06-19,-0.15036588558361208
2023-06-20,0.22241266524809025
2023-06-21,0.3844702857533584
2023-06-26,0.14682117019176286
2023-06-27,-0.06596051300921715
2023-06-28,0.2771083578329207
2023-06-29,0.017232159953252165
2023-06-30,-0.4096030453212044
2023-07-03,-0.17903801654182888
2023-07-04,-0.050011483973738786
2023-07-05,-0.36375594530320887
2023-07-06,0.10860359854861026
2023-07-07,-0.07642693399892705
2023-07-10,0.06395924582701998
2023-07-11,0.2315152908507253
2023-07-12,0.27324826989620155
2023-07-13,-0.13521303258145376
2023-07-14,0.08915924503006945
2023-07-17,-0.02005892126842489
2023-07-18,-0.170954703572586
2023-07-19,-0.17444830558499094
2023-07-20,0.11776463763974719
2023-07-21,0.11870635059204679
2023-07-24,0.09300185600262995
2023-07-25,0.009600201641916665
2023-07-26,0.005599573780319236
2023-07-27,-0.19410853633881253
2023-07-28,0.1741657506211331
2023-07-31,0.0245755403952881
2023-08-01,-0.006010460974696905
2023-08-02,0.14494688918376464
2023-08-03,0.04511226259214129
2023-08-04,-0.39906954030731023
2023-08-07,-0.23238568436074755
2023-08-08,0.04398583354445321
2023-08-09,-0.1254394766026387
2023-08-10,0.030463871625292998
2023-08-11,0.4081935935382268
2023-08-14,0.2966293119851775
2023-08-15,0.14860397946085027
2023-08-16,0.05005879138519384
2023-08-17,0.1631300380901847
2023-08-18,-0.2800239677959826
2023-08-21,-0.07275350970531703
2023-08-22,-0.16251554082055528
2023-08-23,0.10124218357816091
2023-08-24,-0.18879220588530188
2023-08-25,-0.014915508507476548
2023-08-28,0.24080435569901482
2023-08-29,0.09869454678845117
2023-08-30,-0.15367277974741264
2023-08-31,0.01564643120782
2023-09-01,-0.038149073968868685
2023-09-04,-0.625305802426998
2023-09-05,-0.38057115164374244
2023-09-06,0.05220549665663463
2023-09-07,0.09038310529364742
2023-09-08,0.05358585405259596
2023-09-11,0.42344539046781793
2023-09-12,0.21996678502057646
2023-09-13,0.057188478960765246
2023-09-14,-0.1906808788398272
2023-09-15,0.11445732205773344
2023-09-18,-0.1836060754996131
2023-09-19,0.11087687705251517
2023-09-20,-0.22085808236589236
2023-09-21,0.22633132572616996
2023-09-22,0.028105868353325056
2023-09-25,-0.01773746079346196
2023-09-26,-0.12612564028189496
2023-09-27,0.22812340530434352
2023-09-28,-0.2071925697453081
2023-10-09,-0.28416013247474137
2023-10-10,0.1526054527403739
2023-10-11,0.24965682712160941
2023-10-12,-0.14580566622399413
2023-10-13,0.09035290477212811
2023-10-16,0.23955011226408263
2023-10-17,-0.16541413274053862
2023-10-18,-0.19133151252252978
2023-10-19,0.3642139994698864
2023-10-20,0.15230841354935024
2023-10-23,0.17647747407502803
2023-10-24,0.20834172769241877
2023-10-25,0.0010118183191416708
2023-10-26,-0.3569647468023067
2023-10-27,0.03126638933260334
2023-10-30,-0.4210791966538786
2023-10-31,-0.18191467748076137
2023-11-01,-0.006068336948891447
2023-11-02,0.06978439339544999
2023-11-03,-0.33595225749131613
2023-11-06,0.13202464609965628
2023-11-07,0.09932554285362291
2023-11-08,0.024952916398725176
2023-11-09,-0.026047280108164074
2023-11-10,0.03353655431627084
2023-11-13,-0.023682706467161016
2023-11-14,-0.05595586953817973
2023-11-15,0.0036213740136064815
2023-11-16,-0.040493407648363726
2023-11-17,0.16413954635108322
2023-11-20,0.21285194161799414
2023-11-21,0.12169864936322981
2023-11-22,0.04860001602405496
2023-11-23,0.20586826347304454
2023-11-24,0.03851859569738893
2023-11-27,-0.22135808181191036
2023-11-28,-0.06116787621785767
2023-11-29,-0.13427881857019852
2023-11-30,-0.2436752605595135
2023-12-01,-0.05371157030742958
2023-12-04,0.020603148015793327
2023-12-05,-0.019136997710452384
2023-12-06,0.18753351262285628
2023-12-07,0.17295407941244115
2023-12-08,-0.07339358597930815
2023-12-11,0.36441398438020134
2023-12-12,-0.12157653961765423
2023-12-13,-0.19699283016156854
2023-12-14,-0.07461764454688041
2023-12-15,0.2032443642699367
2023-12-18,-0.5149168496199334
2023-12-19,0.20717784968016384
2023-12-20,0.15988009737683853
2023-12-21,0.06777638813151438
2023-12-22,-0.18971724999355682
2023-12-25,0.1896895548991163
2023-12-26,-0.07251691417198841
2023-12-27,-0.10467184572130486
2023-12-28,0.0035573997790655787
2023-12-29,0.01676882782622555
2024-01-02,-0.035448828726421806
2024-01-03,-0.05314954014361489
2024-01-04,0.031454018205592835
2024-01-05,-0.14721859090860934
2024-01-08,0.2633111887125457
2024-01-09,0.12448680671262215
2024-01-10,0.16620678618709953
2024-01-11,0.08820595704635995
2024-01-12,0.02320195794749006
2024-01-15,-0.3595960542655702
2024-01-16,-0.04979083900140594
2024-01-17,-0.041252017632924645
2024-01-18,0.026592477367733527
2024-01-19,0.11092416338863986
2024-01-22,0.6274942744380674
2024-01-23,0.1318457308289973
2024-01-24,-0.0429997551360576
2024-01-25,-0.08196732199258297
2024-01-26,-0.0635866215429912
2024-01-29,-0.7152120509756099
2024-01-30,-0.2372124479277835
2024-01-31,-0.12385924618524496
2024-02-01,-0.0957606499568549
2024-02-02,0.43997987365719593
2024-02-05,0.45047186467646627
2024-02-06,0.37737167715821396
2024-02-07,0.1865715676298758
2024-02-08,0.14079349079240774
2024-02-19,-0.5335405021284232
2024-02-20,-0.4057552560342659
2024-02-21,-0.5462957468276075
2024-02-22,-0.34070139353466933
2024-02-23,-0.32904091103915045
2024-02-26,-0.02399237211510724
2024-02-27,0.3105482439913526
2024-02-28,0.28116288253085636
2024-02-29,0.41235851984288524
2024-03-01,0.21577213986826319
2024-03-04,0.10678017584279695
2024-03-05,-0.27203974484732113
2024-03-06,-0.17625753897989707
2024-03-07,-0.3355705648317098
2024-03-08,0.09148491916215215
2024-03-11,0.09141247325419062
2024-03-12,0.19338155764020035
2024-03-13,0.06401320579698673
2024-03-14,0.12791544802805382
2024-03-15,-0.026648779744317487
2024-03-18,-0.13376100059433288
2024-03-19,-0.14052285736760559
2024-03-20,0.01826903419955267
2024-03-21,-0.05647013423099169
2024-03-22,-0.0372068348391351
2024-03-25,0.12074129878791082
2024-03-26,0.11979043772655217
2024-03-27,0.23264027383321406
2024-03-28,0.1887944836951515
2024-03-29,-0.037722599508997305
2024-04-01,-0.08112327056426681
2024-04-02,-0.07183499720433267
2024-04-03,-0.35373717050368336
2024-04-08,-0.16324689922253652
2024-04-09,-0.052492340720537295
2024-04-10,0.03958083930392267
2024-04-11,0.21044496277298355
2024-04-12,0.28302385070661146
2024-04-15,0.2102714153871936
2024-04-16,0.32627210643425797
2024-04-17,0.015562607385156801
2024-04-18,-0.1784695582206893
2024-04-19,-0.09331830384696346
2024-04-22,-0.25857431532241276
2024-04-23,-0.33990899877835135
2024-04-24,-0.08949591460117222
2024-04-25,-0.09928854630361714
2024-04-26,0.07871646307297185
2024-04-29,0.13548926693751617
2024-04-30,0.0037255228973375604
2024-05-06,-0.015978364964754466
2024-05-07,0.021968684873621844
2024-05-08,-0.23972980470171326
2024-05-09,-0.003269024809414569
2024-05-10,0.22565583877042852
2024-05-13,0.13058824448346942
2024-05-14,0.1461819458370111
2024-05-15,0.14379650800534846
2024-05-16,-0.10812118230665592
2024-05-17,-0.11538610895072747
2024-05-20,-0.09325389538715495
2024-05-21,-0.10564379674967586
2024-05-22,-0.0689493601925938
2024-05-23,0.14713950651633964
2024-05-24,0.006340439109366105
2024-05-27,0.10731241619679852
2024-05-28,0.03851719886720183
2024-05-29,0.15553446384433084
2024-05-30,-0.1717760732206128
2024-05-31,-0.11603138137434252
2024-06-03,-0.04188640472942601
2024-06-04,0.13999600697208991
2024-06-05,-0.07240777666998821
2024-06-06,0.1967722802973646
2024-06-07,0.1903247350794559
2024-06-11,-0.06397102770002971
2024-06-12,-0.2908572127027275
2024-06-13,-0.03682347064700034
2024-06-14,-0.13057090585331488
2024-06-17,-0.25909873390663835
2024-06-18,-0.08611161754549312
2024-06-19,0.2934849161098116
2024-06-20,0.1550339550983436
2024-06-21,-0.04905307735951308
2024-06-24,0.3772359366407888
2024-06-25,0.2652516314533983
2024-06-26,-0.06512268134063057
2024-06-27,-0.14501744358992574
2024-06-28,0.17159952386733018
2024-07-01,-0.2004586560841334
2024-07-02,-0.20232825858806408
2024-07-03,-0.20579127399181812
2024-07-04,0.07503642492199686
2024-07-05,-0.10317711280497899
2024-07-08,6.709270536502197e-06
2024-07-09,0.24280919000344095
2024-07-10,0.1181034763821992
2024-07-11,-0.11179776721325374
2024-07-12,-0.0759873515745994
2024-07-15,-0.1289021867439627
2024-07-16,-0.3987461039570424
2024-07-17,0.0066850176956305945
2024-07-18,0.08797211701012445
2024-07-19,0.20587791144652753
2024-07-22,0.18729966424507277
2024-07-23,0.4839888082333722
2024-07-24,0.07061787678965152
2024-07-25,-0.04923658980878814
2024-07-26,-0.09936271951144991
2024-07-29,-0.10257220159016935
2024-07-30,-0.46205657857117144
2024-07-31,0.31922169540286505
2024-08-01,0.08994193730359906
2024-08-02,0.033906361409598886
2024-08-05,0.26392595505558214
2024-08-06,0.22348260772313863
2024-08-07,-0.6011244994597089
2024-08-08,-0.10540246486182911
2024-08-09,-0.04269357237437667
2024-08-12,-0.44250943295976686
2024-08-13,-0.11355018035823053
2024-08-14,0.21328492726719714
2024-08-15,0.07485652827492839
2024-08-16,-0.14523016667834082
2024-08-19,0.2987280312657308
2024-08-20,0.2285099101011456
2024-08-21,-0.11140325497287673
2024-08-22,-0.1302410407611151
2024-08-23,0.11933500584525789
2024-08-26,-0.18937528267391665
2024-08-27,-0.37500763520960256
2024-08-28,0.20590907860016874
2024-08-29,0.20061622362755438
2024-08-30,0.470861426179744
2024-09-02,0.25716418215212017
2024-09-03,0.29031743020645695
2024-09-04,-0.03102732692059157
2024-09-05,-0.21338225962201493
2024-09-06,-0.5821848633756712
2024-09-09,-0.23304886275661002
2024-09-10,0.03589441662975014
2024-09-11,-0.12287467029512825
2024-09-12,0.1738631863186315
2024-09-13,0.050260191486599076
2024-09-18,0.14596482000935476
2024-09-19,-0.003955875722000388
2024-09-20,0.04053801265220561
2024-09-23,-0.07718228208076172
2024-09-24,0.41852374685365373
2024-09-25,0.0072399629639188015
2024-09-26,0.1080781466954843
2024-09-27,0.4765861944090248
2024-09-30,0.33207034164988547
2024-10-08,-0.06973840382255247
2024-10-09,0.08653929995479587
2024-10-10,-0.20019915005673167
2024-10-11,-0.5171589037215779
2024-10-14,-0.4355881232960627
2024-10-15,-0.47771119172621357
2024-10-16,-0.3354418702651849
2024-10-17,-0.11092304899410967
2024-10-18,0.2293116684521299
2024-10-21,0.05412595723177424
2024-10-22,0.1238861453922293
2024-10-23,0.16234154498370978
2024-10-24,0.03345284084945792
2024-10-25,-0.5163743757986385
2024-10-28,-0.04770796835543052
2024-10-29,0.10057155321986841
2024-10-30,-0.026830840269903584
2024-10-31,0.19996782047234368
2024-11-01,0.3334513046568727
2024-11-04,0.0941654773527339
2024-11-05,0.17182302053870635
2024-11-06,0.09357812467138896
2024-11-07,-0.07164140902550041
2024-11-08,0.047358745052547814
2024-11-11,0.060660966077396704
2024-11-12,-0.2610907347246015
2024-11-13,-0.09975070082857193
2024-11-14,-0.10049691481238718
2024-11-15,-0.015709717677959662
2024-11-18,-0.0025594949379379728
2024-11-19,0.054432075444895034
2024-11-20,0.06132324860941816
2024-11-21,-0.043172975373097625
2024-11-22,0.07822871883942423
2024-11-25,-0.14015932478236381
2024-11-26,-0.05264277073703168
2024-11-27,0.161800060239314
2024-11-28,0.12778158056119102
2024-11-29,-0.15642011737050973
2024-12-02,0.11033569583666528
2024-12-03,0.06558878839903926
2024-12-04,-0.3355407429530795
2024-12-05,-0.06212574905776795
2024-12-06,0.01897726732827784
2024-12-09,-0.05822287294549589
2024-12-10,0.2163929097182572
2024-12-11,0.12634117595138444
2024-12-12,0.05222527122852368
2024-12-13,-0.08423812621049627
2024-12-16,0.05265198053241256
2024-12-17,-0.40122346761860106
2024-12-18,0.06079719645794762
2024-12-19,-0.0017426013747050863
2024-12-20,0.09558456747719635
2024-12-23,-0.008172480696330649
2024-12-24,0.1772076060530457
2024-12-25,0.03790584076508263
2024-12-26,-0.11070807926686012
2024-12-27,0.1157085889295334
2024-12-30,-0.10669263637639599
2024-12-31,0.33196518098899425
