date,FCT_Demark_Atr_Dfive
2017-12-22,
2017-12-25,
2017-12-26,
2017-12-27,
2017-12-28,
2017-12-29,
2018-01-02,
2018-01-03,
2018-01-04,
2018-01-05,0.0
2018-01-08,0.0
2018-01-09,0.6199095022624435
2018-01-10,0.7389162561576355
2018-01-11,0.8115384615384615
2018-01-12,0.9233576642335766
2018-01-15,1.0
2018-01-16,0.710382513661202
2018-01-17,0.7464114832535884
2018-01-18,0.4634146341463415
2018-01-19,0.3045977011494253
2018-01-22,0.2621951219512196
2018-01-23,0.2756410256410258
2018-01-24,0.025157232704402427
2018-01-25,0.057692307692307515
2018-01-26,0.05263157894736826
2018-01-29,0.4905660377358491
2018-01-30,0.619047619047619
2018-01-31,0.8658536585365852
2018-02-01,0.8894472361809044
2018-02-02,0.9957264957264956
2018-02-05,0.6121495327102805
2018-02-06,0.6746031746031748
2018-02-07,0.8251599147121536
2018-02-08,0.8583765112262522
2018-02-09,0.853309481216458
2018-02-12,1.0
2018-02-13,1.0
2018-02-14,0.8325242718446602
2018-02-22,0.56
2018-02-23,0.7240143369175627
2018-02-26,0.5821917808219178
2018-02-27,0.6844827586206895
2018-02-28,0.5745296671490593
2018-03-01,0.6497545008183305
2018-03-02,0.27818181818181814
2018-03-05,0.25757575757575757
2018-03-06,0.06567796610169481
2018-03-07,0.10921501706484653
2018-03-08,0.10355987055016189
2018-03-09,0.17486338797814213
2018-03-12,0.7491961414790995
2018-03-13,0.4307036247334755
2018-03-14,0.4170124481327801
2018-03-15,0.4313304721030044
2018-03-16,0.5047619047619049
2018-03-19,0.026066350710900348
2018-03-20,0.04365079365079345
2018-03-21,0.24834437086092712
2018-03-22,0.4173228346456691
2018-03-23,0.5033557046979865
2018-03-26,0.9246031746031744
2018-03-27,1.0
2018-03-28,0.8745519713261648
2018-03-29,0.6611570247933888
2018-03-30,0.30855018587360594
2018-04-02,0.47605633802816916
2018-04-03,0.2625698324022347
2018-04-04,0.5053995680345572
2018-04-09,0.5584725536992838
2018-04-10,0.7155963302752292
2018-04-11,0.4361370716510902
2018-04-12,0.6249263821492266
2018-04-13,0.15227123107307486
2018-04-16,0.12672207751888462
2018-04-17,0.14210209041371755
2018-04-18,0.2126039051653452
2018-04-19,0.018260425560413393
2018-04-20,0.0213733203352749
2018-04-23,0.73927761102696
2018-04-24,0.6849704261665246
2018-04-25,0.6537102473498256
2018-04-26,0.8336380255941497
2018-04-27,0.9372056514913657
2018-05-02,0.7643784786641908
2018-05-03,0.8018348623853192
2018-05-04,0.8739130434782592
2018-05-07,0.49039881831609955
2018-05-08,0.3806104129263903
2018-05-09,0.40075614366729684
2018-05-10,0.37227722772277316
2018-05-11,0.045548654244306284
2018-05-14,0.5354691075514859
2018-05-15,0.6709886547811991
2018-05-16,0.8146718146718135
2018-05-17,0.8535096642929799
2018-05-18,1.0
2018-05-21,0.9383647798742164
2018-05-22,0.7023195876288665
2018-05-23,0.6839945280437759
2018-05-24,0.46730462519936306
2018-05-25,0.3107142857142853
2018-05-28,0.31294964028776767
2018-05-29,0.4360902255639094
2018-05-30,0.0
2018-05-31,0.11610486891385619
2018-06-01,0.1180952380952367
2018-06-04,0.11676082862523383
2018-06-05,0.30078740157480366
2018-06-06,0.5441595441595445
2018-06-07,0.2972350230414754
2018-06-08,0.6219336219336226
2018-06-11,0.674884437596305
2018-06-12,0.5988593155893565
2018-06-13,0.820766378244745
2018-06-14,1.0
2018-06-15,1.0
2018-06-19,1.0
2018-06-20,0.9899569583931155
2018-06-21,0.9800000000000041
2018-06-22,0.9855072463768146
2018-06-25,0.8355387523629502
2018-06-26,0.49882352941175706
2018-06-27,0.36054421768706596
2018-06-28,0.24911032028469718
2018-06-29,0.0
2018-07-02,0.0
2018-07-03,0.0
2018-07-04,0.0
2018-07-05,0.02955665024631769
2018-07-06,0.03108808290156757
2018-07-09,0.024590163934437047
2018-07-10,0.015584415584422341
2018-07-11,0.022922636103155054
2018-07-12,0.005102040816322692
2018-07-13,0.004750593824224434
2018-07-16,0.005167958656326836
2018-07-17,0.5922671353251245
2018-07-18,0.5352559668132901
2018-07-19,0.7142660566322133
2018-07-20,0.8175937802661155
2018-07-23,0.9195480069196081
2018-07-24,0.49075436925075433
2018-07-25,0.6170200500680663
2018-07-26,0.2582490941559458
2018-07-27,0.23715881605871234
2018-07-30,0.17716638795470835
2018-07-31,0.42333333333333895
2018-08-01,0.1989342806394306
2018-08-02,0.5602409638554143
2018-08-03,0.7478632478632452
2018-08-06,0.8650385604113076
2018-08-07,0.8744019138755948
2018-08-08,1.0
2018-08-09,1.0
2018-08-10,0.8780773739742083
2018-08-13,0.5065398335315109
2018-08-14,0.3176178660049644
2018-08-15,0.0769230769230795
2018-08-16,0.1530944625407166
2018-08-17,0.4222222222222226
2018-08-20,0.6758436944937832
2018-08-21,0.771371769383698
2018-08-22,1.0
2018-08-23,1.0
2018-08-24,0.6734892787524331
2018-08-27,0.49823736780258243
2018-08-28,0.419487179487177
2018-08-29,0.26535341830822673
2018-08-30,0.0
2018-08-31,0.06686930091186241
2018-09-03,0.072607260726081
2018-09-04,0.30427631578948
2018-09-05,0.37719298245614596
2018-09-06,0.5748663101604302
2018-09-07,0.4672131147540946
2018-09-10,0.3622881355932249
2018-09-11,0.05736137667304247
2018-09-12,0.06451612903225601
2018-09-13,0.19222462203023122
2018-09-14,0.1783567134268478
2018-09-17,0.3669064748201359
2018-09-18,0.7692307692307645
2018-09-19,0.8779661016949133
2018-09-20,0.6931137724550902
2018-09-21,0.7892234548335983
2018-09-25,0.8608786610878667
2018-09-26,0.7854855923159038
2018-09-27,0.5202453987730054
2018-09-28,0.7234726688102894
2018-10-08,0.7130144605116816
2018-10-09,0.28378378378378744
2018-10-10,0.42158859470468507
2018-10-11,0.38227146814404506
2018-10-12,0.1789242590559833
2018-10-15,0.3650254668930354
2018-10-16,0.6197327852004059
2018-10-17,0.49494949494949136
2018-10-18,0.7763713080168746
2018-10-19,0.8837209302325609
2018-10-22,0.49780380673499475
2018-10-23,0.23259052924791598
2018-10-24,0.2485119047619091
2018-10-25,0.08510638297873167
2018-10-26,0.2140992167101807
2018-10-29,0.2981818181818171
2018-10-30,0.6236786469344621
2018-10-31,0.550373134328364
2018-11-01,0.7362637362637431
2018-11-02,0.3347398030942375
2018-11-05,0.37719298245614447
2018-11-06,0.21635434412266288
2018-11-07,0.27976190476190427
2018-11-08,0.07999999999999342
2018-11-09,0.2633838428398761
2018-11-12,0.0944179258429961
2018-11-13,0.058726391351145074
2018-11-14,0.23912232702891992
2018-11-15,0.18976609556967558
2018-11-16,0.3229403593446408
2018-11-19,0.44218438137607324
2018-11-20,0.5555646642672786
2018-11-21,0.6403684082969469
2018-11-22,0.9035874439461811
2018-11-23,0.6937119675456349
2018-11-26,0.759554140127385
2018-11-27,0.8689320388349526
2018-11-28,0.6425287356321878
2018-11-29,0.6920792079207965
2018-11-30,0.7896373056994856
2018-12-03,0.8027210884353784
2018-12-04,0.727385377943007
2018-12-05,0.9755043227665754
2018-12-06,0.5453333333333377
2018-12-07,0.5851581508515852
2018-12-10,0.2096924510717618
2018-12-11,0.18734388009991595
2018-12-12,0.10748407643312011
2018-12-13,0.17323651452281827
2018-12-14,0.03004694835680535
2018-12-17,0.20182094081941648
2018-12-18,0.20151515151514593
2018-12-19,0.5588914549653557
2018-12-20,0.4798301486199582
2018-12-21,0.737874097007228
2018-12-24,0.6303901437371714
2018-12-25,0.8036697247706466
2018-12-26,0.5162241887905661
2018-12-27,0.6304138594802708
2018-12-28,0.4148148148148123
2019-01-02,0.6113043478260844
2019-01-03,0.4752155172413744
2019-01-04,0.6962209302325524
2019-01-07,0.600688468158349
2019-01-08,0.7301255230125601
2019-01-09,0.10354223433242722
2019-01-10,0.08189655172413976
2019-01-11,0.0
2019-01-14,0.03679653679653805
2019-01-15,0.042394014962594734
2019-01-16,0.05821917808219461
2019-01-17,0.07692307692307958
2019-01-18,0.09189189189189348
2019-01-21,0.050847457627119015
2019-01-22,0.3179916317991582
2019-01-23,0.4175824175823981
2019-01-24,0.5314685314685101
2019-01-25,0.7188940092165796
2019-01-28,0.3858267716535368
2019-01-29,0.25477707006368866
2019-01-30,0.2816901408450664
2019-01-31,0.39590443686006366
2019-02-01,0.09729729729729504
2019-02-11,0.6461538461538455
2019-02-12,0.5148861646234684
2019-02-13,0.5734374999999992
2019-02-14,0.5262321144674086
2019-02-15,0.7374301675977686
2019-02-18,0.3247058823529442
2019-02-19,0.5014577259475217
2019-02-20,0.3018292682926862
2019-02-21,0.40697674418605445
2019-02-22,0.34824281150159725
2019-02-25,0.42578124999999734
2019-02-26,0.3164556962025375
2019-02-27,0.7070422535211306
2019-02-28,0.6441717791411025
2019-03-01,0.44332493702771086
2019-03-04,0.6571428571428641
2019-03-05,0.7376681614349765
2019-03-06,0.4513274336283101
2019-03-07,0.39947780678850653
2019-03-08,0.6234939759036087
2019-03-11,0.49999999999999223
2019-03-12,0.1888111888111938
2019-03-13,0.14876033057851837
2019-03-14,0.4535637149028189
2019-03-15,0.3482142857142947
2019-03-18,0.3436123348017689
2019-03-19,0.46448087431694146
2019-03-20,0.6854838709677299
2019-03-21,0.055555555555543146
2019-03-22,0.13852813852811705
2019-03-25,0.09999999999998549
2019-03-26,0.05325443786981761
2019-03-27,0.231578947368418
2019-03-28,0.3793103448275994
2019-03-29,0.641791044776137
2019-04-01,0.8552631578947671
2019-04-02,0.9617834394904651
2019-04-03,0.9516129032258304
2019-04-04,1.0
2019-04-08,0.41260744985672326
2019-04-09,0.5130641330166177
2019-04-10,0.44961240310076633
2019-04-11,0.4086538461538407
2019-04-12,0.2202380952380903
2019-04-15,0.6815642458100533
2019-04-16,0.890618239849578
2019-04-17,0.9220063337167584
2019-04-18,0.9764721582936412
2019-04-19,1.0
2019-04-22,1.0
2019-04-23,0.6198124632304617
2019-04-24,0.5749245335676455
2019-04-25,0.5111969398634032
2019-04-26,0.2084317908603352
2019-04-29,0.009615384615384467
2019-04-30,0.024242424242423767
2019-05-06,0.15706806282723407
2019-05-07,0.17142857142858198
2019-05-08,0.1181102362204779
2019-05-09,0.5506756756756757
2019-05-10,0.5469798657718192
2019-05-13,0.6808510638297919
2019-05-14,0.7628676470588254
2019-05-15,0.9945295404814027
2019-05-16,0.9941927990708502
2019-05-17,1.0
2019-05-20,0.9335748792270513
2019-05-21,0.8197969543147182
2019-05-22,0.30278884462151223
2019-05-23,0.12587412587412372
2019-05-24,0.30939226519336743
2019-05-27,0.5173535791757025
2019-05-28,0.6551059730250464
2019-05-29,0.6331471135940392
2019-05-30,0.7719626168224297
2019-05-31,0.5447963800904975
2019-06-03,0.364681295715779
2019-06-04,0.16572077185017037
2019-06-05,0.22530864197530873
2019-06-06,0.2496263079222738
2019-06-10,0.5130260521042113
2019-06-11,0.3809523809523827
2019-06-12,0.4324324324324336
2019-06-13,0.5486111111111106
2019-06-14,0.29999999999999805
2019-06-17,0.18075422626787774
2019-06-18,0.3888888888888837
2019-06-19,0.4288389513108571
2019-06-20,0.21077283372365052
2019-06-21,0.4560669456066915
2019-06-24,0.6687116564417112
2019-06-25,0.14906832298136963
2019-06-26,0.08050847457627155
2019-06-27,0.10628019323671792
2019-06-28,0.012552301255232363
2019-07-01,0.11934156378601805
2019-07-02,0.21556886227547092
2019-07-03,0.7462686567164221
2019-07-04,0.5675675675675754
2019-07-05,0.4454545454545487
2019-07-08,0.6242299794661189
2019-07-09,0.670863309352516
2019-07-10,0.5618221258134506
2019-07-11,0.6569343065693432
2019-07-12,0.955294117647064
2019-07-15,0.5347721822541907
2019-07-16,0.49081364829396273
2019-07-17,0.5803357314148628
2019-07-18,0.4782608695652109
2019-07-19,0.2345679012345688
2019-07-22,0.5529801324503374
2019-07-23,0.6399999999999998
2019-07-24,0.4590570719603001
2019-07-25,0.49465240641711944
2019-07-26,0.5473372781065173
2019-07-29,0.332352941176471
2019-07-30,0.0
2019-07-31,0.0
2019-08-01,0.21158129175946688
2019-08-02,0.3210633946830243
2019-08-05,0.5612244897959168
2019-08-06,0.8388278388278387
2019-08-07,1.0
2019-08-08,0.9143897996357023
2019-08-09,0.9223140495867783
2019-08-12,0.8088235294117699
2019-08-13,0.5736607142857189
2019-08-14,0.33053221288515716
2019-08-15,0.3846153846153794
2019-08-16,0.0047732696897281905
2019-08-19,0.0034965034964966964
2019-08-20,0.003407155025547042
2019-08-21,0.0036563071297918003
2019-08-22,0.0
2019-08-23,0.05449591280654184
2019-08-26,0.39516129032258285
2019-08-27,0.8627450980392205
2019-08-28,0.7357859531772668
2019-08-29,0.7719298245614025
2019-08-30,0.7711267605633797
2019-09-02,0.7670250896057348
2019-09-03,0.5822784810126639
2019-09-04,0.9259259259259223
2019-09-05,0.9972222222222242
2019-09-06,0.9631728045325774
2019-09-09,0.9699769053117778
2019-09-10,0.763636363636361
2019-09-11,0.7415506958250472
2019-09-12,0.5542521994134932
2019-09-16,0.6305324319962469
2019-09-17,0.1613833367023001
2019-09-18,0.2060981046718742
2019-09-19,0.16335130211525614
2019-09-20,0.13079802968794102
2019-09-23,0.18323688091368803
2019-09-24,0.49042220792483276
2019-09-25,0.5324236577255351
2019-09-26,0.4162480828055818
2019-09-27,0.7812500000000037
2019-09-30,0.4597156398104298
2019-10-08,0.7853107344632804
2019-10-09,0.8024263431542508
2019-10-10,0.7678275290215586
2019-10-11,0.7245080500894467
2019-10-14,0.8035714285714288
2019-10-15,0.15533980582524753
2019-10-16,0.0
2019-10-17,0.1695278969957087
2019-10-18,0.2147368421052603
2019-10-21,0.24688796680497743
2019-10-22,0.36842105263157393
2019-10-23,0.7692307692307665
2019-10-24,0.5377128953771273
2019-10-25,0.48648648648648407
2019-10-28,0.36345381526104137
2019-10-29,0.5531496062992103
2019-10-30,0.19646365422396844
2019-10-31,0.28139534883720646
2019-11-01,0.26651982378854744
2019-11-04,0.5098039215686321
2019-11-05,0.35449735449735886
2019-11-06,0.729257641921416
2019-11-07,0.7448559670782072
2019-11-08,0.8190045248868784
2019-11-11,0.5964912280701705
2019-11-12,0.6415094339622371
2019-11-13,0.3645833333333077
2019-11-14,0.4553571428571201
2019-11-15,0.7297297297297117
2019-11-18,0.8201058201058081
2019-11-19,0.7560975609756111
2019-11-20,0.9256198347107465
2019-11-21,0.7037037037037068
2019-11-22,0.5493975903614466
2019-11-25,0.40311804008908864
2019-11-26,0.3867521367521385
2019-11-27,0.0
2019-11-28,0.0
2019-11-29,0.0
2019-12-02,0.0
2019-12-03,0.08695652173913365
2019-12-04,0.19512195121952278
2019-12-05,0.3859649122807331
2019-12-06,0.6818181818181851
2019-12-09,0.8863636363636408
2019-12-10,0.8863636363636377
2019-12-11,0.6842105263157827
2019-12-12,0.7464788732394294
2019-12-13,0.5619834710743796
2019-12-16,0.27472527472526836
2019-12-17,0.17801047120418775
2019-12-18,0.542297473988443
2019-12-19,0.40367636364450027
2019-12-20,0.47315666074851565
2019-12-23,0.7377316355297033
2019-12-24,0.8470684352567729
2019-12-25,0.3534911424766333
2019-12-26,0.5673155194098213
2019-12-27,0.5676478801128445
2019-12-30,0.5977949250511687
2019-12-31,0.495169082125604
2020-01-02,0.8392857142857097
2020-01-03,0.7692307692307617
2020-01-06,0.6878306878306787
2020-01-07,0.19599999999999496
2020-01-08,0.3632653061224478
2020-01-09,0.5078864353312309
2020-01-10,0.4164222873900315
2020-01-13,0.5053475935828907
2020-01-14,0.7842323651452235
2020-01-15,0.7487922705313946
2020-01-16,0.24882629107981033
2020-01-17,0.32758620689654655
2020-01-20,0.04545454545454363
2020-01-21,0.3209459459459499
2020-01-22,0.3209459459459499
2020-01-23,0.5829596412556078
2020-02-03,0.663043478260872
2020-02-04,1.0
2020-02-05,0.8149606299212624
2020-02-06,0.6017964071856325
2020-02-07,0.6144927536231921
2020-02-10,0.3780487804878068
2020-02-11,0.10176991150442469
2020-02-12,0.15330188679244924
2020-02-13,0.29999999999999505
2020-02-14,0.17487684729063446
2020-02-17,0.4481865284974015
2020-02-18,0.7529880478087548
2020-02-19,0.5821917808219131
2020-02-20,0.7046004842614969
2020-02-21,0.8290598290598311
2020-02-24,0.7701149425287395
2020-02-25,0.7945205479452081
2020-02-26,1.0
2020-02-27,1.0
2020-02-28,1.0
2020-03-02,0.8229166666666644
2020-03-03,0.8534482758620676
2020-03-04,0.5154185022026425
2020-03-05,0.337858220211159
2020-03-06,0.1843251088534117
2020-03-09,0.31578947368421234
2020-03-10,0.13395225464191124
2020-03-11,0.16134185303514495
2020-03-12,0.4659685863874387
2020-03-13,0.6924369747899181
2020-03-16,0.6598513011152423
2020-03-17,0.9366754617414215
2020-03-18,1.0
2020-03-19,1.0
2020-03-20,0.8272980501392748
2020-03-23,0.59810874704492
2020-03-24,0.6686159844054599
2020-03-25,0.3743961352656988
2020-03-26,0.18633540372670637
2020-03-27,0.21077283372365171
2020-03-30,0.37087912087911773
2020-03-31,0.2263513513513514
2020-04-01,0.4042553191489453
2020-04-02,0.7661290322580828
2020-04-03,0.8391608391608524
2020-04-07,0.4310344827586317
2020-04-08,0.28494623655915013
2020-04-09,0.10460251046024796
2020-04-10,0.09999999999999558
2020-04-13,0.0
2020-04-14,0.12757201646090072
2020-04-15,0.11877394636015047
2020-04-16,0.477192982456138
2020-04-17,0.4874551971326179
2020-04-20,0.6652719665272008
2020-04-21,0.7133188196495227
2020-04-22,0.9467571014360141
2020-04-23,0.8135569470868714
2020-04-24,0.9104380408212926
2020-04-27,0.9207767169269326
2020-04-28,0.9174804081975575
2020-04-29,0.5154451943437696
2020-04-30,0.6111157907633858
2020-05-06,0.45957364165785847
2020-05-07,0.2750373692077654
2020-05-08,0.17179487179486344
2020-05-11,0.535460992907792
2020-05-12,0.30303030303029926
2020-05-13,0.20192307692307765
2020-05-14,0.22370173102530247
2020-05-15,0.2553191489361748
2020-05-18,0.04854368932039186
2020-05-19,0.09742120343839723
2020-05-20,0.23287671232876955
2020-05-21,0.25954198473281287
2020-05-22,0.731481481481441
2020-05-25,0.22881355932202035
2020-05-26,0.20869565217391
2020-05-27,0.16216216216216314
2020-05-28,0.16216216216216559
2020-05-29,0.008902077151339628
2020-06-01,0.353571428571432
2020-06-02,0.4738372093023256
2020-06-03,0.743661971830987
2020-06-04,0.6518518518518482
2020-06-05,0.8455056179775258
2020-06-08,0.6029411764705864
2020-06-09,0.396551724137926
2020-06-10,0.3913043478260821
2020-06-11,0.41411042944785054
2020-06-12,0.561926605504581
2020-06-15,0.6975476839237009
2020-06-16,0.8366013071895612
2020-06-17,0.4281842818428299
2020-06-18,0.48529411764706976
2020-06-19,0.09000000000001569
2020-06-22,0.02508960573476724
2020-06-23,0.10104529616724647
2020-06-24,0.24806201550385276
2020-06-29,0.4670329670329595
2020-06-30,0.26153846153845794
2020-07-01,0.31716417910447586
2020-07-02,0.38999999999999785
2020-07-03,0.34234234234234984
2020-07-06,0.17589576547231167
2020-07-07,0.4046242774566527
2020-07-08,0.43478260869566143
2020-07-09,0.0888888888888969
2020-07-10,0.6473829201101888
2020-07-13,0.7608142493638685
2020-07-14,0.7447368421052631
2020-07-15,0.8061224489795887
2020-07-16,0.993119266055046
2020-07-17,0.4942263279445728
2020-07-20,0.44696969696969735
2020-07-21,0.530434782608697
2020-07-22,0.554639175257733
2020-07-23,0.48693586698337293
2020-07-24,1.0
2020-07-27,0.8186274509803929
2020-07-28,0.6863753213367584
2020-07-29,0.6111111111111086
2020-07-30,0.35862068965517
2020-07-31,0.0
2020-08-03,0.028901734104045992
2020-08-04,0.030211480362537492
2020-08-05,0.10144927536231794
2020-08-06,0.2000000000000042
2020-08-07,0.8156424581005534
2020-08-10,0.921241050119329
2020-08-11,1.0
2020-08-12,0.9789915966386558
2020-08-13,0.9801587301587303
2020-08-14,0.9751243781094531
2020-08-17,0.3294663573085871
2020-08-18,0.09814323607426971
2020-08-19,0.09203980099502415
2020-08-20,0.013513513513513658
2020-08-21,0.0040322580645161385
2020-08-24,0.09282700421940877
2020-08-25,0.0856031128404665
2020-08-26,0.09128630705394145
2020-08-27,0.06825938566552867
2020-08-28,0.42629482071713254
2020-08-31,0.33079847908745647
2020-09-01,0.5205479452054862
2020-09-02,0.6730038022813745
2020-09-03,0.8632478632478696
2020-09-04,0.6216216216216188
2020-09-07,0.8020833333333222
2020-09-08,0.9035532994923808
2020-09-09,0.9175704989153972
2020-09-10,0.8343815513626779
2020-09-11,0.9213051823416486
2020-09-14,0.8732673267326747
2020-09-15,0.5549738219895314
2020-09-16,0.17449202170943842
2020-09-17,0.37187143192009264
2020-09-18,0.2026911897686269
2020-09-21,0.229540168094129
2020-09-22,0.26629422061071284
2020-09-23,0.5847571861029999
2020-09-24,0.3767280605899318
2020-09-25,0.8145724351598794
2020-09-28,0.8232580957726271
2020-09-29,0.7857142857142851
2020-09-30,0.5314685314685393
2020-10-09,0.7566371681415975
2020-10-12,0.8428571428571437
2020-10-13,0.8489010989011004
2020-10-14,0.744578313253015
2020-10-15,0.7990762124711317
2020-10-16,0.5196687370600366
2020-10-19,0.1655913978494623
2020-10-20,0.0762886597938125
2020-10-21,0.30443159922928326
2020-10-22,0.2168458781361987
2020-10-23,0.39917695473251175
2020-10-26,0.572271386430677
2020-10-27,0.698581560283688
2020-10-28,0.2923076923076961
2020-10-29,0.5135135135135156
2020-10-30,0.1404109589041069
2020-11-02,0.22435897435897192
2020-11-03,0.17631578947368223
2020-11-04,0.2271186440677924
2020-11-05,0.17689530685920327
2020-11-06,0.3475177304964498
2020-11-09,0.21367521367521355
2020-11-10,0.8806818181818196
2020-11-11,0.9779179810725579
2020-11-12,0.8630952380952405
2020-11-13,0.8866279069767442
2020-11-16,0.797872340425533
2020-11-17,0.6854838709677386
2020-11-18,0.05791505791505699
2020-11-19,0.05928853754940618
2020-11-20,0.0
2020-11-23,0.0
2020-11-24,0.1317829457364391
2020-11-25,0.43689320388350433
2020-11-26,0.6338028169014182
2020-11-27,0.3913043478260983
2020-11-30,0.7187500000000068
2020-12-01,0.33196721311475647
2020-12-02,0.5755208333333347
2020-12-03,0.6179245283018877
2020-12-04,0.7223529411764708
2020-12-07,0.6124031007751936
2020-12-08,0.8525179856115113
2020-12-09,0.4550264550264564
2020-12-10,0.3087248322147662
2020-12-11,0.006896551724136744
2020-12-14,0.007692307692306316
2020-12-15,0.24528301886792395
2020-12-16,0.2732059294923361
2020-12-17,0.2511548629751538
2020-12-18,0.5268946719709762
2020-12-21,0.7321308561789658
2020-12-22,0.6815499391523648
2020-12-23,0.9366049303662498
2020-12-24,0.7809435833114389
2020-12-25,0.8170446856039472
2020-12-28,0.4303221745009408
2020-12-29,0.5218855218855204
2020-12-30,0.36164383561643854
2020-12-31,0.3987915407854976
2021-01-04,0.2737226277372254
2021-01-05,0.5509259259259238
2021-01-06,0.21086261980830548
2021-01-07,0.5078864353312276
2021-01-08,0.5495495495495492
2021-01-11,0.5867768595041328
2021-01-12,0.4111922141119228
2021-01-13,0.7325581395348838
2021-01-14,0.5547703180212054
2021-01-15,0.5578947368421079
2021-01-18,0.5434782608695666
2021-01-19,0.8553191489361743
2021-01-20,0.6519337016574629
2021-01-21,0.8542713567839193
2021-01-22,0.5816733067729063
2021-01-25,0.2273730684326698
2021-01-26,0.20993227990970395
2021-01-27,0.20217391304347546
2021-01-28,0.08523908523908473
2021-01-29,0.09903381642512028
2021-02-01,0.42857142857142916
2021-02-02,0.22540983606557552
2021-02-03,0.2736318407960229
2021-02-04,0.2631578947368449
2021-02-05,0.4335937500000036
2021-02-08,0.22672064777328121
2021-02-09,0.25806451612903314
2021-02-10,0.35510204081632846
2021-02-18,0.7335640138408277
2021-02-19,0.7957559681697587
2021-02-22,0.9179894179894165
2021-02-23,1.0
2021-02-24,1.0
2021-02-25,0.8212765957446823
2021-02-26,0.5487528344671228
2021-03-01,0.6677796327212039
2021-03-02,0.5420393559928465
2021-03-03,0.3428093645484959
2021-03-04,0.4635416666666669
2021-03-05,0.5779220779220763
2021-03-08,0.16187989556135624
2021-03-09,0.17366946778711312
2021-03-10,0.46621621621621495
2021-03-11,0.23456790123456805
2021-03-12,0.22551928783382866
2021-03-15,0.23241590214067295
2021-03-16,0.2389937106918234
2021-03-17,0.0798479087452461
2021-03-18,0.39442231075697226
2021-03-19,0.422594142259414
2021-03-22,0.9109311740890667
2021-03-23,1.0
2021-03-24,0.8031746031746033
2021-03-25,0.6294964028776963
2021-03-26,0.5274390243902437
2021-03-29,0.3189206154673938
2021-03-30,0.3509388384126849
2021-03-31,0.6810145189609818
2021-04-01,0.8197560906595754
2021-04-02,1.0
2021-04-06,0.7476317299411634
2021-04-07,0.5335827548527114
2021-04-08,0.3410150895493369
2021-04-09,0.21827112017081562
2021-04-12,0.32462686567164106
2021-04-13,0.6615384615384595
2021-04-14,0.999999999999995
2021-04-15,0.5833333333333338
2021-04-16,0.45868945868946065
2021-04-19,0.2782874617737016
2021-04-20,0.013245033112582282
2021-04-21,0.20462633451957268
2021-04-22,0.28602150537634446
2021-04-23,0.4263392857142878
2021-04-26,0.5138248847926286
2021-04-27,1.0
2021-04-28,0.4500000000000039
2021-04-29,0.37113402061855777
2021-04-30,0.17361111111110966
2021-05-06,0.13138686131386482
2021-05-07,0.2743902439024363
2021-05-10,0.6557377049180247
2021-05-11,0.6504065040650396
2021-05-12,0.7960199004975186
2021-05-13,0.6042553191489397
2021-05-14,0.30042918454935774
2021-05-17,0.0
2021-05-18,0.0
2021-05-19,0.29090909090909084
2021-05-20,0.6462585034013609
2021-05-21,0.8978978978978983
2021-05-24,0.9699999999999993
2021-05-25,1.0
2021-05-26,1.0
2021-05-27,0.9785100286532957
2021-05-28,0.9679595278246219
2021-05-31,0.49828767123287737
2021-06-01,0.3776493256262043
2021-06-02,0.0
2021-06-03,0.0
2021-06-04,0.056934306569342855
2021-06-07,0.08744394618834068
2021-06-08,0.0911214953271028
2021-06-09,0.15476190476190577
2021-06-10,0.731707317073177
2021-06-11,0.34472049689441103
2021-06-15,0.5281501340482568
2021-06-16,0.4602803738317737
2021-06-17,0.4348785871964652
2021-06-18,0.20574162679425548
2021-06-21,0.5944700460829473
2021-06-22,0.3865168539325842
2021-06-23,0.44444444444444536
2021-06-24,0.5550122249388749
2021-06-25,0.6448863636363639
2021-06-28,0.15988372093023007
2021-06-29,0.24110671936758538
2021-06-30,0.26799999999999563
2021-07-01,0.041522491349479926
2021-07-02,0.03809523809523719
2021-07-05,0.21022727272727584
2021-07-06,0.15736040609137372
2021-07-07,0.2995780590717336
2021-07-08,0.647058823529414
2021-07-09,0.7333333333333364
2021-07-12,0.7885462555066093
2021-07-13,0.9054054054054076
2021-07-14,0.7380952380952375
2021-07-15,0.4771573604060919
2021-07-16,0.6465517241379298
2021-07-19,0.46987951807228806
2021-07-20,0.6106194690265484
2021-07-21,0.6699029126213614
2021-07-22,0.7666666666666675
2021-07-23,0.778947368421054
2021-07-26,0.49006622516556325
2021-07-27,0.21854304635761596
2021-07-28,0.22758620689655226
2021-07-29,0.2573529411764726
2021-07-30,0.016736401673642334
2021-08-02,0.16428571428571273
2021-08-03,0.29487179487179527
2021-08-04,0.7376237623762371
2021-08-05,0.7579908675799071
2021-08-06,0.6194029850746239
2021-08-09,0.693693693693693
2021-08-10,0.7380191693290722
2021-08-11,0.3201219512195121
2021-08-12,0.34023668639053306
2021-08-13,0.5331125827814581
2021-08-16,0.31048387096774216
2021-08-17,0.5250000000000006
2021-08-18,0.885931558935361
2021-08-19,0.8734177215189873
2021-08-20,0.6939655172413792
2021-08-23,0.8028846153846152
2021-08-24,0.24774774774774747
2021-08-25,0.0923913043478251
2021-08-26,0.04858299595141564
2021-08-27,0.1601731601731588
2021-08-30,0.10096779237543245
2021-08-31,0.17566702959961558
2021-09-01,0.41626012705894866
2021-09-02,0.5865044731930269
2021-09-03,0.5581881750353754
2021-09-06,1.0
2021-09-07,1.0
2021-09-08,0.9281276099202117
2021-09-09,0.9571267553214653
2021-09-10,0.9598662207357844
2021-09-13,0.7565217391304314
2021-09-14,0.6740088105726866
2021-09-15,0.554347826086956
2021-09-16,0.14553990610328552
2021-09-17,0.0
2021-09-22,0.24576271186440732
2021-09-23,0.5876288659793806
2021-09-24,0.8460342146189735
2021-09-27,0.9416909620991256
2021-09-28,1.0
2021-09-29,1.0
2021-09-30,0.8913385826771649
2021-10-08,0.5720823798627
2021-10-11,0.7688504326328806
2021-10-12,0.7366197183098601
2021-10-13,0.8287545787545791
2021-10-14,0.8896164639850334
2021-10-15,0.9126679462571977
2021-10-18,0.8209982788296031
2021-10-19,0.8675159235668781
2021-10-20,0.4604569420035136
2021-10-21,0.4014869888475837
2021-10-22,0.626213592233009
2021-10-25,0.46966019417475713
2021-10-26,0.25909090909090776
2021-10-27,0.2766990291262127
2021-10-28,0.637583892617449
2021-10-29,0.527777777777778
2021-11-01,0.5184859154929579
2021-11-02,0.6129788897576243
2021-11-03,0.6981300089047203
2021-11-04,0.2754237288135611
2021-11-05,0.35193798449612484
2021-11-08,0.6057268722466963
2021-11-09,0.12345679012345626
2021-11-10,0.1325115562403706
2021-11-11,0.09409190371991302
2021-11-12,0.05966850828729373
2021-11-15,0.006103763987793381
2021-11-16,0.15151515151515257
2021-11-17,0.14905933429811924
2021-11-18,0.6460807600950117
2021-11-19,0.517110266159695
2021-11-22,0.6908212560386471
2021-11-23,0.5123287671232877
2021-11-24,0.3804573804573798
2021-11-25,0.0334928229665086
2021-11-26,0.3012658227848112
2021-11-29,0.4089935760171301
2021-11-30,0.4932735426008971
2021-12-01,0.6376811594202927
2021-12-02,0.8627450980392178
2021-12-03,0.6388888888888925
2021-12-06,0.1611111111111145
2021-12-07,0.0
2021-12-08,0.08275862068965494
2021-12-09,0.075235109717868
2021-12-10,0.28378378378378327
2021-12-13,0.3571428571428556
2021-12-14,0.6745562130177485
2021-12-15,0.4054054054054036
2021-12-16,0.43689033305187464
2021-12-17,0.6225195026010804
2021-12-20,0.7466376375904066
2021-12-21,0.8043946477893433
2021-12-22,0.9438951002894975
2021-12-23,1.0
2021-12-24,0.5391907686053962
2021-12-27,0.365187948563186
2021-12-28,0.23578387111971724
2021-12-29,0.17660818713450285
2021-12-30,0.0
2021-12-31,0.0
2022-01-04,0.35036496350364854
2022-01-05,0.4823232323232301
2022-01-06,0.6050228310502258
2022-01-07,0.9789864029666249
2022-01-10,0.9949748743718604
2022-01-11,0.8503937007874035
2022-01-12,0.7540777917189477
2022-01-13,0.707382550335572
2022-01-14,0.0
2022-01-17,0.23255813953488283
2022-01-18,0.3764705882352928
2022-01-19,0.41025641025640885
2022-01-20,0.49052631578947314
2022-01-21,0.8961538461538487
2022-01-24,0.5871559633027555
2022-01-25,0.2773722627737259
2022-01-26,0.2252964426877499
2022-01-27,0.01754385964912261
2022-01-28,0.23608017817372093
2022-02-07,0.6359060402684574
2022-02-08,0.8245614035087728
2022-02-09,1.0
2022-02-10,0.7728571428571408
2022-02-11,0.7222222222222192
2022-02-14,0.3106617647058786
2022-02-15,0.13131313131312916
2022-02-16,0.0
2022-02-17,0.0
2022-02-18,0.03703703703703272
2022-02-21,0.0577617328519792
2022-02-22,0.5932203389830484
2022-02-23,0.5335365853658547
2022-02-24,0.7568306010929001
2022-02-25,0.717032967032972
2022-02-28,0.8719806763285067
2022-03-01,0.6516129032258129
2022-03-02,0.762068965517243
2022-03-03,0.8011527377521643
2022-03-04,0.6164079822616447
2022-03-07,0.5220994475138165
2022-03-08,0.8184615384615402
2022-03-09,0.8735262593783513
2022-03-10,0.829329962073325
2022-03-11,0.9807037457434714
2022-03-14,0.9793340987370812
2022-03-15,0.7193229901269376
2022-03-16,0.3255086071987448
2022-03-17,0.3255086071987459
2022-03-18,0.0
2022-03-21,0.0
2022-03-22,0.0
2022-03-23,0.3284072249589506
2022-03-24,0.2989536621823641
2022-03-25,0.46709470304975975
2022-03-28,0.6862745098039239
2022-03-29,0.8552631578947373
2022-03-30,0.618727064099829
2022-03-31,0.8181283231291525
2022-04-01,0.8458915092639387
2022-04-06,0.6307053577167722
2022-04-07,0.7436146238173416
2022-04-08,0.8763302356345681
2022-04-11,0.7369346362136819
2022-04-12,0.423424949834211
2022-04-13,0.6062420804206295
2022-04-14,0.3972809667673682
2022-04-15,0.2385575589459077
2022-04-18,0.32000000000000195
2022-04-19,0.4140480591497246
2022-04-20,0.09106830122592369
2022-04-21,0.08950086058520254
2022-04-22,0.2640776699029187
2022-04-25,0.2626459143968894
2022-04-26,0.6223224351747499
2022-04-27,0.815789473684212
2022-04-28,1.0
2022-04-29,0.929745889387143
2022-05-05,0.8825347758887148
2022-05-06,0.28947368421052255
2022-05-09,0.3076923076923109
2022-05-10,0.11832946635731324
2022-05-11,0.2665198237885483
2022-05-12,0.2228360957642763
2022-05-13,0.4689922480620241
2022-05-16,0.2034883720930204
2022-05-17,0.19125683060109158
2022-05-18,0.0
2022-05-19,0.041811846689885586
2022-05-20,0.03986710963454218
2022-05-23,0.47766323024055596
2022-05-24,0.5631399317406192
2022-05-25,0.5729166666666672
2022-05-26,0.6684636118598414
2022-05-27,0.6813186813186801
2022-05-30,0.35174418604650826
2022-05-31,0.2398989898989874
2022-06-01,0.3448275862068926
2022-06-02,0.03989361702127556
2022-06-06,0.19377990430621964
2022-06-07,0.21542553191489275
2022-06-08,0.37822349570200914
2022-06-09,0.30789473684210844
2022-06-10,0.6487341772151922
2022-06-13,0.43167701863354674
2022-06-14,0.6205787781350518
2022-06-15,0.5830388692579489
2022-06-16,0.7798165137614709
2022-06-17,0.5529801324503393
2022-06-20,0.8797709923664175
2022-06-21,0.8123752495010024
2022-06-22,0.6881720430107545
2022-06-23,0.6759776536312848
2022-06-24,0.7827788649706403
2022-06-27,0.27179487179486445
2022-06-28,0.3271276595744672
2022-06-29,0.4559748427673017
2022-06-30,0.201591511936349
2022-07-01,0.3112128146453294
2022-07-04,0.6132930513595334
2022-07-05,0.5329512893982901
2022-07-06,0.6918714555765636
2022-07-07,0.9193548387096728
2022-07-08,0.6942528735632064
2022-07-11,0.5568720379146836
2022-07-12,0.6142131979695352
2022-07-13,0.13513513513511746
2022-07-14,0.023333333333325535
2022-07-15,0.03301886792451773
2022-07-18,0.2705314009661592
2022-07-19,0.34632034632032893
2022-07-20,0.402010050251243
2022-07-21,0.5858585858585711
2022-07-22,0.7241379310344769
2022-07-25,0.34313725490196
2022-07-26,0.41865509761388914
2022-07-27,0.41151385927506057
2022-07-28,0.3528089887640559
2022-07-29,0.2079207920792183
2022-08-01,0.5490909090909163
2022-08-02,0.25670498084290505
2022-08-03,0.3268292682926717
2022-08-04,0.5935483870967628
2022-08-05,0.5661538461538296
2022-08-08,0.3381502890173339
2022-08-09,0.46464646464646175
2022-08-10,0.565916398713823
2022-08-11,0.15012722646310597
2022-08-12,0.2622107969151738
2022-08-15,0.6294227188081992
2022-08-16,0.5409556313993179
2022-08-17,0.5109090909090959
2022-08-18,0.8016997167138759
2022-08-19,0.7910447761193993
2022-08-22,0.07631578947369626
2022-08-23,0.2039660056657353
2022-08-24,0.20845070422535372
2022-08-25,0.43574297188755545
2022-08-26,0.3380281690140856
2022-08-29,0.698412698412699
2022-08-30,0.6812080536912763
2022-08-31,0.6218750000000085
2022-09-01,0.1714285714285755
2022-09-02,0.40714285714285364
2022-09-05,0.6745098039215668
2022-09-06,0.5219284134551556
2022-09-07,0.5971780545186839
2022-09-08,0.7587238561519943
2022-09-09,0.5802628585991791
2022-09-13,0.1432710338974195
2022-09-14,0.3308485598911276
2022-09-15,0.1667507279313044
2022-09-16,0.3982616944463587
2022-09-19,0.5050550742754528
2022-09-20,0.6707566462167658
2022-09-21,0.6273148148148098
2022-09-22,0.8671679197994933
2022-09-23,0.6217391304347696
2022-09-26,0.6824817518248024
2022-09-27,0.8606557377049102
2022-09-28,0.7594936708860774
2022-09-29,0.45652173913043814
2022-09-30,0.4449152542372971
2022-10-10,0.6420765027322471
2022-10-11,0.6749379652605476
2022-10-12,0.623853211009173
2022-10-13,0.7635467980295574
2022-10-14,0.7398568019093061
2022-10-17,0.24999999999999462
2022-10-18,0.08616780045351437
2022-10-19,0.22544642857142533
2022-10-20,0.14999999999999666
2022-10-21,0.16363636363636022
2022-10-24,0.26470588235293935
2022-10-25,0.5251798561151171
2022-10-26,0.7092511013215939
2022-10-27,0.6625514403292282
2022-10-28,0.8450363196125965
2022-10-31,0.8596059113300494
2022-11-01,0.8741721854304632
2022-11-02,0.49695740365111624
2022-11-03,0.6306156405990009
2022-11-04,0.3530499075785581
2022-11-07,0.37087378640776875
2022-11-08,0.2542694497153699
2022-11-09,0.5511111111111111
2022-11-10,0.30158730158730035
2022-11-11,0.35294117647058476
2022-11-14,0.30481283422459476
2022-11-15,0.4527220630372468
2022-11-16,0.11609498680738962
2022-11-17,0.1205479452054818
2022-11-18,0.3689567430025504
2022-11-21,0.5991649269311125
2022-11-22,0.494908350305504
2022-11-23,0.6279069767441883
2022-11-24,0.7593984962406007
2022-11-25,0.45393258426966165
2022-11-28,0.17647058823529252
2022-11-29,0.4790697674418589
2022-11-30,0.6025917926565862
2022-12-01,0.5394088669950714
2022-12-02,0.8684210526315764
2022-12-05,0.8354430379746787
2022-12-06,0.4184397163120548
2022-12-07,0.4014598540145978
2022-12-08,0.3928571428571439
2022-12-09,0.2559055118110224
2022-12-12,0.30092592592592715
2022-12-13,0.7000000000000082
2022-12-14,0.35991456931699106
2022-12-15,0.617662182936721
2022-12-16,0.9163136611206417
2022-12-19,0.9479459007859832
2022-12-20,0.9646495376972946
2022-12-21,0.9895559711149712
2022-12-22,0.7746232954391035
2022-12-23,0.44633823777338905
2022-12-26,0.5820709021685607
2022-12-27,0.3395833333333329
2022-12-28,0.21755725190839476
2022-12-29,0.24728850325379487
2022-12-30,0.30894308943089405
2023-01-03,0.4468546637744019
2023-01-04,0.5674931129476634
2023-01-05,0.8072289156626544
2023-01-06,0.8685714285714315
2023-01-09,0.958506224066391
2023-01-10,0.40634920634920374
2023-01-11,0.43269230769230643
2023-01-12,0.352542372881361
2023-01-13,0.49470899470899915
2023-01-16,0.3483870967741971
2023-01-17,0.8417721518987386
2023-01-18,0.8289473684210553
2023-01-19,0.9308357348703128
2023-01-20,0.6111111111110968
2023-01-30,0.7277227722772153
2023-01-31,0.7393364928909866
2023-02-01,0.8221476510067048
2023-02-02,0.7190082644628103
2023-02-03,0.7404255319149022
2023-02-06,0.7426160337552848
2023-02-07,0.5467289719626315
2023-02-08,0.13333333333334035
2023-02-09,0.1052631578947407
2023-02-10,0.07887323943662243
2023-02-13,0.0
2023-02-14,0.23565573770491843
2023-02-15,0.26806526806526776
2023-02-16,0.28894472361808976
2023-02-17,0.6115485564304446
2023-02-20,0.5669099756690948
2023-02-21,0.3676012461059133
2023-02-22,0.5496183206106812
2023-02-23,0.6608910891089025
2023-02-24,0.3840206185566927
2023-02-27,0.5849673202614352
2023-02-28,0.5
2023-03-01,0.2515527950310573
2023-03-02,0.0895522388059808
2023-03-03,0.2951388888889022
2023-03-06,0.4671916010498684
2023-03-07,0.5129682997118129
2023-03-08,0.5527950310559009
2023-03-09,0.8319327731092397
2023-03-10,0.8490566037735813
2023-03-13,0.8230088495575197
2023-03-14,0.8340807174887969
2023-03-15,0.9252525252525303
2023-03-16,0.578313253012057
2023-03-17,0.30607476635514613
2023-03-20,0.26302729528535984
2023-03-21,0.354838709677416
2023-03-22,0.15616438356164092
2023-03-23,0.19520547945205097
2023-03-24,0.6021126760563416
2023-03-27,0.6807909604519794
2023-03-28,0.6869806094182842
2023-03-29,0.8126801152737736
2023-03-30,0.9791666666666637
2023-03-31,0.589473684210513
2023-04-03,0.20103092783503976
2023-04-04,0.17333333333333414
2023-04-06,0.08469945355192306
2023-04-07,0.08516483516484541
2023-04-10,0.09841269841271012
2023-04-11,0.20529801324505847
2023-04-12,0.0909090909090723
2023-04-13,0.10169491525421456
2023-04-14,0.4599664991624822
2023-04-17,0.8196151715726141
2023-04-18,0.7116747717854369
2023-04-19,0.7501378813841204
2023-04-20,0.7056407697395242
2023-04-21,0.6926289845003527
2023-04-24,0.5990419213361265
2023-04-25,0.8847999072369613
2023-04-26,0.49062029587333894
2023-04-27,0.5979112271540424
2023-04-28,0.39667458432303704
2023-05-04,0.34889434889434684
2023-05-05,0.15709969788519224
2023-05-08,0.5019920318725003
2023-05-09,0.41860465116278933
2023-05-10,0.5960264900662136
2023-05-11,0.687499999999993
2023-05-12,0.5339805825242825
2023-05-15,0.15929203539824288
2023-05-16,0.1162790697674357
2023-05-17,0.33620689655171515
2023-05-18,0.21804511278194383
2023-05-19,0.264840182648388
2023-05-22,0.8218085106382971
2023-05-23,0.8349753694581286
2023-05-24,0.766756032171588
2023-05-25,0.9020771513353191
2023-05-26,0.9516908212560448
2023-05-29,0.366666666666677
2023-05-30,0.25233644859813875
2023-05-31,0.31972789115646666
2023-06-01,0.3749999999999971
2023-06-02,0.19911504424778087
2023-06-05,0.4351464435146261
2023-06-06,0.5875706214689137
2023-06-07,0.31140350877191864
2023-06-08,0.0622222222222158
2023-06-09,0.06730769230768581
2023-06-12,0.37820512820513763
2023-06-13,0.32960893854749357
2023-06-14,0.4885245901639436
2023-06-15,0.45288753799392717
2023-06-16,0.6301369863013759
2023-06-19,0.30352303523035484
2023-06-20,0.4535519125683058
2023-06-21,0.44134078212290156
2023-06-26,0.571929824561395
2023-06-27,0.39234449760763573
2023-06-28,0.6890756302520722
2023-06-29,0.24347826086953886
2023-06-30,0.04761904761902635
2023-07-03,0.0
2023-07-04,0.0
2023-07-05,0.0
2023-07-06,0.3232323232323266
2023-07-07,0.2770562770562823
2023-07-10,0.5650557620818029
2023-07-11,0.7117903930131236
2023-07-12,0.833935018050546
2023-07-13,0.6117216117216173
2023-07-14,0.69583333333333
2023-07-17,0.6117021276595697
2023-07-18,0.46222222222220327
2023-07-19,0.15999999999999515
2023-07-20,0.26285714285713163
2023-07-21,0.48672566371679554
2023-07-24,0.29249011857706103
2023-07-25,0.3441860465116217
2023-07-26,0.5966850828729372
2023-07-27,0.7044534412955523
2023-07-28,0.42307692307693573
2023-07-31,0.5140186915888088
2023-08-01,0.6439393939394085
2023-08-02,0.4657534246575382
2023-08-03,0.25751072961373467
2023-08-04,0.6113360323886564
2023-08-07,0.5676691729323188
2023-08-08,0.3639999999999876
2023-08-09,0.6240310077519277
2023-08-10,0.5111111111111123
2023-08-11,0.2287581699346443
2023-08-14,0.5121951219512237
2023-08-15,0.5614973262032139
2023-08-16,0.4375000000000045
2023-08-17,0.6697819314641774
2023-08-18,0.936507936507937
2023-08-21,0.6220930232558115
2023-08-22,0.7220956719817745
2023-08-23,0.6730360934182592
2023-08-24,0.5694117647058836
2023-08-25,0.33660130718954206
2023-08-28,0.5268292682926944
2023-08-29,0.026737967914450926
2023-08-30,0.2429378531073456
2023-08-31,0.5493562231759591
2023-09-01,0.39263803680981296
2023-09-04,0.4807678908430572
2023-09-05,0.6342036635099066
2023-09-06,0.7202977372073442
2023-09-07,0.6677825251093202
2023-09-08,1.0
2023-09-11,1.0
2023-09-12,0.923682629243028
2023-09-13,0.3552245161420834
2023-09-14,0.12858743120962252
2023-09-15,0.3345588235294111
2023-09-18,0.44135802469135527
2023-09-19,0.4539682539682556
2023-09-20,0.6415770609319033
2023-09-21,0.8211009174311859
2023-09-22,0.7562499999999919
2023-09-25,0.28444444444444233
2023-09-26,0.38492063492063294
2023-09-27,0.21554770318021363
2023-09-28,0.36148648648649084
2023-10-09,0.24687500000000404
2023-10-10,0.4020100502512552
2023-10-11,0.363636363636362
2023-10-12,0.44444444444445574
2023-10-13,0.1679389312977031
2023-10-16,0.15068493150683898
2023-10-17,0.5267175572519127
2023-10-18,0.5040000000000043
2023-10-19,0.6285714285714274
2023-10-20,0.7099567099567073
2023-10-23,1.0
2023-10-24,1.0
2023-10-25,0.8351648351648356
2023-10-26,0.8214285714285637
2023-10-27,0.8309859154929509
2023-10-30,0.3356890459363945
2023-10-31,0.06590909090909117
2023-11-01,0.4207920792079165
2023-11-02,0.4913043478260859
2023-11-03,0.4512372634643351
2023-11-06,0.7316810344827566
2023-11-07,0.9665379665379641
2023-11-08,0.6628787878787873
2023-11-09,0.5983717774762547
2023-11-10,0.6316507503410675
2023-11-13,0.11590628853268069
2023-11-14,0.1202453987730123
2023-11-15,0.17647058823530387
2023-11-16,0.16293929712460853
2023-11-17,0.12269938650306908
2023-11-20,0.5437956204379433
2023-11-21,0.25795053003533125
2023-11-22,0.30693069306929543
2023-11-23,0.5895061728395011
2023-11-24,0.6985815602836932
2023-11-27,0.7683923705722122
2023-11-28,1.0
2023-11-29,1.0
2023-11-30,0.7302452316076324
2023-12-01,0.6822916666666679
2023-12-04,0.29110512129379895
2023-12-05,0.45407112552875384
2023-12-06,0.5086173330061078
2023-12-07,0.741492313460814
2023-12-08,0.8317719668399965
2023-12-11,1.0
2023-12-12,0.6735846702897405
2023-12-13,0.596961977641094
2023-12-14,0.37553916519902625
2023-12-15,0.09312941021629874
2023-12-18,0.0
2023-12-19,0.23017408123790925
2023-12-20,0.22118959107806582
2023-12-21,0.25373134328357866
2023-12-22,0.3439306358381441
2023-12-25,0.3419540229885025
2023-12-26,0.0
2023-12-27,0.19154228855721933
2023-12-28,0.31005586592179335
2023-12-29,0.37087912087912284
2024-01-02,0.5376044568245105
2024-01-03,1.0
2024-01-04,0.8528428093645344
2024-01-05,0.8670694864048215
2024-01-08,0.7945619335347345
2024-01-09,0.8028985507246302
2024-01-10,0.42990654205607237
2024-01-11,0.5573248407643352
2024-01-12,0.3657718120805421
2024-01-15,0.3224852071005978
2024-01-16,0.09113300492610922
2024-01-17,0.15894039735099308
2024-01-18,0.029891304347824957
2024-01-19,0.03089887640449311
2024-01-22,0.3228915662650521
2024-01-23,0.5714285714285728
2024-01-24,0.5100864553314179
2024-01-25,0.8159340659340726
2024-01-26,0.9134328358209025
2024-01-29,0.712062256809349
2024-01-30,0.505882352941181
2024-01-31,0.6254826254826272
2024-02-01,0.3120567375886572
2024-02-02,0.33103448275863956
2024-02-05,0.3157894736842297
2024-02-06,0.46153846153846967
2024-02-07,0.1612903225806649
2024-02-08,0.0730337078651733
2024-02-19,0.4745222929936202
2024-02-20,0.5120274914089211
2024-02-21,0.5155709342560495
2024-02-22,0.5120274914089314
2024-02-23,0.8141891891891943
2024-02-26,0.33093525179857536
2024-02-27,0.4784053156146331
2024-02-28,0.4800000000000165
2024-02-29,0.5700325732899164
2024-03-01,0.33333333333333537
2024-03-04,0.506097560975601
2024-03-05,0.21678321678320453
2024-03-06,0.20666666666664982
2024-03-07,0.07031249999999224
2024-03-08,0.05882352941175988
2024-03-11,0.2686567164179182
2024-03-12,0.5562913907284797
2024-03-13,0.8907407407407416
2024-03-14,0.9066455696202538
2024-03-15,1.0
2024-03-18,0.9999999999999946
2024-03-19,0.9999999999999948
2024-03-20,0.32123411978221283
2024-03-21,0.13380281690140747
2024-03-22,0.12920353982300892
2024-03-25,0.12586206896551766
2024-03-26,0.005882352941178333
2024-03-27,0.021582733812955644
2024-03-28,0.4193548387096522
2024-03-29,0.45454545454537626
2024-04-01,0.9860465116278964
2024-04-02,0.6169590643274818
2024-04-03,0.6692506459948314
2024-04-08,0.727659574468085
2024-04-09,0.7276595744680868
2024-04-10,0.3634085213032566
2024-04-11,0.5141843971631185
2024-04-12,0.31189710610932747
2024-04-15,0.012293919310818179
2024-04-16,0.3135808979469822
2024-04-17,0.5171337185263041
2024-04-18,0.5769991208886713
2024-04-19,0.7319250090818175
2024-04-22,1.0
2024-04-23,0.5524930782383655
2024-04-24,0.341902019768478
2024-04-25,0.25802790682484555
2024-04-26,0.14177215189873388
2024-04-29,0.0
2024-04-30,0.1387559808612488
2024-05-06,0.6086956521739098
2024-05-07,0.5283018867924535
2024-05-08,0.7434554973822028
2024-05-09,0.8000000000000037
2024-05-10,0.7873563218390828
2024-05-13,0.2511627906976767
2024-05-14,0.45132743362832267
2024-05-15,0.35643564356435553
2024-05-16,0.27500000000000197
2024-05-17,0.18750000000000328
2024-05-20,0.4400000000000015
2024-05-21,0.4716981132075402
2024-05-22,0.5155279503105558
2024-05-23,0.7364341085271291
2024-05-24,1.0
2024-05-27,1.0
2024-05-28,0.5172413793103453
2024-05-29,0.5867158671586707
2024-05-30,0.554716981132075
2024-05-31,0.4344569288389496
2024-06-03,0.4448529411764733
2024-06-04,0.8211009174311971
2024-06-05,0.7914438502673862
2024-06-06,0.8358208955223917
2024-06-07,0.9940828402366887
2024-06-11,0.43119266055046457
2024-06-12,0.15517241379310742
2024-06-13,0.07017543859649306
2024-06-14,0.0
2024-06-17,0.2671394799054362
2024-06-18,0.3704918032786869
2024-06-19,0.6178343949044571
2024-06-20,0.7637795275590541
2024-06-21,0.9503546099290793
2024-06-24,0.5
2024-06-25,0.526813880126182
2024-06-26,0.35983263598326287
2024-06-27,0.35833333333333306
2024-06-28,0.14444444444444499
2024-07-01,0.8266666666666743
2024-07-02,0.6756756756756833
2024-07-03,0.3968253968253967
2024-07-04,0.7130434782608674
2024-07-05,0.5208333333333298
2024-07-08,0.4926470588235233
2024-07-09,0.43648208469054833
2024-07-10,0.5580524344569257
2024-07-11,0.13307984790874194
2024-07-12,0.22772277227722712
2024-07-15,0.1274509803921646
2024-07-16,0.16049382716050326
2024-07-17,0.07482993197279404
2024-07-18,0.7815126050420235
2024-07-19,0.8395061728395088
2024-07-22,0.918918918918906
2024-07-23,0.9631336405529871
2024-07-24,0.9288888888888831
2024-07-25,0.6614583333333257
2024-07-26,0.4147727272727273
2024-07-29,0.41714285714286187
2024-07-30,0.0
2024-07-31,0.1635220125786181
2024-08-01,0.2063492063492102
2024-08-02,0.23423423423423606
2024-08-05,0.20799999999999944
2024-08-06,0.2921348314606715
2024-08-07,0.7407407407407394
2024-08-08,0.8390410958904079
2024-08-09,0.944827586206895
2024-08-12,0.9941520467836248
2024-08-13,0.9960937499999998
2024-08-14,0.6818181818181817
2024-08-15,0.538617886178863
2024-08-16,0.20412371134020707
2024-08-19,0.0
2024-08-20,0.0
2024-08-21,0.0
2024-08-22,0.20054200542005268
2024-08-23,0.7049891540130151
2024-08-26,0.8290816326530603
2024-08-27,0.804455445544553
2024-08-28,0.8463541666666664
2024-08-29,0.6275000000000015
2024-08-30,0.0
2024-09-02,0.0
2024-09-03,0.07474226804123864
2024-09-04,0.07901907356948365
2024-09-05,0.24390243902439002
2024-09-06,0.7407407407407355
2024-09-09,0.8408594984467478
2024-09-10,0.8253272533138188
2024-09-11,0.9192203649655284
2024-09-12,0.9001516512851415
2024-09-13,0.9986303540012416
2024-09-18,0.9982317726909374
2024-09-19,0.9987689940373167
2024-09-20,0.7062376765608438
2024-09-23,0.6698616526087248
2024-09-24,0.4078431372548994
2024-09-25,0.3961538461538408
2024-09-26,0.0
2024-09-27,0.04390243902438818
2024-09-30,0.19736842105263547
2024-10-08,0.7189054726368185
2024-10-09,0.6422222222222256
2024-10-10,0.8738317757009352
2024-10-11,0.7620041753653461
2024-10-14,0.743243243243244
2024-10-15,0.1995359628770286
2024-10-16,0.31367924528301894
2024-10-17,0.1307901907356957
2024-10-18,0.26000000000000045
2024-10-21,0.3272727272727287
2024-10-22,0.8435754189944151
2024-10-23,0.5683060109289594
2024-10-24,0.5073170731707293
2024-10-25,0.2990196078431354
2024-10-28,0.12195121951219393
2024-10-29,0.4495412844036662
2024-10-30,0.8268456375838915
2024-10-31,0.9106334841628951
2024-11-01,0.959518599562363
2024-11-04,0.9977246871444827
2024-11-05,0.8598351001177846
2024-11-06,0.3565573770491797
2024-11-07,0.0972972972972963
2024-11-08,0.06703910614525471
2024-11-11,0.2309468822170936
2024-11-12,0.2538071065989894
2024-11-13,0.411522633744864
2024-11-14,0.680272108843549
2024-11-15,0.42222222222222694
2024-11-18,0.0
2024-11-19,0.0
2024-11-20,0.0
2024-11-21,0.006688963210693372
2024-11-22,0.4454545454545321
2024-11-25,0.6475770925110121
2024-11-26,0.7136150234741726
2024-11-27,0.9459459459459567
2024-11-28,0.9473684210526432
2024-11-29,0.40225563909775564
2024-12-02,0.5772594752186602
2024-12-03,0.6091644204851789
2024-12-04,0.3350125944584439
2024-12-05,0.3383458646616526
2024-12-06,0.4873646209386322
2024-12-09,0.19909502262443998
2024-12-10,0.04660941148450085
2024-12-11,0.24744906703837047
2024-12-12,0.13966804004740954
2024-12-13,0.20444254429111955
2024-12-16,0.25812788902140404
2024-12-17,0.8650065218876611
2024-12-18,0.9237503580286525
2024-12-19,0.9955180950130478
2024-12-20,0.996785496148813
2024-12-23,1.0
2024-12-24,0.8010075566750634
2024-12-25,0.44597989949748634
2024-12-26,0.38287153652392714
2024-12-27,0.07462686567164245
2024-12-30,0.0
2024-12-31,0.0
