date,FCT_Cr_Atr_Dfive
2017-12-22,
2017-12-25,
2017-12-26,
2017-12-27,
2017-12-28,
2017-12-29,
2018-01-02,
2018-01-03,
2018-01-04,
2018-01-05,
2018-01-08,0.3413683877098511
2018-01-09,1.2038479052823314
2018-01-10,0.18222825747643126
2018-01-11,0.22778756172519768
2018-01-12,0.2633875793621836
2018-01-15,0.16253721089993126
2018-01-16,-1.0803426601784267
2018-01-17,0.06267520229030424
2018-01-18,-0.3510598193937526
2018-01-19,-0.15066280033140028
2018-01-22,-0.023106428915957832
2018-01-23,-0.006181363845597226
2018-01-24,-0.25477188081936697
2018-01-25,0.15170690749728657
2018-01-26,-0.052324478178368126
2018-01-29,0.437181152337212
2018-01-30,0.13209562145732343
2018-01-31,0.26168699186991884
2018-02-01,0.09296281487405028
2018-02-02,0.22363523573201
2018-02-05,-0.6279884445212249
2018-02-06,0.10648778953988051
2018-02-07,0.4971271106941835
2018-02-08,0.11798310978638867
2018-02-09,-0.0949480364260709
2018-02-12,0.35312230538845757
2018-02-13,-0.09248117715818051
2018-02-14,-0.6810281065088756
2018-02-22,-0.30902309590834187
2018-02-23,0.2397111502814579
2018-02-26,-0.2007411838577198
2018-02-27,0.1313584826914604
2018-02-28,-0.07853246728215403
2018-03-01,0.08517609758067773
2018-03-02,-0.45917634729871354
2018-03-05,-0.05861560498820349
2018-03-06,-0.10293549244998676
2018-03-07,0.14780229844779127
2018-03-08,-0.02087003327461353
2018-03-09,0.10402684563758384
2018-03-12,0.3561387816589776
2018-03-13,-0.24002703162052136
2018-03-14,-0.01981479136429018
2018-03-15,0.018875125776343742
2018-03-16,0.08641494745036975
2018-03-19,-0.5437382822052551
2018-03-20,0.16558159212165366
2018-03-21,0.1409632343792453
2018-03-22,0.1498664109379357
2018-03-23,0.09976772233885751
2018-03-26,0.28317840864228544
2018-03-27,0.13426169975985486
2018-03-28,-0.1644888671070586
2018-03-29,-0.20214573720390683
2018-03-30,-0.25360590076386014
2018-04-02,0.13504124694275185
2018-04-03,-0.2047543870953886
2018-04-04,0.25391823277643366
2018-04-09,0.055299907778593234
2018-04-10,0.12381420841824188
2018-04-11,-0.25769572164033383
2018-04-12,0.1508385196429604
2018-04-13,-0.31184713366770744
2018-04-16,-0.06457006212702981
2018-04-17,0.019099028416953347
2018-04-18,0.09823519346293638
2018-04-19,-0.0573386745250041
2018-04-20,0.01119665687981905
2018-04-23,0.42204386996283694
2018-04-24,-0.030897592624081597
2018-04-25,-0.016754860938386212
2018-04-26,0.41773681552557096
2018-04-27,0.2390099186249728
2018-05-02,-0.43428404503930373
2018-05-03,0.05201239182753831
2018-05-04,0.1935437880131506
2018-05-07,-0.6235940281598931
2018-05-08,-0.12748155866380514
2018-05-09,0.018253549219759767
2018-05-10,-0.024050107509321253
2018-05-11,-0.32504458553682913
2018-05-14,0.5024691637946663
2018-05-15,0.1873531622172439
2018-05-16,0.2514211773202524
2018-05-17,0.1492006712594956
2018-05-18,0.23710601515719748
2018-05-21,-0.31333651235285365
2018-05-22,-0.3200676236576691
2018-05-23,-0.07091264924532607
2018-05-24,-0.21290273906241264
2018-05-25,-0.10882684590558914
2018-05-28,-0.0014083325555228413
2018-05-29,0.09274720238961466
2018-05-30,-0.36451194045833973
2018-05-31,0.12046576427249452
2018-06-01,-0.004251755643886489
2018-06-04,-0.01660790430657434
2018-06-05,0.14144691738651888
2018-06-06,0.18979856940414347
2018-06-07,-0.18946876996412648
2018-06-08,0.35352182690649675
2018-06-11,0.05234895905444416
2018-06-12,-0.11941850758795818
2018-06-13,0.3308779184974545
2018-06-14,0.17908048962628836
2018-06-15,-0.2955459308572531
2018-06-19,0.12723448904607215
2018-06-20,-0.008307124464347138
2018-06-21,-0.2733480512795771
2018-06-22,0.05980556045036157
2018-06-25,-0.05694095444951923
2018-06-26,-0.19316819948853237
2018-06-27,-0.08312267607749942
2018-06-28,-0.1445182719508272
2018-06-29,-0.1627177937121399
2018-07-02,-0.005870732421164676
2018-07-03,0.05172197581139984
2018-07-04,0.05905410041259339
2018-07-05,0.14798291298593916
2018-07-06,-0.00043443185535773504
2018-07-09,-0.04632858949824822
2018-07-10,-0.12381576606522654
2018-07-11,0.029632371620393373
2018-07-12,-0.053292439814421624
2018-07-13,-0.05305540070094186
2018-07-16,-0.003715243154277917
2018-07-17,0.566405356301733
2018-07-18,-0.055174672831069034
2018-07-19,0.3060375689297541
2018-07-20,0.11903243838508153
2018-07-23,0.13407001201112995
2018-07-24,-0.6444145479238113
2018-07-25,0.17392696416677125
2018-07-26,-0.48864401718830774
2018-07-27,-0.03777258609831543
2018-07-30,-0.05443601915709587
2018-07-31,0.32570306153816975
2018-08-01,-0.2176117679544219
2018-08-02,0.3069985631493508
2018-08-03,0.18338616035227107
2018-08-06,0.27860470742317955
2018-08-07,-0.0048367270589486505
2018-08-08,0.2085593750674382
2018-08-09,-0.0413948037670585
2018-08-10,-0.20864477697302683
2018-08-13,-0.4324314424987242
2018-08-14,-0.19743022934512378
2018-08-15,-0.2741252849638233
2018-08-16,0.0846944849298269
2018-08-17,0.3189128523252514
2018-08-20,0.32595327604726204
2018-08-21,0.09474477920204671
2018-08-22,0.2541724977971289
2018-08-23,-0.011977584738224106
2018-08-24,-0.4073041591168386
2018-08-27,-0.20411521190008453
2018-08-28,-0.07920621785970247
2018-08-29,-0.1294162494599592
2018-08-30,-0.28825658069791016
2018-08-31,0.17223292942559618
2018-09-03,0.01790151086714401
2018-09-04,0.17038003797782603
2018-09-05,0.056817992989055474
2018-09-06,0.10683243516827251
2018-09-07,-0.0552995742526631
2018-09-10,-0.07396313669243922
2018-09-11,-0.2470261285128069
2018-09-12,0.011652238654123518
2018-09-13,0.12284511930871922
2018-09-14,-0.03599481413341481
2018-09-17,0.15834014854480105
2018-09-18,0.22156586966713712
2018-09-19,0.21448591741865033
2018-09-20,-0.13229505068256978
2018-09-21,0.0844733493044357
2018-09-25,0.20468469917865476
2018-09-26,-0.10968438818565285
2018-09-27,-0.350429670777167
2018-09-28,0.23919037311894423
2018-10-08,-0.023585963752381235
2018-10-09,-0.4640237724378844
2018-10-10,0.14491857813547718
2018-10-11,-0.07089690525954237
2018-10-12,-0.21322866351186343
2018-10-15,0.2083500928798742
2018-10-16,0.3137881323394105
2018-10-17,-0.1550556237657942
2018-10-18,0.2435618053439661
2018-10-19,0.08991176876640007
2018-10-22,-0.3541090581373977
2018-10-23,-0.24590786639277207
2018-10-24,0.02103057796862378
2018-10-25,-0.14179083623030955
2018-10-26,0.10374046503078145
2018-10-29,0.1109920237377564
2018-10-30,0.2331602885638439
2018-10-31,-0.04120202009854262
2018-11-01,0.15294905864336467
2018-11-02,-0.35991650893689
2018-11-05,0.05180630205686583
2018-11-06,-0.12815433068404483
2018-11-07,0.07903067044113339
2018-11-08,-0.1032810400082741
2018-11-09,0.1944571546245735
2018-11-12,-0.05396374442202093
2018-11-13,-0.09024391195464915
2018-11-14,0.0647337286631488
2018-11-15,-0.08178841363477751
2018-11-16,0.09498099754364232
2018-11-19,0.0935605665227704
2018-11-20,0.07880791519257527
2018-11-21,0.07810254562924633
2018-11-22,0.21598202415070505
2018-11-23,-0.1485042735042753
2018-11-26,0.10444464707253057
2018-11-27,0.21398536974397542
2018-11-28,-0.28067783107252975
2018-11-29,0.07967649562727487
2018-11-30,0.12074425969912833
2018-12-03,-0.015079241181128966
2018-12-04,-0.18167567489345662
2018-12-05,0.17070326130970942
2018-12-06,-0.3453349008850142
2018-12-07,0.03964386815475172
2018-12-10,-0.41521736558606603
2018-12-11,-0.09658519467176417
2018-12-12,-0.1627261274263987
2018-12-13,0.18542716232698495
2018-12-14,-0.287393475447465
2018-12-17,0.3826759304783445
2018-12-18,-0.042850535218710656
2018-12-19,0.5347691922571488
2018-12-20,-0.11996182501077057
2018-12-21,0.4529586071261835
2018-12-24,-0.19268887805188417
2018-12-25,0.3590430634509714
2018-12-26,-0.602323691894848
2018-12-27,0.19672647582522151
2018-12-28,-0.36734317343173983
2019-01-02,0.3409193623704397
2019-01-03,-0.23784017134457047
2019-01-04,0.2110443948524811
2019-01-07,-0.12150706436419884
2019-01-08,0.07988629071073572
2019-01-09,-0.4044734803144321
2019-01-10,-0.0868785664197371
2019-01-11,-0.0653700435239575
2019-01-14,0.031937682570591444
2019-01-15,0.04004768449108605
2019-01-16,0.05466329507665345
2019-01-17,0.04397842013560524
2019-01-18,0.03248633410332902
2019-01-21,-0.006279094583239154
2019-01-22,0.08049548671991648
2019-01-23,0.05186992987762404
2019-01-24,0.04020848845867643
2019-01-25,0.09658947754186001
2019-01-28,-0.18844081091376005
2019-01-29,-0.07570621468926415
2019-01-30,0.030701754385967357
2019-01-31,0.0747518150837156
2019-02-01,-0.27894338295944515
2019-02-11,0.561524936379368
2019-02-12,-0.12459720730397192
2019-02-13,0.0945830834755564
2019-02-14,-0.07349320353098465
2019-02-15,0.26447528235770557
2019-02-18,-0.540685684275242
2019-02-19,0.16807546817353375
2019-02-20,-0.16064898351978174
2019-02-21,0.08224286291568768
2019-02-22,-0.03276546436232357
2019-02-25,0.05048484911205561
2019-02-26,-0.06363955119213852
2019-02-27,0.3125050431695255
2019-02-28,-0.06734937827082454
2019-03-01,-0.16013437849943357
2019-03-04,0.20455847313544828
2019-03-05,0.10802256199887103
2019-03-06,-0.31475286046860884
2019-03-07,-0.05096051497794862
2019-03-08,0.18375765759831253
2019-03-11,-0.10346286247739034
2019-03-12,-0.20578034682080068
2019-03-13,-0.11802368579756796
2019-03-14,0.3170564881864031
2019-03-15,-0.11662925195951773
2019-03-18,-0.009239249585020133
2019-03-19,0.13728283724685367
2019-03-20,0.1533580755818119
2019-03-21,-0.4785062623870545
2019-03-22,0.08323966661717958
2019-03-25,-0.16138046701171138
2019-03-26,-0.08788624604238186
2019-03-27,0.1989113991172707
2019-03-28,0.20190758144927778
2019-03-29,0.34855185714760845
2019-04-01,0.1793037005959196
2019-04-02,0.1300158953602356
2019-04-03,-0.15540229885057674
2019-04-04,0.15544961903596072
2019-04-08,-0.6298235908783556
2019-04-09,0.1164179811472657
2019-04-10,-0.0730207889418156
2019-04-11,-0.05362219764752757
2019-04-12,-0.15618953988870302
2019-04-15,0.3238380666952072
2019-04-16,0.48810596247324994
2019-04-17,0.11609951553382433
2019-04-18,0.11781826018026438
2019-04-19,0.2668233655329603
2019-04-22,0.001594678622798884
2019-04-23,-0.8328379085476075
2019-04-24,-0.09999023652309191
2019-04-25,-0.09479882272618473
2019-04-26,-0.29495264738997307
2019-04-29,-0.18929357584550305
2019-04-30,0.22120464561224779
2019-05-06,0.03731753985166686
2019-05-07,0.017042623371781234
2019-05-08,-0.1149359886202034
2019-05-09,0.32825476992143754
2019-05-10,-0.0025031056707917375
2019-05-13,0.16643389199255
2019-05-14,0.14931097108195718
2019-05-15,0.6490490490490495
2019-05-16,-0.1632775119617239
2019-05-17,0.05167556742322756
2019-05-20,-0.24122807017544087
2019-05-21,-0.19507141515722554
2019-05-22,-0.6174291938997798
2019-05-23,-0.16609602675372395
2019-05-24,0.1461262798634809
2019-05-27,0.21412682853264975
2019-05-28,0.1769082515855458
2019-05-29,0.004198252375103628
2019-05-30,0.20426046770685288
2019-05-31,-0.33878876561034454
2019-06-03,-0.2514662054029176
2019-06-04,-0.21447181854274008
2019-06-05,0.12304003803211147
2019-06-06,0.0425905615691521
2019-06-10,0.21038271125778796
2019-06-11,-0.11411601891362051
2019-06-12,0.05315552436099842
2019-06-13,0.12620730873973904
2019-06-14,-0.2899675194424191
2019-06-17,-0.15061260219253808
2019-06-18,0.2679292870016075
2019-06-19,0.04274858719549181
2019-06-20,-0.14640484246487867
2019-06-21,0.1742553565774209
2019-06-24,0.06778268746771984
2019-06-25,-0.16100452750994135
2019-06-26,-0.08542699274597697
2019-06-27,0.03220728576922846
2019-06-28,-0.07359547123622948
2019-07-01,0.050307134045488006
2019-07-02,0.08531714314560426
2019-07-03,0.2084065661877926
2019-07-04,-0.06381620304887448
2019-07-05,-0.07290682487634191
2019-07-08,0.19162073698658574
2019-07-09,0.06750505538554749
2019-07-10,-0.14504445380023642
2019-07-11,0.07084451151352346
2019-07-12,0.2552219295525276
2019-07-15,-0.36620762076207686
2019-07-16,-0.036824019225171534
2019-07-17,0.06859545614954457
2019-07-18,-0.07834983991108273
2019-07-19,-0.18137035536214186
2019-07-22,0.21660608889375088
2019-07-23,0.06713346136810389
2019-07-24,-0.12128774703184633
2019-07-25,0.02434513225965481
2019-07-26,0.03404385802733626
2019-07-29,-0.14413113002759909
2019-07-30,-0.28371673874394465
2019-07-31,-0.04188194466897342
2019-08-01,0.17997449096152351
2019-08-02,0.0992152735730242
2019-08-05,0.27449059248992386
2019-08-06,0.30264533001626487
2019-08-07,0.23244823117434776
2019-08-08,-0.17261990557899995
2019-08-09,0.016344276769300406
2019-08-12,-0.23481054464660922
2019-08-13,-0.20033508591275773
2019-08-14,-0.15965835965836234
2019-08-15,0.03802651360927035
2019-08-16,-0.2861164667542562
2019-08-19,-0.17513398881819991
2019-08-20,-0.07702221645841562
2019-08-21,0.026772854359060426
2019-08-22,-0.04456217269515769
2019-08-23,0.22465685755619402
2019-08-26,0.3325690631072044
2019-08-27,0.32675953343070835
2019-08-28,-0.050644290138148564
2019-08-29,0.02599592366128728
2019-08-30,-0.008101532793376397
2019-09-02,-0.031249548103479394
2019-09-03,-0.17521356045984535
2019-09-04,0.16094554811821857
2019-09-05,0.21428611189971286
2019-09-06,-0.035818651232731716
2019-09-09,0.04463586257064574
2019-09-10,-0.0926978333099364
2019-09-11,-0.06615540050733576
2019-09-12,-0.21614829695917773
2019-09-16,0.05405160539438267
2019-09-17,-0.3933794763500344
2019-09-18,0.09110000462695934
2019-09-19,-0.015163706001410097
2019-09-20,-0.11384739654736689
2019-09-23,0.06028674014817777
2019-09-24,0.28006327795103897
2019-09-25,0.023901059834590153
2019-09-26,-0.0727648055988024
2019-09-27,0.2032163550048759
2019-09-30,-0.1775333251748386
2019-10-08,0.3936481607961751
2019-10-09,0.03428449484787883
2019-10-10,-0.005204001772701847
2019-10-11,-0.08288331643995389
2019-10-14,0.0650981102821986
2019-10-15,-0.6412403474903472
2019-10-16,-0.1862952967430622
2019-10-17,0.16588515393109965
2019-10-18,0.0397497239602473
2019-10-21,0.028640011538422376
2019-10-22,0.1195817025440292
2019-10-23,0.36116393955063497
2019-10-24,-0.20777192941713263
2019-10-25,-0.04942660993471487
2019-10-28,-0.1471489445823385
2019-10-29,0.23787486116253576
2019-10-30,-0.44694656488549844
2019-10-31,0.135327509956213
2019-11-01,-0.04141377594093208
2019-11-04,0.30503144654088377
2019-11-05,-0.16050229134341287
2019-11-06,0.2618721461187248
2019-11-07,0.013956666016006355
2019-11-08,0.03701263467947491
2019-11-11,-0.18539496369685357
2019-11-12,0.011099970734862033
2019-11-13,-0.07546863734679451
2019-11-14,0.02332789762613259
2019-11-15,0.09865081485439846
2019-11-18,0.06334330949715632
2019-11-19,-0.01600187282254922
2019-11-20,0.2395117128080338
2019-11-21,-0.15810959110237094
2019-11-22,-0.14263932758428075
2019-11-25,-0.1470434236713094
2019-11-26,-0.0268737988468928
2019-11-27,-0.35681113725848784
2019-11-28,0.04099668716624149
2019-11-29,0.058940665839933744
2019-12-02,0.06186547164985738
2019-12-03,0.08421561518008189
2019-12-04,0.13108811776529178
2019-12-05,0.05796369793325368
2019-12-06,0.07438187848634979
2019-12-09,0.0576377734912344
2019-12-10,-0.002793547111583857
2019-12-11,-0.03685886875343257
2019-12-12,0.04315788645889547
2019-12-13,-0.08827827184039481
2019-12-16,-0.14850795251322105
2019-12-17,-0.06760676725146499
2019-12-18,0.2514562423565096
2019-12-19,-0.11452955913056338
2019-12-20,0.05821920791089817
2019-12-23,0.20553286629853695
2019-12-24,0.10114526054645406
2019-12-25,-0.42943461565222796
2019-12-26,0.2521471094887781
2019-12-27,-0.0021425372070876005
2019-12-30,0.035970196153609676
2019-12-31,-0.11781770422063229
2020-01-02,0.2738648981184108
2020-01-03,-0.1649753479373394
2020-01-06,-0.049384280243426094
2020-01-07,-0.31296812507574495
2020-01-08,0.12688963210702534
2020-01-09,0.1173214166611086
2020-01-10,-0.08395844824416031
2020-01-13,0.08599949004639067
2020-01-14,0.1797951176983381
2020-01-15,-0.058726366800902055
2020-01-16,-0.305623596004718
2020-01-17,0.06442722343196067
2020-01-20,-0.21342871107167022
2020-01-21,0.16834677419355476
2020-01-22,0.0013756854092987752
2020-01-23,0.20086709809047038
2020-02-03,0.07875551154181773
2020-02-04,0.2959280844916551
2020-02-05,-0.2124700956937822
2020-02-06,-0.11853768328829721
2020-02-07,0.010315744671318516
2020-02-10,-0.24795847199250937
2020-02-11,-0.3907605703015869
2020-02-12,0.09613606208033085
2020-02-13,0.21404923762338163
2020-02-14,-0.17877937593131116
2020-02-17,0.373193123477355
2020-02-18,0.26808658629693677
2020-02-19,-0.13941845394874075
2020-02-20,0.213549863273622
2020-02-21,0.11334552102377518
2020-02-24,-0.19354950181420394
2020-02-25,0.03730319935600889
2020-02-26,0.30853474562670535
2020-02-27,-0.30792800973287776
2020-02-28,0.10242872228088107
2020-03-02,-0.08189387615317278
2020-03-03,0.06556251125923415
2020-03-04,-0.3468382417453859
2020-03-05,-0.24095627026317581
2020-03-06,-0.2704615091661291
2020-03-09,0.23097974822113004
2020-03-10,-0.3540666127915021
2020-03-11,0.09424881489683837
2020-03-12,0.5452744240058963
2020-03-13,0.37726799612045364
2020-03-16,-0.11333968201716135
2020-03-17,0.22394366197182874
2020-03-18,0.25670909622167304
2020-03-19,-0.2542428487825692
2020-03-20,-0.26386075989600166
2020-03-23,-0.153158343101553
2020-03-24,0.0932642487046614
2020-03-25,-0.2975121170111015
2020-03-26,-0.1994640196590614
2020-03-27,0.04741401219925459
2020-03-30,0.15513179540064148
2020-03-31,-0.06800592493887467
2020-04-01,0.11571517277615131
2020-04-02,0.11374350051591434
2020-04-03,0.035051182114098675
2020-04-07,-0.13681961390245073
2020-04-08,-0.06540000027110045
2020-04-09,-0.1309859795126564
2020-04-10,-0.02147523183995059
2020-04-13,-0.11809752330871957
2020-04-14,0.13115909265404654
2020-04-15,-0.03793640157276104
2020-04-16,0.2706407682969325
2020-04-17,0.007505111075646741
2020-04-20,0.12354297372273038
2020-04-21,0.05069880417977723
2020-04-22,0.4587340154954657
2020-04-23,-0.22824712887969884
2020-04-24,0.27162223207910674
2020-04-27,0.0567399165286071
2020-04-28,-0.07054898802846304
2020-04-29,-0.5968721536336065
2020-04-30,0.1376971270076706
2020-05-06,-0.21805159614859068
2020-05-07,-0.156211118065691
2020-05-08,-0.14195116992946066
2020-05-11,0.34912760862127945
2020-05-12,-0.20266647402555238
2020-05-13,-0.19521636283619798
2020-05-14,0.04676863174236179
2020-05-15,0.04565572346708596
2020-05-18,-0.10637211427342795
2020-05-19,0.13151383938113878
2020-05-20,0.1559985393273029
2020-05-21,0.01416537488781172
2020-05-22,0.11484521208192497
2020-05-25,-0.18077314909937986
2020-05-26,-0.00573145013083387
2020-05-27,-0.08229819711070084
2020-05-28,-0.0013968353298715519
2020-05-29,-0.1626456547767986
2020-06-01,0.29946836415987554
2020-06-02,0.08493158018210403
2020-06-03,0.22946117657911136
2020-06-04,-0.05281052328924993
2020-06-05,0.15765591100032544
2020-06-08,-0.23343735978529695
2020-06-09,-0.17919650373220147
2020-06-10,0.007746333402190719
2020-06-11,0.01710651828299181
2020-06-12,0.1380609449574946
2020-06-15,0.09964927658276246
2020-06-16,0.07628594602934034
2020-06-17,-0.298377604050993
2020-06-18,0.05113587718650636
2020-06-19,-0.18929614825137142
2020-06-22,-0.12436987297579767
2020-06-23,0.045520689635096055
2020-06-24,0.1721736814522651
2020-06-29,0.07318427710472018
2020-06-30,-0.18068747173224808
2020-07-01,0.06152159382732244
2020-07-02,0.057552553284884456
2020-07-03,-0.05841386887137584
2020-07-06,-0.13619368839386875
2020-07-07,0.21637538964689304
2020-07-08,0.01691911053819114
2020-07-09,-0.2128196106028615
2020-07-10,0.47954136098052735
2020-07-13,0.14141993576957324
2020-07-14,-0.03074084874919404
2020-07-15,0.07599219258295059
2020-07-16,0.2654540076900338
2020-07-17,-0.6538141470180238
2020-07-20,-0.0501564234534257
2020-07-21,0.09238373712058033
2020-07-22,0.02896444210091894
2020-07-23,-0.0811454374969168
2020-07-24,0.3955949831752807
2020-07-27,-0.10492694529391663
2020-07-28,-0.13586843311252983
2020-07-29,-0.0818375124268189
2020-07-30,-0.21271899392373744
2020-07-31,-0.3285525311759848
2020-08-03,0.08259579060982117
2020-08-04,-0.0005819924683334587
2020-08-05,0.049415386744153474
2020-08-06,0.16135773755351307
2020-08-07,0.3141452556418982
2020-08-10,0.30055262962688195
2020-08-11,0.14849722789612288
2020-08-12,-0.04676255177424539
2020-08-13,0.02107932319395321
2020-08-14,-0.15005655210730873
2020-08-17,-0.5527053204904618
2020-08-18,-0.1575907837967434
2020-08-19,-0.03270931694946683
2020-08-20,-0.027407841350430447
2020-08-21,-0.16142672203634792
2020-08-24,0.2667293853774028
2020-08-25,-0.044076089717537154
2020-08-26,0.011356827203954787
2020-08-27,-0.09056048979920593
2020-08-28,0.31450205768569883
2020-08-31,-0.07881818058193152
2020-09-01,0.14496967394275867
2020-09-02,0.1283472224964935
2020-09-03,0.12360271763310005
2020-09-04,-0.20776126288615937
2020-09-07,0.10597554582804483
2020-09-08,0.26972468876891126
2020-09-09,0.037273941426897494
2020-09-10,-0.07316058310376561
2020-09-11,0.13037047508351154
2020-09-14,-0.07679392441376079
2020-09-15,-0.4094529210132301
2020-09-16,-0.3532756809483172
2020-09-17,0.1952307549750163
2020-09-18,-0.23099064847401318
2020-09-21,0.03905552606872993
2020-09-22,0.06614339205295655
2020-09-23,0.33606100343043654
2020-09-24,-0.17027994820602593
2020-09-25,0.20633694172487543
2020-09-28,0.007748100179253516
2020-09-29,-0.006067991166804905
2020-09-30,-0.1378704306208421
2020-10-09,0.11227912548667253
2020-10-12,0.11228169123454013
2020-10-13,0.006256815578656993
2020-10-14,-0.03320472046121611
2020-10-15,0.050989820388584614
2020-10-16,-0.21911904749559946
2020-10-19,-0.31193967502489783
2020-10-20,-0.09849593320996848
2020-10-21,0.21090238979402703
2020-10-22,-0.10957152645230564
2020-10-23,0.20092072043755188
2020-10-26,0.1367890652148704
2020-10-27,0.06891122186319132
2020-10-28,-0.2447158747784044
2020-10-29,0.12203957725644256
2020-10-30,-0.2397434045563488
2020-11-02,0.04743624525230634
2020-11-03,-0.09310907390775203
2020-11-04,0.08319848819334219
2020-11-05,-0.015521544929058589
2020-11-06,0.1486925105388441
2020-11-09,-0.031184394039491276
2020-11-10,0.2700427273908244
2020-11-11,0.20142348987144904
2020-11-12,-0.0671379886250793
2020-11-13,0.025164376055886582
2020-11-16,-0.04461337862207038
2020-11-17,-0.18216956656691619
2020-11-18,-0.3577723402562274
2020-11-19,-0.0036875547261712993
2020-11-20,-0.015495867768594884
2020-11-23,0.004082830944853795
2020-11-24,0.04933638712708856
2020-11-25,0.19043631704356537
2020-11-26,0.04110926289967614
2020-11-27,-0.05759162303664866
2020-11-30,0.13077926920208893
2020-12-01,-0.1965893108298198
2020-12-02,0.2101135215359355
2020-12-03,0.051124929518182004
2020-12-04,0.10967495636998228
2020-12-07,-0.13242574257425827
2020-12-08,0.1391048309109023
2020-12-09,-0.29613095238095255
2020-12-10,-0.0485770451866169
2020-12-11,-0.10288878562577466
2020-12-14,0.013010308863783265
2020-12-15,0.06099657011324883
2020-12-16,0.013297105085177174
2020-12-17,-0.01412649722633536
2020-12-18,0.10891854326743959
2020-12-21,0.11341496739025361
2020-12-22,-0.044568830847746675
2020-12-23,0.08490678648309004
2020-12-24,-0.032465671485648585
2020-12-25,0.03571113705350463
2020-12-28,-0.2019709415697535
2020-12-29,0.058547583144255205
2020-12-30,-0.13113311830483315
2020-12-31,0.03766901553621751
2021-01-04,-0.0654371312543098
2021-01-05,0.16595621201655977
2021-01-06,-0.24307216102697665
2021-01-07,0.24183970844010033
2021-01-08,0.035672280269637306
2021-01-11,0.035969338869371814
2021-01-12,-0.16218377053485475
2021-01-13,0.2864320129805797
2021-01-14,-0.17743490674969772
2021-01-15,0.001385943110927268
2021-01-18,-0.013226828033577373
2021-01-19,0.16466905187835534
2021-01-20,-0.13908895944741598
2021-01-21,0.09734813996259187
2021-01-22,-0.10870770653876544
2021-01-25,-0.3289073853877662
2021-01-26,0.006671899529041604
2021-01-27,-0.036830564888868954
2021-01-28,-0.17290147260178124
2021-01-29,0.06323176265400922
2021-02-01,0.37777777777777954
2021-02-02,-0.16519065350234122
2021-02-03,0.06233190178726466
2021-02-04,-0.03421640656075213
2021-02-05,0.13783930932566021
2021-02-08,-0.1891472868217076
2021-02-09,0.03486899947247922
2021-02-10,0.07612974005091941
2021-02-18,0.41568018248318517
2021-02-19,0.12027767628790574
2021-02-22,0.15274674554971823
2021-02-23,0.1893671160197083
2021-02-24,0.04037024329462738
2021-02-25,-0.3515843581234934
2021-02-26,-0.37022193492781685
2021-03-01,0.1985488788678964
2021-03-02,-0.18116042908961522
2021-03-03,-0.2582971054201838
2021-03-04,0.16381102228597977
2021-03-05,0.12703553756185154
2021-03-08,-0.40968932120246565
2021-03-09,0.015168342296001572
2021-03-10,0.2563505654031884
2021-03-11,-0.19461360644318215
2021-03-12,-0.019328213163459153
2021-03-15,-0.02585214045921369
2021-03-16,0.002799415774097834
2021-03-17,-0.06949071484732863
2021-03-18,0.2577338432982762
2021-03-19,0.023672406981338098
2021-03-22,0.3695956557113411
2021-03-23,0.104597816623135
2021-03-24,-0.11656665613924305
2021-03-25,-0.19648604365381592
2021-03-26,-0.0772486772486768
2021-03-29,-0.15992571322589363
2021-03-30,0.02459778160243943
2021-03-31,0.23338528195969116
2021-04-01,0.09990347990499313
2021-04-02,0.10736374404350053
2021-04-06,-0.1256139942121838
2021-04-07,-0.18223960063666442
2021-04-08,-0.13659920655885308
2021-04-09,-0.044721784077267894
2021-04-12,0.04652788989374382
2021-04-13,0.1790943035644192
2021-04-14,0.09864095770778142
2021-04-15,-0.13055742259264166
2021-04-16,-0.08125677139761533
2021-04-19,-0.13406284288203782
2021-04-20,-0.3528493970985943
2021-04-21,0.18877149490418169
2021-04-22,0.1362857314403926
2021-04-23,0.16136726863518683
2021-04-26,0.09516599913139945
2021-04-27,0.2852052914397041
2021-04-28,-0.37968160223870606
2021-04-29,-0.06826861206515011
2021-04-30,-0.16485625994943637
2021-05-06,-0.010617685809502772
2021-05-07,0.09553403671050792
2021-05-10,0.28743533513270186
2021-05-11,0.0016588030014980104
2021-05-12,0.07091450406733012
2021-05-13,-0.10323430660036484
2021-05-14,-0.22354721010945922
2021-05-17,-0.12941193932377307
2021-05-18,0.009809710529348599
2021-05-19,0.12873251537703062
2021-05-20,0.27582982702197173
2021-05-21,0.25181715262461724
2021-05-24,0.35768023467273824
2021-05-25,0.11471084475321713
2021-05-26,0.043931806476581334
2021-05-27,-0.2133880612141466
2021-05-28,-0.14874385646236207
2021-05-31,-0.5247959954165211
2021-06-01,-0.10979172120153602
2021-06-02,-0.3250480586923645
2021-06-03,-0.16069142125480146
2021-06-04,0.05380724728053722
2021-06-07,0.15065618047254972
2021-06-08,0.010780542869985667
2021-06-09,0.1556469637791944
2021-06-10,0.31937852854003856
2021-06-11,-0.23237574099407196
2021-06-15,0.16569142921754598
2021-06-16,-0.06920544517785852
2021-06-17,-0.03507512182287706
2021-06-18,-0.2583425243319594
2021-06-21,0.4615256419968198
2021-06-22,-0.24556876012028486
2021-06-23,0.07174771729345542
2021-06-24,0.12652550646814592
2021-06-25,0.08429458740017794
2021-06-28,-0.5091805724892202
2021-06-29,0.1342792344285869
2021-06-30,0.023815097460866637
2021-07-01,-0.24754901960784195
2021-07-02,-0.06989434071500891
2021-07-05,0.28787380874137675
2021-07-06,-0.07086956521739157
2021-07-07,0.09799435674521575
2021-07-08,0.2967306325515283
2021-07-09,0.05612203934163052
2021-07-12,0.08263030162949009
2021-07-13,0.09786574870912271
2021-07-14,-0.16513178786916666
2021-07-15,-0.21442248961069543
2021-07-16,0.1471082461159582
2021-07-19,-0.15185244455945432
2021-07-20,0.10574195707021267
2021-07-21,0.034945232997850156
2021-07-22,0.04992972873365878
2021-07-23,-0.0005163987718410784
2021-07-26,-0.16236858999571224
2021-07-27,-0.2887404491421672
2021-07-28,0.017298723204577093
2021-07-29,0.04274480330818474
2021-07-30,-0.17501044294808624
2021-08-02,0.21480260174399599
2021-08-03,0.10266989835221715
2021-08-04,0.283519944177417
2021-08-05,0.028079138997681212
2021-08-06,-0.06908250870599664
2021-08-09,0.12075529944433358
2021-08-10,0.04246284501061509
2021-08-11,-0.5143791574279362
2021-08-12,0.03114297904796482
2021-08-13,0.23100129683980758
2021-08-16,-0.21876084692815168
2021-08-17,0.2213438735177875
2021-08-18,0.3061974110032364
2021-08-19,-0.05998525627102068
2021-08-20,-0.15534681638772543
2021-08-23,0.06555481379047254
2021-08-24,-0.42071096212538295
2021-08-25,-0.059339703493355225
2021-08-26,-0.1403653700906337
2021-08-27,0.1177755716736227
2021-08-30,-0.18448573194158047
2021-08-31,0.20187735006016938
2021-09-01,0.19696887307548647
2021-09-02,0.15278385747074444
2021-09-03,-0.030621338842282728
2021-09-06,0.41279580424694345
2021-09-07,0.03320402426171105
2021-09-08,-0.2285310140829052
2021-09-09,0.18438375140697605
2021-09-10,0.017430470644460315
2021-09-13,-0.2965614035087711
2021-09-14,-0.06121003642249924
2021-09-15,-0.06895835720013724
2021-09-16,-0.2984539924502896
2021-09-17,-0.1135379733197511
2021-09-22,0.1685151515151521
2021-09-23,0.31559813978671203
2021-09-24,0.5066522086870934
2021-09-27,0.1892481373039107
2021-09-28,0.16497108717038117
2021-09-29,-0.08105471052941843
2021-09-30,-0.34229603506942086
2021-10-08,-0.5121634004315568
2021-10-11,0.32247189164310724
2021-10-12,-0.08709050348179848
2021-10-13,0.22968864394126653
2021-10-14,0.07474266559876602
2021-10-15,0.050549821368312896
2021-10-18,-0.4241374361012673
2021-10-19,0.10152277896970802
2021-10-20,-0.3508391061584225
2021-10-21,-0.03006781660032354
2021-10-22,0.1299877974374613
2021-10-25,-0.09529681945449356
2021-10-26,-0.13589594131865954
2021-10-27,0.006718390025749241
2021-10-28,0.350159867382242
2021-10-29,-0.12752481487316725
2021-11-01,-0.006185082317559376
2021-11-02,0.12569930840051227
2021-11-03,0.08333308809825055
2021-11-04,-0.4230477247335691
2021-11-05,0.057241580519581566
2021-11-08,0.13173706490243117
2021-11-09,-0.2867068998428859
2021-11-10,0.005874513759813022
2021-11-11,-0.1798185975826891
2021-11-12,-0.034509889189537124
2021-11-15,-0.12659601526070394
2021-11-16,0.27800459794367316
2021-11-17,-0.00023040582211689012
2021-11-18,0.40082425359038987
2021-11-19,-0.07493302193794583
2021-11-22,0.11412021606711946
2021-11-23,-0.12985914004414234
2021-11-24,-0.10275894787363163
2021-11-25,-0.23811510101991784
2021-11-26,0.20039614826116342
2021-11-29,0.06792661371451665
2021-11-30,0.06452127471823363
2021-12-01,0.08359989983492172
2021-12-02,0.08397972033741233
2021-12-03,-0.13276262713686915
2021-12-06,-0.15489391227660512
2021-12-07,-0.15236307492280216
2021-12-08,0.042021023237548694
2021-12-09,-0.03433596140691977
2021-12-10,0.11623178128922773
2021-12-13,0.0654583237127676
2021-12-14,0.136935817805383
2021-12-15,-0.10517523233680437
2021-12-16,0.015576846396688868
2021-12-17,0.11928220147199013
2021-12-20,0.12541193331302564
2021-12-21,0.10373224853385284
2021-12-22,0.11882276201438982
2021-12-23,0.13501658246421738
2021-12-24,-0.4639490910049696
2021-12-27,-0.27893774383249015
2021-12-28,-0.17437443909605355
2021-12-29,-0.07356810799261229
2021-12-30,-0.2728410448148728
2021-12-31,0.23182506864162034
2022-01-04,0.35732009925558295
2022-01-05,0.11425334830379266
2022-01-06,0.11286408997931915
2022-01-07,0.6924192626233051
2022-01-10,0.019734860928603916
2022-01-11,-0.26534995367640773
2022-01-12,-0.11059318812483312
2022-01-13,-0.09556229547449896
2022-01-14,-0.8857287447870543
2022-01-17,0.25290214044497267
2022-01-18,0.20716858278554418
2022-01-19,0.05346710738414346
2022-01-20,0.11253932697390076
2022-01-21,0.32573713085094147
2022-01-24,-0.35101739823873795
2022-01-25,-0.2393670162059101
2022-01-26,-0.09500819639358597
2022-01-27,-0.0884121654248179
2022-01-28,0.1458890290037825
2022-02-07,0.36995019369119936
2022-02-08,0.1747070707070696
2022-02-09,0.15581012279125286
2022-02-10,-0.11691254780461896
2022-02-11,-0.11667783156590936
2022-02-14,-0.42863978944849773
2022-02-15,-0.20114185331576503
2022-02-16,-0.06298675230830916
2022-02-17,0.040680812763254595
2022-02-18,0.026871914852132438
2022-02-21,0.10297561163985236
2022-02-22,0.3206261701685035
2022-02-23,-0.03281300117609092
2022-02-24,0.1752170446094984
2022-02-25,-0.031623318775392616
2022-02-28,0.15221884919090442
2022-03-01,-0.23826831063673048
2022-03-02,0.05664317916487528
2022-03-03,0.03680724438469758
2022-03-04,-0.07990087177337052
2022-03-07,-0.0862118984024089
2022-03-08,0.3437665782493343
2022-03-09,0.18348427112716958
2022-03-10,-0.15292008760263046
2022-03-11,0.20946448214793165
2022-03-14,-0.010074544214626426
2022-03-15,-0.3864164722150187
2022-03-16,-0.32882562695263895
2022-03-17,-0.0013276087283870565
2022-03-18,-0.20387103229910347
2022-03-21,-0.086333731889549
2022-03-22,-0.009733305656779781
2022-03-23,0.29839714036230647
2022-03-24,-0.0453356819205115
2022-03-25,0.15775598548494968
2022-03-28,0.2050755413917551
2022-03-29,0.10046012269938484
2022-03-30,-0.2221706106537092
2022-03-31,0.12779765023937925
2022-04-01,0.037868854936627255
2022-04-06,-0.16483603340699293
2022-04-07,0.11566510307518385
2022-04-08,0.10992626961717598
2022-04-11,-0.11587820650358878
2022-04-12,-0.23656591697756862
2022-04-13,0.17150444885723326
2022-04-14,-0.19507117150642922
2022-04-15,-0.16344798357914694
2022-04-18,0.08491448055876605
2022-04-19,0.09534848253774549
2022-04-20,-0.28223009522257897
2022-04-21,-0.04351444912882513
2022-04-22,0.19370356631398994
2022-04-25,0.00861841366564553
2022-04-26,0.4178188769839495
2022-04-27,0.18197110545202047
2022-04-28,0.19899333940662634
2022-04-29,-0.11691301704131297
2022-05-05,-0.06740559063347301
2022-05-06,-0.5759466381870904
2022-05-09,0.015287119993618318
2022-05-10,-0.07757884594294126
2022-05-11,0.08118913844877983
2022-05-12,-0.06649239475972306
2022-05-13,0.1779582568948284
2022-05-16,-0.14858128655770306
2022-05-17,-0.01984628907087234
2022-05-18,-0.14097216508981023
2022-05-19,0.09649132830733621
2022-05-20,-0.017239837492386435
2022-05-23,0.23770897403661467
2022-05-24,0.044754653401282
2022-05-25,0.007267130406970204
2022-05-26,0.07894498323212439
2022-05-27,0.009489240342232839
2022-05-30,-0.2249431768511266
2022-05-31,-0.10070660187921776
2022-06-01,0.09702639561587743
2022-06-02,-0.2515856236786502
2022-06-06,0.10417605727164549
2022-06-07,0.0202967408518792
2022-06-08,0.14145520504142545
2022-06-09,-0.07048523029966228
2022-06-10,0.2706765327695627
2022-06-13,-0.16420450677377796
2022-06-14,0.1417578659370739
2022-06-15,-0.03771416178703675
2022-06-16,0.155157397038701
2022-06-17,-0.17408952187182075
2022-06-20,0.4006462984723828
2022-06-21,-0.0917118906870831
2022-06-22,-0.09406146461849355
2022-06-23,-0.0382272109354652
2022-06-24,0.09565948774212268
2022-06-27,-0.46265868306541175
2022-06-28,0.04194468650811667
2022-06-29,0.08851737056865643
2022-06-30,-0.1816264310864617
2022-07-01,0.07085875641058648
2022-07-04,0.2072697108848357
2022-07-05,-0.04791241672430295
2022-07-06,0.16683965444807858
2022-07-07,0.14489136368598615
2022-07-08,-0.17718081991628698
2022-07-11,-0.10869396986035401
2022-07-12,0.0375428397024343
2022-07-13,-0.27692616705031897
2022-07-14,-0.060661520914561215
2022-07-15,0.06499600007441951
2022-07-18,0.09279358671858975
2022-07-19,0.023095648958462736
2022-07-20,0.023440400385349516
2022-07-21,0.07003054050620766
2022-07-22,0.07868905317948498
2022-07-25,-0.22142073839404786
2022-07-26,0.06060825139773008
2022-07-27,-0.012677947891483687
2022-07-28,-0.04795657328258257
2022-07-29,-0.10341571423919814
2022-08-01,0.24792166203936813
2022-08-02,-0.1624331016854435
2022-08-03,0.05155567266099891
2022-08-04,0.1474034718311541
2022-08-05,-0.01318458417850251
2022-08-08,-0.16849350562908239
2022-08-09,0.09736636270565913
2022-08-10,0.07045368153939327
2022-08-11,-0.35331883306566186
2022-08-12,0.10814554251789907
2022-08-15,0.4067140673949057
2022-08-16,-0.09538392147088298
2022-08-17,-0.04140406860789226
2022-08-18,0.2208505160782763
2022-08-19,-0.03342192266242647
2022-08-22,-0.6090985065949646
2022-08-23,0.13507832819210486
2022-08-24,0.003451966000116349
2022-08-25,0.20062800540024625
2022-08-26,-0.13752139333535185
2022-08-29,0.33270246630440303
2022-08-30,-0.031584372239128376
2022-08-31,-0.03737191078962709
2022-09-01,-0.3793419695059125
2022-09-02,0.20234873036788736
2022-09-05,0.32525002520877644
2022-09-06,-0.161807439510105
2022-09-07,0.12074990318852595
2022-09-08,0.17728673151635682
2022-09-09,-0.21805611087533655
2022-09-13,-0.6258606289527914
2022-09-14,0.27523904165915847
2022-09-15,-0.2473616427034941
2022-09-16,0.35291657177771113
2022-09-19,0.17507854569257164
2022-09-20,0.19897862170784275
2022-09-21,-0.1068484086548025
2022-09-22,0.25305474095796715
2022-09-23,-0.3928742228598756
2022-09-26,0.0495333268442483
2022-09-27,0.09016728686848996
2022-09-28,-0.06389033460369142
2022-09-29,-0.1690139095876816
2022-09-30,-0.008009815496443078
2022-10-10,0.16426198732281144
2022-10-11,0.03374464411160071
2022-10-12,-0.02737965145805657
2022-10-13,0.11146258993958744
2022-10-14,-0.0027273728756049345
2022-10-17,-0.44623310910486025
2022-10-18,-0.1913235404591016
2022-10-19,0.14013520143924052
2022-10-20,-0.0500156629188893
2022-10-21,0.02648481728019808
2022-10-24,0.13279743361519525
2022-10-25,0.1465069819346435
2022-10-26,0.12119605123603064
2022-10-27,-0.016946500891453945
2022-10-28,0.24569027958858555
2022-10-31,0.020753654776320563
2022-11-01,0.04276481385659953
2022-11-02,-0.38962002459896017
2022-11-03,0.18401674391106404
2022-11-04,-0.34983937077655936
2022-11-07,0.024266371925949187
2022-11-08,-0.13613985629319136
2022-11-09,0.3225107766235592
2022-11-10,-0.22195979299112747
2022-11-11,0.04203684374776963
2022-11-14,-0.06608058608058806
2022-11-15,0.1400838254905723
2022-11-16,-0.3298220973782741
2022-11-17,-0.009163514081544463
2022-11-18,0.2609275270287905
2022-11-21,0.2815437639662167
2022-11-22,-0.12914954903905282
2022-11-23,0.13507536041939425
2022-11-24,0.15991062879029433
2022-11-25,-0.3630866858237572
2022-11-28,-0.26792499280027526
2022-11-29,0.3121156343193075
2022-11-30,0.15041121676181096
2022-12-01,-0.08665503352981234
2022-12-02,0.24295418752791503
2022-12-05,0.0011993564428830691
2022-12-06,-0.3818406756842998
2022-12-07,-0.004996591487358815
2022-12-08,-0.008112623049448722
2022-12-09,-0.0803802868402892
2022-12-12,0.042031092012136013
2022-12-13,0.17396317870657912
2022-12-14,-0.1026296197310837
2022-12-15,0.057708523920592156
2022-12-16,0.20455412528160885
2022-12-19,0.01088317587972319
2022-12-20,0.1015373749936024
2022-12-21,0.06149148588909042
2022-12-22,-0.1274173528101621
2022-12-23,-0.3086328120938796
2022-12-26,0.14745870270928296
2022-12-27,-0.26721242525725497
2022-12-28,-0.1694245446457863
2022-12-29,0.0557009679855669
2022-12-30,0.09100895560853306
2023-01-03,0.17158848306502703
2023-01-04,0.10655716734464628
2023-01-05,0.19138221660344956
2023-01-06,0.06569927382003599
2023-01-09,0.20667879091935307
2023-01-10,-0.6379774102100493
2023-01-11,0.04212373848179203
2023-01-12,-0.11084656084655187
2023-01-13,0.23756121926853646
2023-01-16,-0.19209941078020382
2023-01-17,0.3780587800250801
2023-01-18,-0.020955607200538483
2023-01-19,0.11130481946381154
2023-01-20,-0.3290791486994041
2023-01-30,0.05034995915303253
2023-01-31,0.003933920704848895
2023-02-01,0.08612923130301697
2023-02-02,-0.087333984517368
2023-02-03,0.011006444704370219
2023-02-06,-0.0009350755333218594
2023-02-07,-0.0912869955156937
2023-02-08,-0.16281819367248646
2023-02-09,-0.05836236933798065
2023-02-10,-0.10566201199320108
2023-02-13,-0.12981988334679706
2023-02-14,0.19517651392928703
2023-02-15,0.04710794833037591
2023-02-16,0.021114106019765613
2023-02-17,0.30255357924418214
2023-02-20,-0.02423232798972265
2023-02-21,-0.1957410295831105
2023-02-22,0.16482087062437087
2023-02-23,0.11146554454549228
2023-02-24,-0.27154562801661125
2023-02-27,0.16660741794052053
2023-02-28,-0.061859435939955666
2023-03-01,-0.21739130434782578
2023-03-02,-0.15610656875092627
2023-03-03,0.20541817171436655
2023-03-06,0.14664822976981612
2023-03-07,0.040142419190686805
2023-03-08,0.03457470090458334
2023-03-09,0.4028650941340055
2023-03-10,0.02754664872711783
2023-03-13,-0.1414841451454638
2023-03-14,0.020309268659528083
2023-03-15,0.1321188878235821
2023-03-16,-0.43014166829301476
2023-03-17,-0.24081855489905898
2023-03-20,-0.020463301145748097
2023-03-21,0.07587905678456396
2023-03-22,-0.13429031142513048
2023-03-23,0.04820017311265751
2023-03-24,0.26332937395973305
2023-03-27,0.07407241891695372
2023-03-28,0.0016447059161849922
2023-03-29,0.08388109347104686
2023-03-30,0.0685524386057956
2023-03-31,-0.24214977686966993
2023-04-03,-0.29442889193320776
2023-04-04,-0.0037740575816145525
2023-04-06,-0.06268249524125641
2023-04-07,0.00042256204215045806
2023-04-10,0.023148196764923523
2023-04-11,0.1573415132924376
2023-04-12,-0.02224906654953749
2023-04-13,0.015100531738115482
2023-04-14,0.11248468228794314
2023-04-17,0.20168958793648778
2023-04-18,-0.03226176962750281
2023-04-19,0.04657117305289594
2023-04-20,-0.01904611160174297
2023-04-21,-0.032818887341483735
2023-04-24,-0.09491388932907996
2023-04-25,0.17030098531377547
2023-04-26,-0.21659033014101658
2023-04-27,0.0954727645079732
2023-04-28,-0.18498418087200488
2023-05-04,-0.0416431633965863
2023-05-05,-0.11564927857936162
2023-05-08,0.24752809788021404
2023-05-09,-0.04217647944998758
2023-05-10,0.06904347341235734
2023-05-11,0.037599738488287
2023-05-12,-0.05256537570340446
2023-05-15,-0.21298931381312702
2023-05-16,-0.01158078267471508
2023-05-17,0.11640262405557587
2023-05-18,-0.09509834086767269
2023-05-19,0.0517357222844332
2023-05-22,0.48095575671647695
2023-05-23,0.029982920929504442
2023-05-24,-0.09552071928025187
2023-05-25,0.08993538910939558
2023-05-26,0.11065283106615659
2023-05-29,-0.5756623540001536
2023-05-30,-0.1241239318129849
2023-05-31,0.06353083769828817
2023-06-01,0.052550029917349465
2023-06-02,-0.16464302129615804
2023-06-05,0.2305778328079699
2023-06-06,0.07339448187965748
2023-06-07,-0.1484761720682304
2023-06-08,-0.14707549935314834
2023-06-09,0.004144625813680802
2023-06-12,0.1745501686098576
2023-06-13,-0.06425499107287823
2023-06-14,0.15132115804637833
2023-06-15,-0.03474526101657384
2023-06-16,0.19726617244812364
2023-06-19,-0.3642557531597079
2023-06-20,0.16986203814896328
2023-06-21,-0.010044490668518903
2023-06-26,0.11801170688419009
2023-06-27,-0.136454733274309
2023-06-28,0.12388057165191156
2023-06-29,-0.17110710974057947
2023-06-30,-0.05821820501686114
2023-07-03,-0.09540358269633406
2023-07-04,-0.09079205439918916
2023-07-05,0.005457728349307703
2023-07-06,0.22197106690776597
2023-07-07,-0.06750698024054219
2023-07-10,0.27671466393114674
2023-07-11,0.11812149162162497
2023-07-12,0.16308902503590855
2023-07-13,-0.23764387271495233
2023-07-14,0.06715614092494877
2023-07-17,-0.1245554874310226
2023-07-18,-0.10039250841955881
2023-07-19,-0.24444157354175888
2023-07-20,0.11562006319115216
2023-07-21,0.15329985397300358
2023-07-24,-0.17800412583806538
2023-07-25,0.060170313973686995
2023-07-26,0.19477366192696044
2023-07-27,0.12673948220064707
2023-07-28,-0.2608998929521006
2023-07-31,0.08064448159126536
2023-08-01,0.14109094485445817
2023-08-02,-0.18199666314568685
2023-08-03,-0.18191624987742083
2023-08-04,0.32066421709179743
2023-08-07,-0.030194962833291643
2023-08-08,-0.20327594082317818
2023-08-09,0.25445987671318976
2023-08-10,-0.09803581431487511
2023-08-11,-0.3594487339861069
2023-08-14,0.41066343373730596
2023-08-15,0.0678186297375098
2023-08-16,-0.17305582630965607
2023-08-17,0.2768879191785495
2023-08-18,0.4030788989551919
2023-08-21,-0.49200572784607155
2023-08-22,0.17900728717827044
2023-08-23,-0.03584688260145831
2023-08-24,-0.1870306646551316
2023-08-25,-0.2646346053696802
2023-08-28,0.15251008105796485
2023-08-29,-0.2975031622944554
2023-08-30,0.13446951869007923
2023-08-31,0.18634602120765253
2023-09-01,-0.1365318919506687
2023-09-04,0.09926336031698593
2023-09-05,0.1534150510721801
2023-09-06,0.14056649910549845
2023-09-07,-0.11633691431002408
2023-09-08,0.1945251626503561
2023-09-11,-0.101027285146654
2023-09-12,-0.03847889387361904
2023-09-13,-0.29872358692686696
2023-09-14,-0.1557272219032474
2023-09-15,0.107219890178121
2023-09-18,0.07248572033001814
2023-09-19,0.010620048655733298
2023-09-20,0.13583274636613932
2023-09-21,0.08759971505184372
2023-09-22,-0.09864177218495584
2023-09-25,-0.229797889159508
2023-09-26,0.05584781675285148
2023-09-27,-0.13970651580851665
2023-09-28,0.1113009163620989
2023-10-09,-0.11054896926678062
2023-10-10,0.1527275871012317
2023-10-11,-0.015667442543671306
2023-10-12,0.04383950086238827
2023-10-13,-0.10851541186333216
2023-10-16,-0.03523061363690237
2023-10-17,0.21391922566277152
2023-10-18,-0.018871376301716876
2023-10-19,0.09132877507434274
2023-10-20,0.05220209188545658
2023-10-23,0.3927214969740515
2023-10-24,-0.14270224832030534
2023-10-25,-0.075301317387648
2023-10-26,-0.04185351270553541
2023-10-27,0.017416215010035097
2023-10-30,-0.41876653543425235
2023-10-31,-0.3467231388951374
2023-11-01,0.44406766102708845
2023-11-02,0.10281517747858566
2023-11-03,-0.06062024305475642
2023-11-06,0.5575953897482593
2023-11-07,0.33183358746059866
2023-11-08,-0.5655334063639499
2023-11-09,-0.12979192166462783
2023-11-10,0.04988933052928858
2023-11-13,-0.840253611556981
2023-11-14,0.06450543931321306
2023-11-15,0.1888695800063682
2023-11-16,-0.0828663371263693
2023-11-17,-0.09795558170320284
2023-11-20,0.538330992509361
2023-11-21,-0.2541661985544699
2023-11-22,0.03711826193891776
2023-11-23,0.277651300490504
2023-11-24,0.0857207308820307
2023-11-27,0.10404554263566151
2023-11-28,0.22085657994070856
2023-11-29,-0.006870229007631047
2023-11-30,-0.272018745493878
2023-12-01,-0.035824680985974106
2023-12-04,-0.39412706437479306
2023-12-05,0.1813015292513756
2023-12-06,0.06309862144074659
2023-12-07,0.31082132476293567
2023-12-08,0.2229277200297512
2023-12-11,0.21727043651261563
2023-12-12,-0.4631287866440543
2023-12-13,-0.14307117263316474
2023-12-14,-0.34463896746122935
2023-12-15,-0.34949546424455247
2023-12-18,-0.1254876599472308
2023-12-19,0.35895474050683707
2023-12-20,-0.039846697986431236
2023-12-21,0.036067384700354005
2023-12-22,0.12739389787938246
2023-12-25,-0.015663325080361806
2023-12-26,-0.44012851005770864
2023-12-27,0.2588323353293479
2023-12-28,0.16772480752455926
2023-12-29,0.06975804214647122
2024-01-02,0.19503996880483096
2024-01-03,0.4935166502432264
2024-01-04,-0.23199481865286314
2024-01-05,0.024895317448511575
2024-01-08,-0.07378386903591329
2024-01-09,-0.007363071710894495
2024-01-10,-0.35616882995050736
2024-01-11,0.10788890393483705
2024-01-12,-0.15610436683735104
2024-01-15,-0.05940915408984496
2024-01-16,-0.30889110889111676
2024-01-17,0.15814819989753592
2024-01-18,-0.24859082232612778
2024-01-19,-0.025464064731082134
2024-01-22,0.41332006486804423
2024-01-23,0.3227404801957626
2024-01-24,-0.07363325940788698
2024-01-25,0.424969464316872
2024-01-26,0.10479797979797693
2024-01-29,-0.3921773612112414
2024-01-30,-0.1923231850725768
2024-01-31,0.11099320338547944
2024-02-01,-0.2239000459911043
2024-02-02,0.007959850606914204
2024-02-05,-0.017033165104540587
2024-02-06,0.07777307565711404
2024-02-07,-0.09878364389234157
2024-02-08,-0.16752362467784868
2024-02-19,0.31449437562834553
2024-02-20,0.03653982930298415
2024-02-21,0.003641846735763087
2024-02-22,-0.0029256761993310815
2024-02-23,0.3354731035452091
2024-02-26,-0.5446102057441707
2024-02-27,0.15340415716921724
2024-02-28,0.0017342160503810457
2024-02-29,0.09924705103103915
2024-03-01,-0.22994284980415808
2024-03-04,0.12401800637093875
2024-03-05,-0.16641767068273344
2024-03-06,-0.01523938747820101
2024-03-07,-0.03694352579527159
2024-03-08,-0.06691122523844038
2024-03-11,0.1499425149060282
2024-03-12,0.1715890410958933
2024-03-13,0.8339299972799115
2024-03-14,0.09486000938429714
2024-03-15,0.1306132157066242
2024-03-18,-0.06569343065694497
2024-03-19,-0.03779935454381697
2024-03-20,-1.1697026166627764
2024-03-21,-0.28639444776454565
2024-03-22,-0.0015601740524439646
2024-03-25,-0.026315789473683477
2024-03-26,-0.0699878847502698
2024-03-27,0.347434505226002
2024-03-28,0.19009484444772679
2024-03-29,0.003583668976553912
2024-04-01,0.3737584702497092
2024-04-02,-0.16934106881751054
2024-04-03,0.08086738156644734
2024-04-08,0.11788172964055856
2024-04-09,-0.0019567905891121644
2024-04-10,-0.5087743068963835
2024-04-11,0.1507453738859367
2024-04-12,-0.1950369155045089
2024-04-15,-0.3253195871444318
2024-04-16,0.31425842695947825
2024-04-17,0.2642554312016634
2024-04-18,0.07996885653050251
2024-04-19,0.17813792967937608
2024-04-22,0.25953011346021954
2024-04-23,-0.5196406241449567
2024-04-24,-0.26104972016182837
2024-04-25,-0.07882713731377664
2024-04-26,-0.14867871935521312
2024-04-29,-0.09347640947027883
2024-04-30,0.25788826758419575
2024-05-06,0.31414095267451236
2024-05-07,-0.04451042771297155
2024-05-08,0.14200912125399448
2024-05-09,0.03316939192641782
2024-05-10,-0.028338114634670925
2024-05-13,-0.3522175692395576
2024-05-14,0.15465079060239723
2024-05-15,-0.06269448109333067
2024-05-16,-0.0898684210526304
2024-05-17,-0.09650963680138044
2024-05-20,0.2343381248659095
2024-05-21,0.021838341635862207
2024-05-22,0.02541659542567254
2024-05-23,0.10162162162162228
2024-05-24,0.12186739722971787
2024-05-27,0.07724902216427595
2024-05-28,-0.2842425725912546
2024-05-29,0.07005945616548812
2024-05-30,-0.031588399030259465
2024-05-31,-0.11004284885716761
2024-06-03,0.016054105752155837
2024-06-04,0.25896784731653266
2024-06-05,-0.06166310195087044
2024-06-06,0.0380961726266406
2024-06-07,0.05400113846069139
2024-06-11,-0.2999318718217017
2024-06-12,-0.20966795031281033
2024-06-13,-0.15199354535063617
2024-06-14,-0.12684184156993616
2024-06-17,0.2704156081037058
2024-06-18,0.15911228764553217
2024-06-19,0.27202523588437927
2024-06-20,0.11419363749367001
2024-06-21,0.2220457796852655
2024-06-24,-0.4782464321039984
2024-06-25,0.03189493433395753
2024-06-26,-0.15891367806505297
2024-06-27,-0.0036718593786917164
2024-06-28,-0.09701754385964807
2024-07-01,0.27513287899044475
2024-07-02,-0.04141441493716988
2024-07-03,-0.09081765452529908
2024-07-04,0.2393804170599828
2024-07-05,-0.14060150375940034
2024-07-08,-0.03009177202725806
2024-07-09,-0.060684431443893634
2024-07-10,0.12451773040306806
2024-07-11,-0.4220271246970795
2024-07-12,0.13945733899967605
2024-07-15,-0.08494943676394622
2024-07-16,0.07019510372500253
2024-07-17,-0.028195488721808087
2024-07-18,0.3954096883474722
2024-07-19,0.08197123242889358
2024-07-22,0.03477022529441328
2024-07-23,0.14211694408877665
2024-07-24,-0.01284109149277552
2024-07-25,-0.27398759295649977
2024-07-26,-0.17428066633013162
2024-07-29,0.001079341805151875
2024-07-30,-0.20758331879253322
2024-07-31,0.0667830002064704
2024-08-01,0.048178733755842924
2024-08-02,0.02038984170760192
2024-08-05,-0.031518543645411665
2024-08-06,0.06815961749382951
2024-08-07,0.35055247330878236
2024-08-08,0.13549606299212422
2024-08-09,0.2873276776246042
2024-08-12,0.16043032501046292
2024-08-13,0.004602187733733246
2024-08-14,-0.5639907094096738
2024-08-15,-0.1951360799001231
2024-08-16,-0.4589863035515219
2024-08-19,-0.2544942759062465
2024-08-20,-0.022395555080670013
2024-08-21,0.06535406797297215
2024-08-22,0.26203677274076875
2024-08-23,0.7134756269371647
2024-08-26,0.12564745816156567
2024-08-27,-0.007595765578959638
2024-08-28,0.05961187267389519
2024-08-29,-0.2996560576475099
2024-08-30,-0.8940838118556944
2024-09-02,0.01046037170004611
2024-09-03,0.11153761629184789
2024-09-04,0.02437810247636949
2024-09-05,0.2595245955760951
2024-09-06,0.34686058331378444
2024-09-09,0.1526398915766093
2024-09-10,-0.05050574474555239
2024-09-11,0.2813963175466766
2024-09-12,-0.131364829718422
2024-09-13,0.1513111040616141
2024-09-18,-0.14841288282853865
2024-09-19,0.12478503323461138
2024-09-20,-0.3592129854172559
2024-09-23,-0.017844117362866153
2024-09-24,-0.2003129784144383
2024-09-25,-0.011141070561717916
2024-09-26,-0.32743264198487887
2024-09-27,0.10565068101469734
2024-09-30,0.08793778581013129
2024-10-08,0.5415892823605565
2024-10-09,-0.05802287068152612
2024-10-10,0.28794861052925474
2024-10-11,-0.09005808593685102
2024-10-14,-0.06819767938103831
2024-10-15,-0.7404332129963943
2024-10-16,0.15486768870227696
2024-10-17,-0.16202888179382652
2024-10-18,0.14943728895633585
2024-10-21,0.05859977627231682
2024-10-22,0.3392464678178968
2024-10-23,-0.16423779069441874
2024-10-24,-0.034051490590594966
2024-10-25,-0.15192724206007005
2024-10-28,-0.13119111051266594
2024-10-29,0.26573278529413613
2024-10-30,0.8226672558465731
2024-10-31,0.25396420809744935
2024-11-01,0.1308103661044842
2024-11-04,0.06981927377747241
2024-11-05,-0.3911988551754086
2024-11-06,-1.029498948664037
2024-11-07,-0.3939779943878321
2024-11-08,0.013520488194877743
2024-11-11,0.20715502623217774
2024-11-12,0.0424485582923343
2024-11-13,0.22518552173254863
2024-11-14,0.21561243288176016
2024-11-15,-0.21250093058811867
2024-11-18,-0.37698643055691217
2024-11-19,0.010202139177404437
2024-11-20,-0.027237771540892214
2024-11-21,0.010234413965082262
2024-11-22,0.43188100796313245
2024-11-25,0.1496647439132396
2024-11-26,0.04146779874845387
2024-11-27,0.23169124262865431
2024-11-28,0.00831190150479705
2024-11-29,-0.4847905674598944
2024-12-02,0.17457950722792356
2024-12-03,0.040206062113407534
2024-12-04,-0.3112756745915852
2024-12-05,0.006021431828539037
2024-12-06,0.1583027380899768
2024-12-09,-0.21246498599439173
2024-12-10,-0.13491117337254016
2024-12-11,0.21274665340988239
2024-12-12,-0.0957504679231209
2024-12-13,0.05403182501802761
2024-12-16,0.05428641928105368
2024-12-17,0.5877885353754421
2024-12-18,0.3205620432237563
2024-12-19,0.12622096234098729
2024-12-20,0.20623912006421796
2024-12-23,0.05001350964573713
2024-12-24,-0.6138394611282694
2024-12-25,-0.5956593401961128
2024-12-26,-0.09989871826214711
2024-12-27,-0.5017486163471535
2024-12-30,-0.2322761194029856
2024-12-31,0.09034307156258606
