date,FCT_Demark_Atr_Dfive
2014-12-19,
2014-12-22,
2014-12-23,
2014-12-24,
2014-12-25,
2014-12-26,
2014-12-29,
2014-12-30,
2014-12-31,
2015-01-05,0.005727629202099167
2015-01-06,0.3050847457627131
2015-01-07,0.4846153846153849
2015-01-08,0.5727272727272738
2015-01-09,0.5877192982456131
2015-01-12,0.6907216494845395
2015-01-13,0.1489361702127632
2015-01-14,0.05434782608695505
2015-01-15,0.07608695652173973
2015-01-16,0.1500000000000037
2015-01-19,0.3936170212765976
2015-01-20,0.6981132075471744
2015-01-21,0.812500000000006
2015-01-22,0.8615384615384649
2015-01-23,0.6323529411764706
2015-01-26,0.5454545454545439
2015-01-27,0.7866666666666635
2015-01-28,0.8558558558558531
2015-01-29,0.8749999999999973
2015-01-30,1.0
2015-02-02,1.0
2015-02-03,0.8173076923076884
2015-02-04,0.5053763440860183
2015-02-05,0.1594202898550732
2015-02-06,0.05970149253731291
2015-02-09,0.0
2015-02-10,0.03773584905660766
2015-02-11,0.052631578947373206
2015-02-12,0.036363636363639054
2015-02-13,0.21311475409836614
2015-02-16,0.1645569620253215
2015-02-17,0.25842696629213885
2015-02-25,0.4489795918367398
2015-02-26,0.5945945945946028
2015-02-27,0.5454545454545532
2015-03-02,0.8888888888888948
2015-03-03,0.8648648648648695
2015-03-04,0.5789473684210455
2015-03-05,0.5499999999999827
2015-03-06,0.30769230769228695
2015-03-09,0.4705882352941081
2015-03-10,0.7096774193548351
2015-03-11,0.8192771084337311
2015-03-12,0.8965517241379288
2015-03-13,1.0
2015-03-16,1.0
2015-03-17,0.5785123966942167
2015-03-18,0.4035087719298267
2015-03-19,0.33027522935779996
2015-03-20,0.13402061855669942
2015-03-23,0.0
2015-03-24,0.5471698113207554
2015-03-25,0.6373626373626409
2015-03-26,0.6923076923076943
2015-03-27,0.842592592592595
2015-03-30,0.9811320754717003
2015-03-31,0.49999999999999745
2015-04-01,0.6764705882352905
2015-04-02,0.6834532374100686
2015-04-03,0.47857142857142304
2015-04-07,0.41197544668324615
2015-04-08,0.7018968972117144
2015-04-09,0.24150641267731113
2015-04-10,0.19243439553905747
2015-04-13,0.3751990202082088
2015-04-14,0.44459841792251
2015-04-15,0.4539490223746817
2015-04-16,0.9986681599418847
2015-04-17,0.8682825411863789
2015-04-20,0.6714285714285706
2015-04-21,0.4931506849315111
2015-04-22,0.09009009009009397
2015-04-23,0.0
2015-04-24,0.09649122807017751
2015-04-27,0.08527131782945915
2015-04-28,0.140495867768597
2015-04-29,0.32203389830508117
2015-04-30,0.5172413793103423
2015-05-04,0.4615384615384534
2015-05-05,1.0
2015-05-06,0.3958333333333185
2015-05-07,0.5857142857142771
2015-05-08,0.42253521126760274
2015-05-11,0.284090909090907
2015-05-12,0.33684210526315583
2015-05-13,0.5584415584415627
2015-05-14,0.23750000000000315
2015-05-15,0.27941176470588325
2015-05-18,0.3333333333333334
2015-05-19,0.18644067796610522
2015-05-20,0.09433962264151285
2015-05-21,0.15151515151515615
2015-05-22,0.14705882352941696
2015-05-25,0.6000000000000062
2015-05-26,0.8787878787878827
2015-05-27,0.9058823529411795
2015-05-28,0.9887640449438219
2015-05-29,1.0
2015-06-01,0.7741935483871034
2015-06-02,0.4767441860465175
2015-06-03,0.19318181818181804
2015-06-04,0.2970297029703008
2015-06-05,0.3603603603603609
2015-06-08,0.6350364963503626
2015-06-09,0.7699115044247747
2015-06-10,1.0
2015-06-11,0.7156862745097985
2015-06-12,0.5999999999999981
2015-06-15,0.1587301587301561
2015-06-16,0.4111111111111062
2015-06-17,0.2872340425531884
2015-06-18,0.4794520547945237
2015-06-19,0.5147058823529388
2015-06-23,0.6842105263157948
2015-06-24,0.22641509433964227
2015-06-25,0.3571428571428744
2015-06-26,0.16279069767442989
2015-06-29,0.3469387755102139
2015-06-30,0.17567567567567713
2015-07-01,0.4328358208955236
2015-07-02,0.5128205128205136
2015-07-03,0.5633802816901469
2015-07-06,0.3896103896103925
2015-07-07,0.6122448979591837
2015-07-08,0.7956989247311806
2015-07-09,0.7865168539325802
2015-07-10,0.8396226415094279
2015-07-13,0.9925925925925904
2015-07-14,0.9925925925925937
2015-07-15,0.4596273291925453
2015-07-16,0.4000000000000006
2015-07-17,0.30000000000000093
2015-07-20,0.018691588785048303
2015-07-21,0.017699115044249272
2015-07-22,0.07142857142857635
2015-07-23,0.0434782608695689
2015-07-24,0.05128205128205542
2015-07-27,0.0
2015-07-28,0.294219653179189
2015-07-29,0.3005519472979368
2015-07-30,0.7820265638389048
2015-07-31,0.7261425232483053
2015-08-03,0.6983818254284555
2015-08-04,0.69884753748687
2015-08-05,0.7698152462875889
2015-08-06,0.575829612020766
2015-08-07,0.7121730210292296
2015-08-10,0.8703703703703675
2015-08-11,0.5593220338982996
2015-08-12,0.3653846153846113
2015-08-13,0.7373737373737369
2015-08-14,0.723404255319149
2015-08-17,0.5660377358490566
2015-08-18,0.7428571428571443
2015-08-19,0.8165137614678889
2015-08-20,0.37634408602150127
2015-08-21,0.30851063829786857
2015-08-24,0.36708860759493384
2015-08-25,0.23076923076922012
2015-08-26,0.06060606060605552
2015-08-27,0.12499999999999362
2015-08-28,0.29999999999999627
2015-08-31,0.7808219178082247
2015-09-01,0.7777777777777852
2015-09-02,0.936507936507942
2015-09-07,1.0
2015-09-08,0.9344262295081895
2015-09-09,0.2045454545454521
2015-09-10,0.14634146341463536
2015-09-11,0.07500000000000584
2015-09-14,0.026315789473700866
2015-09-15,0.025000000000016353
2015-09-16,0.035714285714308305
2015-09-17,0.021739130434787528
2015-09-18,0.41095890410959024
2015-09-21,0.4415584415584398
2015-09-22,0.5795454545454503
2015-09-23,0.7285714285714241
2015-09-24,0.8225806451612802
2015-09-25,0.3492063492063439
2015-09-28,0.19999999999999804
2015-09-29,0.0
2015-09-30,0.313131313131313
2015-10-08,0.672316384180793
2015-10-09,0.8435754189944142
2015-10-12,0.9945945945945958
2015-10-13,1.0
2015-10-14,0.9384615384615378
2015-10-15,0.5107526881720398
2015-10-16,0.3519553072625685
2015-10-19,0.19108280254777016
2015-10-20,0.0
2015-10-21,0.0
2015-10-22,0.24806201550387869
2015-10-23,0.3571428571428574
2015-10-26,0.44545454545454477
2015-10-27,0.8279569892473144
2015-10-28,1.0
2015-10-29,0.7692307692307626
2015-10-30,0.7534246575342415
2015-11-02,0.4795889481752099
2015-11-03,0.23476273836409198
2015-11-04,0.09631757103292801
2015-11-05,0.09362057858085344
2015-11-06,0.4407830296262309
2015-11-09,0.7757067112989543
2015-11-10,0.871035420621964
2015-11-11,0.7752138048159167
2015-11-12,0.9167508958926777
2015-11-13,0.716279069767443
2015-11-16,0.5885714285714292
2015-11-17,0.3798882681564258
2015-11-18,0.4715909090909084
2015-11-19,0.10489510489510218
2015-11-20,0.3410852713178257
2015-11-23,0.3437499999999956
2015-11-24,0.6249999999999966
2015-11-25,0.6280991735537186
2015-11-26,0.690909090909093
2015-11-27,0.49473684210526875
2015-11-30,0.49473684210527086
2015-12-01,0.1904761904761974
2015-12-02,0.0
2015-12-03,0.03614457831324997
2015-12-04,0.15384615384614686
2015-12-07,0.33333333333332826
2015-12-08,0.3888888888888822
2015-12-09,0.8688524590163883
2015-12-10,0.8769230769230728
2015-12-11,0.5106382978723402
2015-12-14,0.3232323232323214
2015-12-15,0.31372549019607865
2015-12-16,0.06603773584905787
2015-12-17,0.0
2015-12-18,0.04545454545454236
2015-12-21,0.06249999999999664
2015-12-22,0.5526315789473709
2015-12-23,0.9107142857142898
2015-12-24,0.7499999999999997
2015-12-25,0.7571428571428581
2015-12-28,0.8640776699029109
2015-12-29,0.6097560975609735
2015-12-30,0.6666666666666637
2015-12-31,0.8144329896907211
2016-01-04,0.8064516129032253
2016-01-05,0.4756097560975617
2016-01-06,0.4534883720930265
2016-01-07,0.29850746268657286
2016-01-08,0.06756756756756868
2016-01-11,0.1038961038961065
2016-01-12,0.15094339622641958
2016-01-13,0.19047619047619238
2016-01-14,0.07142857142857602
2016-01-15,0.18918918918919825
2016-01-18,0.06521739130434984
2016-01-19,0.052631578947369834
2016-01-20,0.29508196721311725
2016-01-21,0.30508474576271605
2016-01-22,0.45333333333333303
2016-01-25,0.5396825396825403
2016-01-26,0.701754385964914
2016-01-27,0.5
2016-01-28,0.7749999999999971
2016-01-29,0.5
2016-02-01,0.3870967741935564
2016-02-02,0.1538461538461565
2016-02-03,0.15384615384615327
2016-02-04,0.23255813953488996
2016-02-05,0.15873015873016272
2016-02-15,0.4078947368421014
2016-02-16,0.5441176470588167
2016-02-17,0.7604166666666675
2016-02-18,0.7078651685393246
2016-02-19,0.9647058823529391
2016-02-22,0.792207792207794
2016-02-23,0.8350515463917545
2016-02-24,0.6249999999999994
2016-02-25,0.5696202531645551
2016-02-26,0.3823529411764719
2016-02-29,0.7099999999999985
2016-03-01,0.6233766233766224
2016-03-02,0.5517241379310348
2016-03-03,0.6881720430107553
2016-03-04,0.7111111111111152
2016-03-07,0.45833333333333776
2016-03-08,0.2676056338028173
2016-03-09,0.5156249999999999
2016-03-10,0.44642857142857195
2016-03-11,0.7173913043478254
2016-03-14,0.5294117647058828
2016-03-15,0.6938775510204092
2016-03-16,0.642857142857145
2016-03-17,0.5168539325842681
2016-03-18,0.4109589041095865
2016-03-21,0.8356437560503341
2016-03-22,0.8436974480464429
2016-03-23,0.8317219264278736
2016-03-24,0.9797586720548519
2016-03-25,0.409092380023391
2016-03-28,0.09013434727502877
2016-03-29,0.0
2016-03-30,0.0
2016-03-31,0.060609108549063276
2016-04-01,0.12727272727273115
2016-04-05,0.162790697674423
2016-04-06,0.11666666666667014
2016-04-07,0.4310344827586219
2016-04-08,0.2465753424657531
2016-04-11,0.36046511627907357
2016-04-12,0.40789473684211
2016-04-13,0.7395833333333356
2016-04-14,0.7093023255813988
2016-04-15,0.9634146341463432
2016-04-18,0.9734513274336295
2016-04-19,1.0
2016-04-20,1.0
2016-04-21,1.0
2016-04-22,1.0
2016-04-25,0.8282828282828258
2016-04-26,0.8349514563106766
2016-04-27,0.8229166666666637
2016-04-28,0.6666666666666627
2016-04-29,0.21739130434782253
2016-05-03,0.24390243902438746
2016-05-04,0.05882352941176572
2016-05-05,0.0
2016-05-06,0.07766990291262438
2016-05-09,0.20833333333334061
2016-05-10,0.1898734177215251
2016-05-11,0.629629629629633
2016-05-12,0.6891891891891873
2016-05-13,0.614285714285712
2016-05-16,0.5217391304347787
2016-05-17,0.5806451612903162
2016-05-18,0.31578947368420957
2016-05-19,0.45161290322580955
2016-05-20,0.48275862068966086
2016-05-23,0.7567567567567599
2016-05-24,0.9444444444444515
2016-05-25,0.6111111111111143
2016-05-26,0.3636363636363638
2016-05-27,0.5352112676056284
2016-05-30,0.5975609756097503
2016-05-31,0.6489361702127603
2016-06-01,0.6161616161616129
2016-06-02,0.839622641509434
2016-06-03,0.6826923076923093
2016-06-06,0.36507936507936684
2016-06-07,0.24778761061947058
2016-06-08,0.2745098039215698
2016-06-13,0.244897959183675
2016-06-14,0.40206185567010244
2016-06-15,0.9166666666666656
2016-06-16,0.9583333333333327
2016-06-17,1.0
2016-06-20,0.799999999999999
2016-06-21,0.7010869565217389
2016-06-22,0.2554347826086967
2016-06-23,0.23888888888888518
2016-06-24,0.06878306878306632
2016-06-27,0.09090909090909086
2016-06-28,0.2965116279069783
2016-06-29,0.5714853913591124
2016-06-30,0.3197710357787561
2016-07-01,0.618127299629444
2016-07-04,0.6576673866090725
2016-07-05,0.5478659907291112
2016-07-06,0.5584490302654057
2016-07-07,0.9999999999999934
2016-07-08,0.7003244120032239
2016-07-11,0.1701058423874774
2016-07-12,0.03409090909090599
2016-07-13,0.0
2016-07-14,0.0
2016-07-15,0.0
2016-07-18,0.2903225806451624
2016-07-19,0.49411764705882827
2016-07-20,0.6448598130841154
2016-07-21,0.6699029126213624
2016-07-22,0.9473684210526335
2016-07-25,0.5625000000000046
2016-07-26,0.5106382978723412
2016-07-27,0.22826086956521766
2016-07-28,0.3773584905660387
2016-07-29,0.2021276595744701
2016-08-01,0.29230769230769477
2016-08-02,0.5625000000000044
2016-08-03,0.6428571428571467
2016-08-04,0.44303797468354783
2016-08-05,0.5270270270270268
2016-08-08,0.7272727272727251
2016-08-09,0.34905660377357794
2016-08-10,0.4509803921568572
2016-08-11,0.5384615384615311
2016-08-12,0.44554455445544205
2016-08-15,0.22222222222221996
2016-08-16,0.6956521739130462
2016-08-17,0.450980392156857
2016-08-18,0.4509803921568605
2016-08-19,0.762711864406774
2016-08-22,0.640624999999997
2016-08-23,0.40322580645161143
2016-08-24,0.5892857142857177
2016-08-25,0.5660377358490599
2016-08-26,0.14035087719298786
2016-08-29,0.23076923076923606
2016-08-30,0.5000000000000068
2016-08-31,0.44680851063830257
2016-09-01,0.4038461538461563
2016-09-02,0.9166666666666631
2016-09-05,0.7391304347826035
2016-09-06,0.5441176470588195
2016-09-07,0.5230769230769156
2016-09-08,0.5483870967741892
2016-09-09,0.0
2016-09-12,0.0
2016-09-13,0.21153846153846054
2016-09-14,0.15492957746478914
2016-09-19,0.19444444444444114
2016-09-20,0.3404255319148979
2016-09-21,0.6779661016949161
2016-09-22,0.517857142857141
2016-09-23,0.8181818181818146
2016-09-26,0.647058823529416
2016-09-27,0.6896551724137928
2016-09-28,0.3636363636363688
2016-09-29,0.4210526315789586
2016-09-30,0.5769230769230812
2016-10-10,0.8333333333333374
2016-10-11,0.7285714285714315
2016-10-12,0.7611940298507467
2016-10-13,0.8181818181818166
2016-10-14,0.6885245901639342
2016-10-17,0.2857142857142847
2016-10-18,0.3783783783783746
2016-10-19,0.6279069767441839
2016-10-20,0.7460317460317465
2016-10-21,0.8428571428571422
2016-10-24,0.7972972972973001
2016-10-25,0.8623853211009205
2016-10-26,0.8514851485148554
2016-10-27,0.5625000000000049
2016-10-28,0.4516129032258128
2016-10-31,0.643564356435647
2016-11-01,0.3414634146341484
2016-11-02,0.2839506172839507
2016-11-03,0.34328358208955306
2016-11-04,0.5625000000000008
2016-11-07,0.30985915492957644
2016-11-08,0.6555555555555542
2016-11-09,0.6555555555555566
2016-11-10,0.8915662650602408
2016-11-11,0.88
2016-11-14,0.9798994974874391
2016-11-15,0.8777777777777797
2016-11-16,0.8633879781420749
2016-11-17,0.38983050847457534
2016-11-18,0.32812499999999817
2016-11-21,0.0
2016-11-22,0.0
2016-11-23,0.0
2016-11-24,0.08105244475040885
2016-11-25,0.42390511750494014
2016-11-28,0.6322527386131346
2016-11-29,0.8087812640387111
2016-11-30,0.9078330060591459
2016-12-01,0.8825993982173661
2016-12-02,0.5830282401662722
2016-12-05,0.6725296489283972
2016-12-06,0.46212121212121376
2016-12-07,0.0769230769230762
2016-12-08,0.08593749999999985
2016-12-09,0.11702127659574428
2016-12-12,0.01052631578947476
2016-12-13,0.010638297872341523
2016-12-14,0.02000000000000186
2016-12-15,0.0392156862745074
2016-12-16,0.06521739130434769
2016-12-19,0.33333333333333076
2016-12-20,0.8888888888888832
2016-12-21,1.0
2016-12-22,1.0
2016-12-23,1.0
2016-12-26,1.0
2016-12-27,0.3877551020408218
2016-12-28,0.5833333333333294
2016-12-29,0.5999999999999964
2016-12-30,0.38888888888888534
2017-01-03,0.29629629629629084
2017-01-04,0.5208333333333287
2017-01-05,0.23469387755102047
2017-01-06,0.18367346938775592
2017-01-09,0.23376623376623615
2017-01-10,0.31578947368421434
2017-01-11,0.0
2017-01-12,0.0
2017-01-13,0.0
2017-01-16,0.40425531914894414
2017-01-17,0.5344827586207003
2017-01-18,0.7755102040816431
2017-01-19,0.8163265306122472
2017-01-20,0.7843137254901942
2017-01-23,0.46666666666666207
2017-01-24,0.33333333333331744
2017-01-25,0.1282051282051109
2017-01-26,0.06382978723403587
2017-02-03,0.26666666666665545
2017-02-06,0.6428571428571338
2017-02-07,0.4714285714285702
2017-02-08,0.5076923076923113
2017-02-09,0.7250000000000094
2017-02-10,0.6447368421052736
2017-02-13,0.3164556962025395
2017-02-14,0.5316455696202591
2017-02-15,0.6235294117647071
2017-02-16,0.34999999999999787
2017-02-17,0.4050632911392394
2017-02-20,0.6610169491525398
2017-02-21,0.4313725490196026
2017-02-22,0.355555555555553
2017-02-23,0.7272727272727244
2017-02-24,0.8043478260869527
2017-02-27,0.7749999999999968
2017-02-28,1.0
2017-03-01,0.823529411764709
2017-03-02,0.7777777777777815
2017-03-03,0.14285714285713855
2017-03-06,0.09677419354837846
2017-03-07,0.025641025641029012
2017-03-08,0.4482758620689653
2017-03-09,0.40983606557376595
2017-03-10,0.6249999999999957
2017-03-13,0.7499999999999973
2017-03-14,0.9459459459459402
2017-03-15,0.6249999999999972
2017-03-16,0.750000000000001
2017-03-17,0.6597938144329912
2017-03-20,0.5098039215686286
2017-03-21,0.25531914893617175
2017-03-22,0.3472222222222224
2017-03-23,0.019597149169428063
2017-03-24,0.32718334985133113
2017-03-27,0.5801310719691716
2017-03-28,0.9250440814134052
2017-03-29,0.9653212605146427
2017-03-30,0.7632668230107804
2017-03-31,0.6293621762055375
2017-04-05,0.5579088814947573
2017-04-06,0.6303766317141073
2017-04-07,0.25000000000000255
2017-04-10,0.3499999999999985
2017-04-11,0.6082474226804093
2017-04-12,0.5566037735849045
2017-04-13,0.27118644067796394
2017-04-14,0.304761904761904
2017-04-17,0.33636363636363864
2017-04-18,0.05172413793103528
2017-04-19,0.08490566037735645
2017-04-20,0.13432835820895114
2017-04-21,0.40322580645160566
2017-04-24,0.33333333333332466
2017-04-25,0.970588235294106
2017-04-26,0.9374999999999877
2017-04-27,0.9444444444444448
2017-04-28,0.42857142857144515
2017-05-02,0.40000000000001823
2017-05-03,0.07843137254903587
2017-05-04,0.3134328358209118
2017-05-05,0.3698630136986332
2017-05-08,0.49999999999999645
2017-05-09,0.6166666666666571
2017-05-10,0.840909090909078
2017-05-11,0.6060606060605813
2017-05-12,0.22727272727271233
2017-05-15,0.5921052631578867
2017-05-16,0.4487179487179477
2017-05-17,0.4729729729729724
2017-05-18,0.41666666666666696
2017-05-19,0.5882352941176545
2017-05-22,0.14285714285715675
2017-05-23,0.16129032258065742
2017-05-24,0.4693877551020526
2017-05-25,0.6216216216216229
2017-05-26,0.5294117647058758
2017-05-31,0.2727272727272769
2017-06-01,0.4936708860759518
2017-06-02,0.3181818181818163
2017-06-05,0.4225352112676057
2017-06-06,0.3896103896103934
2017-06-07,0.6249999999999999
2017-06-08,0.2903225806451578
2017-06-09,0.6046511627906977
2017-06-12,0.575
2017-06-13,0.7804878048780417
2017-06-14,0.8999999999999917
2017-06-15,1.0
2017-06-16,0.5348837209302325
2017-06-19,0.5348837209302326
2017-06-20,0.3999999999999959
2017-06-21,0.47499999999999565
2017-06-22,0.26315789473684215
2017-06-23,0.6206896551724137
2017-06-26,0.5454545454545454
2017-06-27,0.5555555555555595
2017-06-28,0.5636363636363644
2017-06-29,0.9166666666666654
2017-06-30,0.32432432432431074
2017-07-03,0.46341463414633177
2017-07-04,0.5999999999999943
2017-07-05,0.3709677419354801
2017-07-06,0.41791044776119385
2017-07-07,0.6599999999999976
2017-07-10,0.5416666666666631
2017-07-11,0.24489795918366974
2017-07-12,0.41176470588235115
2017-07-13,0.3939393939393918
2017-07-14,0.1904761904761938
2017-07-17,0.3095238095238149
2017-07-18,0.5483870967742003
2017-07-19,0.650000000000006
2017-07-20,0.46511627906977143
2017-07-21,0.8124999999999999
2017-07-24,0.607142857142857
2017-07-25,0.4918032786885245
2017-07-26,0.33928571428571885
2017-07-27,0.32758620689655815
2017-07-28,0.0
2017-07-31,0.0
2017-08-01,0.29787234042553346
2017-08-02,0.2799999999999925
2017-08-03,0.4791666666666552
2017-08-04,0.4999999999999919
2017-08-07,0.7121212121212064
2017-08-08,0.5
2017-08-09,0.7087346045522701
2017-08-10,0.6565242553191522
2017-08-11,0.8377964483883487
2017-08-14,0.5812982385681967
2017-08-15,0.7282405170330962
2017-08-16,0.47470537439040583
2017-08-17,0.5217239902685554
2017-08-18,0.2159995275819481
2017-08-21,0.35500862965328894
2017-08-22,0.32608695652174224
2017-08-23,0.5263157894736873
2017-08-24,0.4210526315789479
2017-08-25,0.8545454545454514
2017-08-28,0.7399999999999913
2017-08-29,0.5319148936170168
2017-08-30,0.36585365853658003
2017-08-31,0.45454545454544953
2017-09-01,0.0
2017-09-04,0.5686274509803897
2017-09-05,0.47540983606557374
2017-09-06,0.49152542372881564
2017-09-07,0.4754098360655766
2017-09-08,0.7628865979381488
2017-09-11,0.42857142857143055
2017-09-12,0.5980392156862749
2017-09-13,0.6388888888888892
2017-09-14,0.7016129032258045
2017-09-15,0.33870967741935243
2017-09-18,0.5161290322580644
2017-09-19,0.33333333333333326
2017-09-20,0.3043478260869557
2017-09-21,0.12048192771084848
2017-09-22,0.5625000000000048
2017-09-25,0.5084745762711875
2017-09-26,0.8076923076923115
2017-09-27,0.6551724137930999
2017-09-28,0.8196721311475322
2017-09-29,0.3870967741935468
2017-10-09,0.48611111111110933
2017-10-10,0.32394366197183144
2017-10-11,0.3333333333333369
2017-10-12,0.1506849315068496
2017-10-13,0.28571428571428126
2017-10-16,0.05660377358489993
2017-10-17,0.13333333333332004
2017-10-18,0.22499999999998696
2017-10-19,0.3999999999999821
2017-10-20,0.3749999999999963
2017-10-23,0.7499999999999686
2017-10-24,0.8846153846153711
2017-10-25,0.9318181818181736
2017-10-26,0.7843137254901926
2017-10-27,0.7924528301886754
2017-10-30,0.8666666666666687
2017-10-31,0.603448275862072
2017-11-01,0.43902439024390894
2017-11-02,0.5454545454545507
2017-11-03,0.5588235294117662
2017-11-06,0.3103448275862082
2017-11-07,0.7826086956521784
2017-11-08,0.9180327868852478
2017-11-09,0.938271604938273
2017-11-10,0.9367088607594951
2017-11-13,1.0
2017-11-14,1.0
2017-11-15,0.7361111111111127
2017-11-16,0.6984126984127013
2017-11-17,0.7724550898203615
2017-11-20,0.7803468208092501
2017-11-21,0.3173652694610782
2017-11-22,0.3486842105263152
2017-11-23,0.3207547169811306
2017-11-24,0.046666666666664705
2017-11-27,0.07142857142857036
2017-11-28,0.1728395061728373
2017-11-29,0.22222222222222038
2017-11-30,0.3939393939393919
2017-12-01,0.7647058823529521
2017-12-04,0.7037037037037223
2017-12-05,0.7444252298170747
2017-12-06,0.9206769702067926
2017-12-07,0.9167182948209384
2017-12-08,0.5870113865606497
2017-12-11,0.5101792108711736
2017-12-12,0.28901693930030764
2017-12-13,0.14268637685779093
2017-12-14,0.0
2017-12-15,0.05385048754063284
2017-12-18,0.15789473684210667
2017-12-19,0.43589743589744273
2017-12-20,0.5624999999999989
2017-12-21,0.5294117647058816
2017-12-22,0.6097560975609736
2017-12-25,0.589743589743592
2017-12-26,0.42857142857143016
2017-12-27,0.36842105263159136
2017-12-28,0.6666666666666876
2017-12-29,0.23076923076923878
2018-01-02,0.05263157894736764
2018-01-03,0.25581395348836755
2018-01-04,0.34883720930231654
2018-01-05,0.2765957446808422
2018-01-08,0.6071428571428542
2018-01-09,0.596491228070169
2018-01-10,0.390624999999998
2018-01-11,0.37096774193548243
2018-01-12,0.48437500000000044
2018-01-15,0.20408163265306256
2018-01-16,0.4210526315789547
2018-01-17,0.8285714285714343
2018-01-18,0.771428571428579
2018-01-19,0.6333333333333426
2018-01-22,0.5000000000000049
2018-01-23,0.39393939393939176
2018-01-24,0.0
2018-01-25,0.0
2018-01-26,0.0
2018-01-29,0.0
2018-01-30,0.0
2018-01-31,0.2727272727272633
2018-02-01,0.6551724137931015
2018-02-02,0.7142857142857152
2018-02-05,0.8363636363636398
2018-02-06,1.0
2018-02-07,1.0
2018-02-08,0.39999999999999863
2018-02-09,0.3773584905660369
2018-02-12,0.3529411764705926
2018-02-13,0.38888888888890055
2018-02-14,0.38888888888890055
2018-02-22,1.0
2018-02-23,0.7812500000000103
2018-02-26,0.8727272727272771
2018-02-27,0.5483870967741951
2018-02-28,0.4626865671641773
2018-03-01,0.5324675324675293
2018-03-02,0.7289719626168194
2018-03-05,0.6071428571428514
2018-03-06,0.8378378378378325
2018-03-07,0.9253731343283546
2018-03-08,0.7500000000000013
2018-03-09,0.2558139534883744
2018-03-12,0.22916666666666935
2018-03-13,0.0
2018-03-14,0.0
2018-03-15,0.0
2018-03-16,0.0
2018-03-19,0.0
2018-03-20,0.0
2018-03-21,0.17948717948717596
2018-03-22,0.3555555555555495
2018-03-23,0.6315789473684248
2018-03-26,0.8888888888888782
2018-03-27,0.77419354838709
2018-03-28,0.8703703703703679
2018-03-29,0.8541666666666656
2018-03-30,0.7674418604651179
2018-04-02,0.8181818181818262
2018-04-03,0.9333485814091333
2018-04-04,0.30797105796806995
2018-04-09,0.5094999149515256
2018-04-10,0.5718962435903853
2018-04-11,0.4608285693072937
2018-04-12,0.37140852296733745
2018-04-13,0.722476230061818
2018-04-16,0.28999742411300544
2018-04-17,0.20781871753591588
2018-04-18,0.23529411764705566
2018-04-19,0.2656249999999963
2018-04-20,0.015873015873013305
2018-04-23,0.17647058823528872
2018-04-24,0.21428571428571216
2018-04-25,0.27586206896550725
2018-04-26,0.20588235294117133
2018-04-27,0.3333333333333394
2018-05-02,0.4814814814814905
2018-05-03,0.7500000000000031
2018-05-04,0.741935483870975
2018-05-07,0.9354838709677497
2018-05-08,0.7073170731707262
2018-05-09,0.42857142857142455
2018-05-10,0.21212121212121718
2018-05-11,0.23529411764706054
2018-05-14,0.2352941176470778
2018-05-15,0.50000000000002
2018-05-16,0.8888888888889082
2018-05-17,0.8888888888888884
2018-05-18,0.9393939393939381
2018-05-21,0.9285714285714254
2018-05-22,0.714285714285716
2018-05-23,0.7948717948717934
2018-05-24,0.9178082191780841
2018-05-25,0.6666666666666666
2018-05-28,0.6363636363636346
2018-05-29,0.7249999999999956
2018-05-30,0.5844155844155831
2018-05-31,0.1343283582089509
2018-06-01,0.37096774193547993
2018-06-04,0.3538461538461527
2018-06-05,0.28813559322034404
2018-06-06,0.28333333333333904
2018-06-07,0.36170212765958054
2018-06-08,0.07500000000000673
2018-06-11,0.16216216216216625
2018-06-12,0.06249999999999808
2018-06-13,0.30612244897958857
2018-06-14,0.4054054054054005
2018-06-15,0.48387096774192595
2018-06-19,0.8431372549019578
2018-06-20,0.9797979797979757
2018-06-21,0.9042553191489289
2018-06-22,0.9199999999999946
2018-06-25,0.9326923076923046
2018-06-26,0.21904761904761805
2018-06-27,0.11999999999999864
2018-06-28,0.2500000000000001
2018-06-29,0.19230769230769662
2018-07-02,0.14423076923077158
2018-07-03,0.6111111111111222
2018-07-04,0.687500000000017
2018-07-05,0.2592592592592582
2018-07-06,0.25925925925925447
2018-07-09,0.3478260869564877
2018-07-10,0.030303030303003926
2018-07-11,0.11764705882351384
2018-07-12,0.1081081081080939
2018-07-13,0.10526315789472337
2018-07-16,0.41379310344828657
2018-07-17,0.630434782608707
2018-07-18,0.5416666666666715
2018-07-19,0.7857142857142863
2018-07-20,0.8958333333333269
2018-07-23,0.5499999999999873
2018-07-24,0.4594594594594504
2018-07-25,0.6341463414634133
2018-07-26,0.4871794871794842
2018-07-27,0.281250000000004
2018-07-30,0.3600000000000116
2018-07-31,0.4166666666666706
2018-08-01,0.047619047619040525
2018-08-02,0.28571428571428037
2018-08-03,0.5862068965517238
2018-08-06,0.914285714285712
2018-08-07,0.9240506329113904
2018-08-08,1.0
2018-08-09,1.0
2018-08-10,0.9444682458256765
2018-08-13,0.4220758236754376
2018-08-14,0.28326719411652657
2018-08-15,0.2007148579527899
2018-08-16,0.0
2018-08-17,0.14571273729765577
2018-08-20,0.15619448537150074
2018-08-21,0.16666666666666533
2018-08-22,0.34482758620689385
2018-08-23,0.5593220338983007
2018-08-24,0.38461538461538014
2018-08-27,0.7454545454545448
2018-08-28,0.719298245614031
2018-08-29,0.6304347826086962
2018-08-30,0.3333333333333386
2018-08-31,0.7187500000000014
2018-09-03,0.49180327868852025
2018-09-04,0.5735294117647053
2018-09-05,0.4642857142857116
2018-09-06,0.5945945945945897
2018-09-07,0.2187500000000002
2018-09-10,0.28846153846154204
2018-09-11,0.11764705882353121
2018-09-12,0.3488372093023309
2018-09-13,0.4042553191489433
2018-09-14,0.45238095238095943
2018-09-17,0.36734693877551494
2018-09-18,0.5818181818181862
2018-09-19,0.41071428571428714
2018-09-20,0.2592592592592606
2018-09-21,0.44444444444444553
2018-09-25,0.6792452830188627
2018-09-26,0.3793103448275778
2018-09-27,0.47999999999999693
2018-09-28,0.4897959183673415
2018-10-08,0.47916666666665947
2018-10-09,0.14893617021277275
2018-10-10,0.40000000000001756
2018-10-11,0.6718750000000088
2018-10-12,0.8026315789473779
2018-10-15,0.8000000000000103
2018-10-16,1.0
2018-10-17,0.9354838709677332
2018-10-18,0.44262295081967057
2018-10-19,0.22727272727273082
2018-10-22,0.13636363636363652
2018-10-23,0.23999999999999483
2018-10-24,0.30612244897959584
2018-10-25,0.8857142857142802
2018-10-26,0.6521739130434705
2018-10-29,0.7209302325581329
2018-10-30,0.4999999999999905
2018-10-31,0.6153846153846029
2018-11-01,0.30188679245282113
2018-11-02,0.38095238095236933
2018-11-05,0.3260869565217353
2018-11-06,0.3947368421052683
2018-11-07,0.1481481481481548
2018-11-08,0.5000000000000316
2018-11-09,0.5833333333333891
2018-11-12,1.0
2018-11-13,1.0
2018-11-14,0.826086956521752
2018-11-15,0.8518518518518612
2018-11-16,0.6874999999999948
2018-11-19,0.5
2018-11-20,0.2608695652173885
2018-11-21,0.19354838709677108
2018-11-22,0.07407407407406862
2018-11-23,0.0769230769230727
2018-11-26,0.05714285714285455
2018-11-27,0.35714285714285454
2018-11-28,0.634146341463416
2018-11-29,0.6250000000000034
2018-11-30,0.7435897435897475
2018-12-03,1.0
2018-12-04,0.8804347826086953
2018-12-05,0.7954545454545431
2018-12-06,0.7419354838709646
2018-12-07,0.7931344428814112
2018-12-10,0.227014974282985
2018-12-11,0.24121656656031332
2018-12-12,0.23699985125687809
2018-12-13,0.2329220693788642
2018-12-14,0.0
2018-12-17,0.0
2018-12-18,0.0
2018-12-19,0.16670198488380777
2018-12-20,0.24137931034483323
2018-12-21,0.2916666666666783
2018-12-24,0.6000000000000153
2018-12-25,0.6590909090909199
2018-12-26,0.5000000000000082
2018-12-27,0.5490196078431391
2018-12-28,0.8461538461538438
2019-01-02,0.49999999999999295
2019-01-03,0.5263157894736772
2019-01-04,0.5660377358490498
2019-01-07,0.596491228070175
2019-01-08,0.4523809523809522
2019-01-09,0.7916666666666625
2019-01-10,0.3793103448275817
2019-01-11,0.5757575757575712
2019-01-14,0.24999999999999203
2019-01-15,0.17021276595744844
2019-01-16,0.4153846153846215
2019-01-17,0.4821428571428655
2019-01-18,0.3392857142857217
2019-01-21,0.5102040816326657
2019-01-22,0.6578947368421015
2019-01-23,0.17647058823529466
2019-01-24,0.19354838709677363
2019-01-25,0.6136363636363541
2019-01-28,0.4374999999999917
2019-01-29,0.4901960784313717
2019-01-30,0.6097560975609803
2019-01-31,0.6938775510204133
2019-02-01,0.32500000000000556
2019-02-11,0.6136363636363682
2019-02-12,0.5476190476190421
2019-02-13,0.6818181818181683
2019-02-14,0.7021276595744546
2019-02-15,0.7857142857142844
2019-02-18,0.6333333333333262
2019-02-19,0.7352941176470688
2019-02-20,0.750000000000008
2019-02-21,0.3846153846153928
2019-02-22,0.5405405405405391
2019-02-25,0.594594594594594
2019-02-26,0.6511627906976634
2019-02-27,0.42222222222221173
2019-02-28,0.7608695652173909
2019-03-01,0.7142857142857182
2019-03-04,0.7209302325581468
2019-03-05,0.46341463414635115
2019-03-06,0.7179487179487212
2019-03-07,0.48000000000000476
2019-03-08,0.5384615384615362
2019-03-11,0.32352941176468963
2019-03-12,0.34374999999998535
2019-03-13,0.12499999999999799
2019-03-14,0.08333333333333068
2019-03-15,0.029411764705884906
2019-03-18,0.18518518518520086
2019-03-19,0.36363636363637153
2019-03-20,0.3333333333333518
2019-03-21,1.0
2019-03-22,0.6153846153846338
2019-03-25,0.5833333333333256
2019-03-26,0.3636363636363544
2019-03-27,0.222222222222203
2019-03-28,0.1666666666666417
2019-03-29,0.28571428571426183
2019-04-01,0.05000000000000462
2019-04-02,0.052631578947374615
2019-04-03,0.05000000000000466
2019-04-04,0.2173913043478442
2019-04-08,0.4375000000000061
2019-04-09,0.7428571428571423
2019-04-10,0.7894736842105173
2019-04-11,1.0
2019-04-12,1.0
2019-04-15,0.8235294117647085
2019-04-16,0.5253366652783563
2019-04-17,0.41649545054300896
2019-04-18,0.38313552090606084
2019-04-19,0.2108280776476379
2019-04-22,0.24465355004277015
2019-04-23,0.2640541649569112
2019-04-24,0.33369983507419804
2019-04-25,0.041415865600563956
2019-04-26,0.09304672519932541
2019-04-29,0.3928571428571591
2019-04-30,0.6000000000000252
2019-05-06,0.7560975609756269
2019-05-07,1.0
2019-05-08,1.0
2019-05-09,0.8611111111110895
2019-05-10,0.8484848484848203
2019-05-13,0.7727272727272224
2019-05-14,0.4705882352940567
2019-05-15,0.3181818181817688
2019-05-16,0.5833333333333279
2019-05-17,0.714285714285716
2019-05-20,0.5757575757575899
2019-05-21,0.7297297297297405
2019-05-22,0.9111111111111176
2019-05-23,0.7906976744186035
2019-05-24,0.4782608695652184
2019-05-27,0.5116279069767504
2019-05-28,0.33333333333333953
2019-05-29,0.0
2019-05-30,0.4146341463414884
2019-05-31,0.7750000000000258
2019-06-03,0.6326530612244939
2019-06-04,0.7608695652173906
2019-06-05,0.6140350877192929
2019-06-06,0.2999999999999941
2019-06-10,0.07547169811320789
2019-06-11,0.08333333333333388
2019-06-12,0.1020408163265261
2019-06-13,0.12499999999999517
2019-06-14,0.23809523809522315
2019-06-17,0.5499999999999754
2019-06-18,0.7999999999999766
2019-06-19,0.37931034482757325
2019-06-20,0.37931034482757325
2019-06-21,0.46874999999999617
2019-06-24,0.24999999999999725
2019-06-25,0.10810810810810996
2019-06-26,0.3666666666666622
2019-06-27,0.3437499999999971
2019-06-28,0.2499999999999929
2019-07-01,0.42105263157894607
2019-07-02,0.5
2019-07-03,0.08333333333334968
2019-07-04,0.6470588235294472
2019-07-05,0.6111111111111527
2019-07-08,0.5000000000000294
2019-07-09,0.7200000000000344
2019-07-10,0.8400000000000112
2019-07-11,0.5238095238095265
2019-07-12,0.36666666666666087
2019-07-15,0.5151515151515106
2019-07-16,0.24324324324324267
2019-07-17,0.14285714285714568
2019-07-18,0.28571428571428437
2019-07-19,0.5652173913043498
2019-07-22,0.476190476190474
2019-07-23,0.7222222222222199
2019-07-24,0.944444444444439
2019-07-25,0.7777777777777777
2019-07-26,0.3684210526315793
2019-07-29,0.4883720930232589
2019-07-30,0.4499999999999986
2019-07-31,0.25000000000000255
2019-08-01,0.28571428571429397
2019-08-02,0.6666666666666812
2019-08-05,0.3928571428571388
2019-08-06,0.25806451612902065
2019-08-07,0.6938775510204092
2019-08-08,0.7499999999999895
2019-08-09,0.7586206896551666
2019-08-12,0.8823529411764657
2019-08-13,1.0
2019-08-14,0.749999999999998
2019-08-15,0.7857142857142873
2019-08-16,0.6415094339622667
2019-08-19,0.6935483870967748
2019-08-20,0.5869565217391273
2019-08-21,0.6428571428571401
2019-08-22,0.3548387096774093
2019-08-23,0.4770218674071375
2019-08-26,0.06645164277225427
2019-08-27,0.029429180483182125
2019-08-28,0.03854132335549765
2019-08-29,0.03377219060562218
2019-08-30,0.22084166689498003
2019-09-02,0.35870677762448494
2019-09-03,0.20400647920831952
2019-09-04,0.3482985848547078
2019-09-05,0.3589743589743628
2019-09-06,0.15217391304348452
2019-09-09,0.14893617021277158
2019-09-10,0.41025641025641174
2019-09-11,0.214285714285709
2019-09-12,0.3658536585365745
2019-09-16,0.6363636363636199
2019-09-17,0.7142857142857063
2019-09-18,0.5517241379310355
2019-09-19,0.9166666666666758
2019-09-20,0.8437500000000139
2019-09-23,0.7000000000000092
2019-09-24,0.5151515151515234
2019-09-25,0.4473684210526343
2019-09-26,0.0
2019-09-27,0.30555555555555536
2019-09-30,0.5116279069767414
2019-10-08,0.674418604651158
2019-10-09,0.8604651162790663
2019-10-10,0.711538461538461
2019-10-11,0.4999999999999923
2019-10-14,0.31249999999999445
2019-10-15,0.19047619047618744
2019-10-16,0.028571428571421083
2019-10-17,0.2692307692307453
2019-10-18,0.5789473684210331
2019-10-21,0.9230769230769135
2019-10-22,0.7500000000000122
2019-10-23,0.7647058823529603
2019-10-24,0.8000000000000158
2019-10-25,0.42857142857144664
2019-10-28,0.44827586206897074
2019-10-29,0.6470588235294166
2019-10-30,0.5263157894736775
2019-10-31,0.4
2019-11-01,0.7777777777777662
2019-11-04,0.5757575757575798
2019-11-05,0.4399999999999904
2019-11-06,0.7142857142857184
2019-11-07,0.6551724137931059
2019-11-08,0.5833333333333195
2019-11-11,0.9310344827586202
2019-11-12,0.9393939393939419
2019-11-13,0.6111111111111172
2019-11-14,0.5000000000000046
2019-11-15,0.3829787234042681
2019-11-18,0.13157894736843875
2019-11-19,0.0
2019-11-20,0.0
2019-11-21,0.07407407407408399
2019-11-22,0.08695652173914253
2019-11-25,0.22727272727274214
2019-11-26,0.45454545454551676
2019-11-27,0.6666666666666992
2019-11-28,0.6666666666666774
2019-11-29,0.950000000000011
2019-12-02,0.6153846153846119
2019-12-03,0.7954545454545429
2019-12-04,0.7999999999999998
2019-12-05,0.7234042553191559
2019-12-06,0.5111111111111123
2019-12-09,0.5227272727272803
2019-12-10,0.11764705882353396
2019-12-11,0.0
2019-12-12,0.24999999999999467
2019-12-13,0.3333333333333286
2019-12-16,0.5752281909322008
2019-12-17,0.5042300629590601
2019-12-18,0.463309179107825
2019-12-19,0.2077919461735089
2019-12-20,0.4063910398647632
2019-12-23,0.32359821121432786
2019-12-24,0.6715628162498266
2019-12-25,0.9244493437034375
2019-12-26,0.8724953760789252
2019-12-27,0.44827586206894776
2019-12-30,0.37499999999998745
2019-12-31,0.3030303030302887
2020-01-02,0.0
2020-01-03,0.0
2020-01-06,0.3333333333333331
2020-01-07,0.400000000000012
2020-01-08,0.6400000000000111
2020-01-09,0.6956521739130552
2020-01-10,0.900000000000007
2020-01-13,0.6785714285714359
2020-01-14,0.655172413793092
2020-01-15,0.40740740740739695
2020-01-16,0.617647058823516
2020-01-17,0.27777777777777773
2020-01-20,0.3750000000000001
2020-01-21,0.5250000000000105
2020-01-22,0.7111111111111234
2020-01-23,0.536585365853671
2020-02-03,0.8846153846153846
2020-02-04,0.9076923076923074
2020-02-05,0.8947368421052619
2020-02-06,0.7017543859649105
2020-02-07,0.7272727272727314
2020-02-10,0.29629629629629545
2020-02-11,0.019607843137251314
2020-02-12,0.0
2020-02-13,0.0
2020-02-14,0.1632653061224441
2020-02-17,0.29629629629628795
2020-02-18,0.6111111111111138
2020-02-19,0.6111111111110998
2020-02-20,0.6999999999999735
2020-02-21,0.2999999999999799
2020-02-24,0.3157894736841928
2020-02-25,0.13636363636361118
2020-02-26,0.1764705882352646
2020-02-27,0.17647058823530412
2020-02-28,0.4999999999999835
2020-03-02,0.8064516129032221
2020-03-03,1.0
2020-03-04,0.9259259259259381
2020-03-05,0.7096774193548359
2020-03-06,0.6896551724138024
2020-03-09,0.03846153846156115
2020-03-10,0.3243243243243335
2020-03-11,0.4390243902439002
2020-03-12,0.7090909090909101
2020-03-13,0.6440677966101693
2020-03-16,0.9305555555555576
2020-03-17,0.8615384615384635
2020-03-18,0.8524590163934466
2020-03-19,0.5344827586206968
2020-03-20,0.6071428571428615
2020-03-23,0.10869565217391942
2020-03-24,0.1041666666666727
2020-03-25,0.05454545454545196
2020-03-26,0.14999999999999314
2020-03-27,0.07142857142856812
2020-03-30,0.11111111111110296
2020-03-31,0.3333333333333333
2020-04-01,0.6400000000000008
2020-04-02,0.7749999999999972
2020-04-03,0.9344262295081902
2020-04-07,0.9827586206896586
2020-04-08,0.894736842105262
2020-04-09,0.8846153846153828
2020-04-10,0.5607251764902417
2020-04-13,0.04369462977140979
2020-04-14,0.04366239514740833
2020-04-15,0.2584248164358652
2020-04-16,0.3197803242484247
2020-04-17,0.42410870155564906
2020-04-20,0.9012851450698858
2020-04-21,0.8757293200283648
2020-04-22,0.616388089346741
2020-04-23,0.5652173913043662
2020-04-24,0.7037037037037037
2020-04-27,0.555555555555532
2020-04-28,0.555555555555532
2020-04-29,0.4761904761904654
2020-04-30,0.6071428571428511
2020-05-06,0.32352941176471395
2020-05-07,0.2558139534883822
2020-05-08,0.5384615384615465
2020-05-11,0.7236842105263218
2020-05-12,0.4731182795698915
2020-05-13,0.564705882352936
2020-05-14,0.6233766233766164
2020-05-15,0.39999999999999014
2020-05-18,0.07999999999999367
2020-05-19,0.2499999999999913
2020-05-20,0.5609756097560942
2020-05-21,0.7118644067796578
2020-05-22,0.5833333333333337
2020-05-25,0.6774193548387124
2020-05-26,0.687500000000003
2020-05-27,0.353846153846159
2020-05-28,0.07547169811321873
2020-05-29,0.4423076923077068
2020-06-01,0.4107142857142906
2020-06-02,0.34545454545454835
2020-06-03,0.6315789473684199
2020-06-04,0.5853658536585219
2020-06-05,0.1282051282051186
2020-06-08,0.33333333333333015
2020-06-09,0.47058823529411264
2020-06-10,0.36538461538461914
2020-06-11,0.5000000000000047
2020-06-12,0.8378378378378515
2020-06-15,0.7241379310344918
2020-06-16,0.4444444444444481
2020-06-17,0.7096774193548328
2020-06-18,0.6785714285714244
2020-06-19,0.6086956521739101
2020-06-22,0.5185185185185117
2020-06-23,0.8124999999999925
2020-06-24,0.6153846153846192
2020-06-29,0.7727272727272758
2020-06-30,0.7872340425531948
2020-07-01,0.7115384615384743
2020-07-02,0.5555555555555671
2020-07-03,0.5813953488372166
2020-07-06,0.13636363636364163
2020-07-07,0.0
2020-07-08,0.0
2020-07-09,0.3333333333333359
2020-07-10,0.38181818181818583
2020-07-13,0.48837209302325557
2020-07-14,0.7857142857142814
2020-07-15,0.84905660377358
2020-07-16,0.5999999999999888
2020-07-17,0.5714285714285526
2020-07-20,0.9056603773584838
2020-07-21,0.9009900990098938
2020-07-22,0.8969072164948386
2020-07-23,0.9999999999999976
2020-07-24,1.0
2020-07-27,1.0
2020-07-28,1.0
2020-07-29,1.0
2020-07-30,0.6382978723404286
2020-07-31,0.5548780487804895
2020-08-03,0.45108695652173875
2020-08-04,0.08474576271186444
2020-08-05,0.07428571428571434
2020-08-06,0.1192660550458711
2020-08-07,0.23529411764705568
2020-08-10,0.25925925925925775
2020-08-11,0.4516129032258045
2020-08-12,0.1807228915662621
2020-08-13,0.1685393258426934
2020-08-14,0.12299807815503078
2020-08-17,0.1445899787525902
2020-08-18,0.2907728171383015
2020-08-19,0.5060495881349893
2020-08-20,0.4241599876031915
2020-08-21,0.1306125782421204
2020-08-24,0.3242007787221272
2020-08-25,0.18969354488154988
2020-08-26,0.28909707478425184
2020-08-27,0.46315789473684527
2020-08-28,0.5789473684210574
2020-08-31,0.2783505154639168
2020-09-01,0.36249999999999555
2020-09-02,0.3855421686746965
2020-09-03,0.17647058823529424
2020-09-04,0.38709677419354815
2020-09-07,0.762500000000001
2020-09-08,0.7912087912087932
2020-09-09,0.6145833333333335
2020-09-10,0.867647058823528
2020-09-11,0.8512396694214861
2020-09-14,0.772277227722771
2020-09-15,0.7766990291262107
2020-09-16,0.9509803921568625
2020-09-17,0.5937499999999954
2020-09-18,0.6867469879518023
2020-09-21,0.6333333333333301
2020-09-22,0.5975609756097529
2020-09-23,0.6597938144329876
2020-09-24,0.5663716814159282
2020-09-25,0.2826086956521723
2020-09-28,0.44585987261146254
2020-09-29,0.3423913043478253
2020-09-30,0.1606217616580308
2020-10-09,0.3622448979591848
2020-10-12,0.5901639344262333
2020-10-13,0.437500000000004
2020-10-14,0.6408839779005557
2020-10-15,0.8579881656804734
2020-10-16,0.8235294117647054
2020-10-19,0.7499999999999978
2020-10-20,0.9882352941176461
2020-10-21,0.7894736842105208
2020-10-22,0.28070175438596223
2020-10-23,0.10465116279069762
2020-10-26,0.09473684210526312
2020-10-27,0.0
2020-10-28,0.0
2020-10-29,0.1477272727272726
2020-10-30,0.25000000000000017
2020-11-02,0.6777777777777805
2020-11-03,0.6931818181818225
2020-11-04,0.7349397590361418
2020-11-05,0.5517241379310314
2020-11-06,0.5454545454545418
2020-11-09,0.0
2020-11-10,0.025641025641027708
2020-11-11,0.29545454545454897
2020-11-12,0.43037974683544866
2020-11-13,0.4047619047619124
2020-11-16,0.8500000000000101
2020-11-17,0.8461538461538561
2020-11-18,0.37500000000000894
2020-11-19,0.2857142857142889
2020-11-20,0.37499999999999317
2020-11-23,0.21428571428571566
2020-11-24,0.4634146341463385
2020-11-25,0.7234042553191512
2020-11-26,0.6590909090909083
2020-11-27,0.7083333333333315
2020-11-30,0.9780219780219759
2020-12-01,0.9036144578313166
2020-12-02,0.833333333333324
2020-12-03,0.8765432098765371
2020-12-04,0.8989898989898948
2020-12-07,0.42500000000000193
2020-12-08,0.532806974063635
2020-12-09,0.47315760973991605
2020-12-10,0.30901612728650923
2020-12-11,0.1169896689029286
2020-12-14,0.16640534920857716
2020-12-15,0.0
2020-12-16,0.15749030577632792
2020-12-17,0.2620945823518694
2020-12-18,0.22837550522060776
2020-12-21,0.4285714285714211
2020-12-22,0.6545454545454508
2020-12-23,0.7205882352941168
2020-12-24,0.6911764705882317
2020-12-25,0.9677419354838679
2020-12-28,0.7636363636363638
2020-12-29,0.8266666666666674
2020-12-30,0.5217391304347859
2020-12-31,0.5810810810810849
2021-01-04,0.5921052631578994
2021-01-05,0.5844155844155865
2021-01-06,0.2972972972972964
2021-01-07,0.3055555555555553
2021-01-08,0.38271604938271636
2021-01-11,0.528301886792449
2021-01-12,0.6637168141592898
2021-01-13,0.8741258741258753
2021-01-14,1.0
2021-01-15,0.9805194805194805
2021-01-18,0.8345864661654157
2021-01-19,0.6917293233082717
2021-01-20,0.3818181818181808
2021-01-21,0.0
2021-01-22,0.17968750000000058
2021-01-25,0.34848484848484856
2021-01-26,0.34328358208955306
2021-01-27,0.39655172413793155
2021-01-28,0.7142857142857151
2021-01-29,0.5473684210526321
2021-02-01,0.3052631578947375
2021-02-02,0.37179487179487214
2021-02-03,0.4520547945205481
2021-02-04,0.06557377049180198
2021-02-05,0.08163265306122322
2021-02-08,0.5111111111111099
2021-02-09,0.43396226415093914
2021-02-10,0.30158730158729863
2021-02-18,0.6399999999999995
2021-02-19,0.5999999999999979
2021-02-22,0.3972602739726043
2021-02-23,0.7310924369747925
2021-02-24,0.88607594936709
2021-02-25,0.7602739726027392
2021-02-26,0.8164556962025317
2021-03-01,0.7247191011235943
2021-03-02,0.5916666666666652
2021-03-03,0.18947368421052665
2021-03-04,0.20224719101123728
2021-03-05,0.3173076923076889
2021-03-08,0.3586956521739098
2021-03-09,0.44339622641508863
2021-03-10,0.6555555555555537
2021-03-11,0.6704545454545449
2021-03-12,0.3880597014925372
2021-03-15,0.6769230769230801
2021-03-16,0.27777777777777984
2021-03-17,0.17999999999999935
2021-03-18,0.2699999999999967
2021-03-19,0.19148936170212472
2021-03-22,0.1492537313432832
2021-03-23,0.25
2021-03-24,0.24390243902439243
2021-03-25,0.26190476190476564
2021-03-26,0.6285714285714374
2021-03-29,0.5000000000000087
2021-03-30,0.8113207547169815
2021-03-31,0.7543859649122704
2021-04-01,0.7499999999999901
2021-04-02,0.8989898989898957
2021-04-06,0.7837837837837822
2021-04-07,0.7362637362637346
2021-04-08,0.8409090909090933
2021-04-09,0.5423728813559356
2021-04-12,0.1734693877551047
2021-04-13,0.34313725490196084
2021-04-14,0.21186440677966167
2021-04-15,0.1842105263157848
2021-04-16,0.34481404123687726
2021-04-19,0.48906364673677477
2021-04-20,0.19701855795558576
2021-04-21,0.48982301848183757
2021-04-22,0.2021093871173486
2021-04-23,0.34947895932369705
2021-04-26,0.36715444114231094
2021-04-27,0.30873591182165094
2021-04-28,0.24610675992711437
2021-04-29,0.6202531645569627
2021-04-30,0.42857142857143044
2021-05-06,0.5454545454545441
2021-05-07,0.853448275862069
2021-05-10,0.9145299145299123
2021-05-11,0.78571428571428
2021-05-12,0.886597938144327
2021-05-13,0.897196261682241
2021-05-14,0.529411764705883
2021-05-17,0.5833333333333348
2021-05-18,0.5333333333333362
2021-05-19,0.4159292035398249
2021-05-20,0.16101694915254272
2021-05-21,0.19191919191919163
2021-05-24,0.0
2021-05-25,0.05063291139240603
2021-05-26,0.4020618556701058
2021-05-27,0.48750000000000265
2021-05-28,0.6219512195121999
2021-05-31,0.7183098591549323
2021-06-01,0.7368421052631607
2021-06-02,0.262500000000003
2021-06-03,0.41095890410958796
2021-06-04,0.2903225806451606
2021-06-07,0.41176470588235464
2021-06-08,0.2602739726027385
2021-06-09,0.542857142857144
2021-06-10,0.29411764705883503
2021-06-11,0.14285714285714468
2021-06-15,0.31034482758620646
2021-06-16,0.4457831325301192
2021-06-17,0.47058823529411703
2021-06-18,0.6941628447989308
2021-06-21,1.0
2021-06-22,0.6597956399206701
2021-06-23,0.666869259859534
2021-06-24,0.6657412274035013
2021-06-25,0.4025659822745591
2021-06-28,0.1761568493066884
2021-06-29,0.4424886366926259
2021-06-30,0.23856793460386377
2021-07-01,0.36718749999999845
2021-07-02,0.5108695652173924
2021-07-05,0.41666666666666563
2021-07-06,0.3000000000000006
2021-07-07,0.5
2021-07-08,0.0
2021-07-09,0.13513513513512396
2021-07-12,0.14705882352939892
2021-07-13,0.1944444444444463
2021-07-14,0.6081081081081074
2021-07-15,0.8666666666666624
2021-07-16,0.9058823529411745
2021-07-19,1.0
2021-07-20,0.8389830508474555
2021-07-21,0.5596330275229325
2021-07-22,0.42857142857143005
2021-07-23,0.19672131147541103
2021-07-26,0.0
2021-07-27,0.10810810810810827
2021-07-28,0.12213740458015292
2021-07-29,0.1651376146789072
2021-07-30,0.1855670103092866
2021-08-02,0.6867469879518084
2021-08-03,0.5394736842105314
2021-08-04,0.6666666666666728
2021-08-05,0.6666666666666644
2021-08-06,0.8815789473684228
2021-08-09,0.3181818181818186
2021-08-10,0.413793103448274
2021-08-11,0.45744680851063474
2021-08-12,0.5952380952380956
2021-08-13,0.5486725663716796
2021-08-16,1.0
2021-08-17,0.8526315789473713
2021-08-18,0.8679245283018887
2021-08-19,0.5979381443298976
2021-08-20,0.5494505494505506
2021-08-23,0.3787878787878634
2021-08-24,0.656252329849695
2021-08-25,0.32584411039590605
2021-08-26,0.7392766077507412
2021-08-27,0.6919304722957785
2021-08-30,0.6081530671462924
2021-08-31,0.4396848437353883
2021-09-01,0.601464406234529
2021-09-02,0.12386265485050434
2021-09-03,0.11344186084313451
2021-09-06,0.1401869158878598
2021-09-07,0.18292682926830875
2021-09-08,0.014705882352961665
2021-09-09,0.019607843137282022
2021-09-10,0.21621621621626141
2021-09-13,0.16279069767443935
2021-09-14,0.41935483870968293
2021-09-15,0.3058823529411809
2021-09-16,0.6052631578947376
2021-09-17,0.7196261682242941
2021-09-22,0.8203124999999973
2021-09-23,0.6771653543307059
2021-09-24,0.8421052631578949
2021-09-27,0.839285714285714
2021-09-28,0.5714285714285746
2021-09-29,0.5384615384615424
2021-09-30,0.7000000000000022
2021-10-08,0.8032786885245915
2021-10-11,0.6611570247933899
2021-10-12,0.8606557377049187
2021-10-13,0.8750000000000004
2021-10-14,0.8859060402684575
2021-10-15,0.8785714285714296
2021-10-18,1.0
2021-10-19,1.0
2021-10-20,0.8912133891213403
2021-10-21,0.8980392156862756
2021-10-22,0.7209302325581405
2021-10-25,0.7894736842105275
2021-10-26,0.4540165804904822
2021-10-27,0.4317322192282014
2021-10-28,0.3606954085206647
2021-10-29,0.39741923412331054
2021-11-01,0.0
2021-11-02,0.019980221229215785
2021-11-03,0.037380722602603667
2021-11-04,0.034502023950076614
2021-11-05,0.1468462685330926
2021-11-08,0.8482142857142865
2021-11-09,0.6107382550335564
2021-11-10,0.5632911392405072
2021-11-11,0.631205673758864
2021-11-12,0.48936170212765706
2021-11-15,0.0
2021-11-16,0.24074074074073976
2021-11-17,0.2899999999999972
2021-11-18,0.22480620155038672
2021-11-19,0.23966942148760384
2021-11-22,0.5119047619047632
2021-11-23,0.17171717171716944
2021-11-24,0.19607843137254943
2021-11-25,0.353658536585368
2021-11-26,0.3152173913043461
2021-11-29,0.14563106796116654
2021-11-30,0.36486486486486386
2021-12-01,0.3733333333333297
2021-12-02,0.21590909090908866
2021-12-03,0.4470588235294136
2021-12-06,0.6944444444444474
2021-12-07,0.5277777777777808
2021-12-08,0.40259740259740606
2021-12-09,0.5789473684210503
2021-12-10,0.25454545454544586
2021-12-13,0.14583333333333137
2021-12-14,0.38297872340425176
2021-12-15,0.38297872340425176
2021-12-16,0.7040816326530644
2021-12-17,0.8023255813953509
2021-12-20,0.6455787435803801
2021-12-21,0.6776451359717353
2021-12-22,0.7729953534578706
2021-12-23,0.2578410387213374
2021-12-24,0.28592680257985886
2021-12-27,0.3430575001685681
2021-12-28,0.07711449065775593
2021-12-29,0.20298119777375712
2021-12-30,0.5917601570299671
2021-12-31,0.5443037974683607
2022-01-04,0.5696202531645613
2022-01-05,0.8823529411764836
2022-01-06,0.6046511627907016
2022-01-07,0.05555555555554565
2022-01-10,0.43137254901959377
2022-01-11,0.2777777777777726
2022-01-12,0.6330935251798533
2022-01-13,0.6027397260273957
2022-01-14,0.6666666666666666
2022-01-17,0.5811965811965836
2022-01-18,0.7346938775510221
2022-01-19,0.06349206349206497
2022-01-20,0.1632653061224527
2022-01-21,0.15384615384615846
2022-01-24,0.1538461538461572
2022-01-25,0.3529411764705867
2022-01-26,0.45283018867924374
2022-01-27,0.6329113924050623
2022-01-28,0.767676767676766
2022-02-07,0.8656716417910442
2022-02-08,0.8593749999999996
2022-02-09,1.0
2022-02-10,0.9743589743589772
2022-02-11,0.969387755102044
2022-02-14,0.6321839080459788
2022-02-15,0.41836734693877703
2022-02-16,0.06143377237290875
2022-02-17,0.05715755125203745
2022-02-18,0.0
2022-02-21,0.0
2022-02-22,0.0982214241378532
2022-02-23,0.41781847500575797
2022-02-24,0.574621784135529
2022-02-25,0.9429330328396645
2022-02-28,1.0
2022-03-01,1.0
2022-03-02,1.0
2022-03-03,0.912790697674415
2022-03-04,0.815602836879432
2022-03-07,0.5806451612903201
2022-03-08,0.5617977528089905
2022-03-09,0.15841584158416422
2022-03-10,0.43548387096775
2022-03-11,0.5986394557823169
2022-03-14,0.5986394557823169
2022-03-15,0.47058823529411814
2022-03-16,0.7244094488188966
2022-03-17,0.39705882352940813
2022-03-18,0.15151515151515055
2022-03-21,0.12987012987012853
2022-03-22,0.12599315182340914
2022-03-23,0.0
2022-03-24,0.0
2022-03-25,0.0
2022-03-28,0.3420574415952293
2022-03-29,0.5092165521485704
2022-03-30,0.8074685557748482
2022-03-31,0.8553328550828639
2022-04-01,1.0
2022-04-06,0.8837209302325505
2022-04-07,0.49999999999999645
2022-04-08,0.24999999999999464
2022-04-11,0.250000000000003
2022-04-12,0.08474576271186876
2022-04-13,0.057471264367819366
2022-04-14,0.25641025641025844
2022-04-15,0.23255813953488597
2022-04-18,0.15306122448979526
2022-04-19,0.5461538461538457
2022-04-20,0.7657657657657649
2022-04-21,0.6796116504854381
2022-04-22,0.7142857142857115
2022-04-25,0.9126984126984122
2022-04-26,0.6276595744680818
2022-04-27,0.5625000000000002
2022-04-28,0.7846153846153812
2022-04-29,0.8628571428571421
2022-05-05,0.6503067484662579
2022-05-06,0.7898089171974536
2022-05-09,0.7085714285714293
2022-05-10,0.5193798449612429
2022-05-11,0.1267605633802845
2022-05-12,0.24793388429752525
2022-05-13,0.09022556390977618
2022-05-16,0.10000000000000205
2022-05-17,0.08823529411764876
2022-05-18,0.18421052631579365
2022-05-19,0.028985507246379202
2022-05-20,0.045454545454549834
2022-05-23,0.3508771929824542
2022-05-24,0.6451612903225873
2022-05-25,0.7555555555555598
2022-05-26,0.6296296296296333
2022-05-27,0.6415094339622562
2022-05-30,0.41025641025640436
2022-05-31,0.2461538461538431
2022-06-01,0.34666666666666124
2022-06-02,0.44444444444444053
2022-06-06,0.46666666666666656
2022-06-07,0.39999999999999875
2022-06-08,0.693877551020408
2022-06-09,0.22222222222223448
2022-06-10,0.2631578947368492
2022-06-13,0.34146341463415264
2022-06-14,0.4827586206896722
2022-06-15,0.23529411764706326
2022-06-16,0.1777777777777764
2022-06-17,0.13953488372093373
2022-06-20,0.046511627906981094
2022-06-21,0.31578947368421023
2022-06-22,0.6894586135712829
2022-06-23,0.9662309947967752
2022-06-24,0.9758423187312685
2022-06-27,1.0
2022-06-28,1.0
2022-06-29,0.6951006836717285
2022-06-30,0.38993156838170917
2022-07-01,0.03805384878099335
2022-07-04,0.15945560425901825
2022-07-05,0.23809523809524222
2022-07-06,0.5675675675675695
2022-07-07,0.8750000000000043
2022-07-08,0.5737704918032797
2022-07-11,0.8317152103559864
2022-07-12,0.7852564102564095
2022-07-13,0.7544483985765107
2022-07-14,0.6634304207119728
2022-07-15,0.8007662835249032
2022-07-18,0.015810276679841494
2022-07-19,0.19587628865979298
2022-07-20,0.19256756756756713
2022-07-21,0.2359550561797743
2022-07-22,0.3200000000000003
2022-07-25,0.9056603773584894
2022-07-26,0.40566037735848953
2022-07-27,0.41346153846153705
2022-07-28,0.5158730158730154
2022-07-29,0.22222222222222227
2022-08-01,0.19580419580419658
2022-08-02,0.4038461538461591
2022-08-03,0.39622641509434325
2022-08-04,0.2643678160919564
2022-08-05,0.5714285714285694
2022-08-08,0.8906249999999959
2022-08-09,0.6323529411764601
2022-08-10,0.7999999999999948
2022-08-11,0.6562499999999986
2022-08-12,0.6333333333333343
2022-08-15,0.6250000000000012
2022-08-16,0.8584905660377402
2022-08-17,0.8101265822784866
2022-08-18,0.9275362318840547
2022-08-19,0.6404494382022448
2022-08-22,0.42222222222222255
2022-08-23,0.02881878095386505
2022-08-24,0.0
2022-08-25,0.0
2022-08-26,0.2457778154969002
2022-08-29,0.6105610561056047
2022-08-30,0.5149128633330142
2022-08-31,0.43618047368984564
2022-09-01,0.3878961162735277
2022-09-02,0.2516133675599133
2022-09-05,0.0
2022-09-06,0.22307692307692548
2022-09-07,0.25217391304348147
2022-09-08,0.4925373134328351
2022-09-09,0.618705035971227
2022-09-13,0.9477124183006543
2022-09-14,0.7250000000000003
2022-09-15,0.7777777777777771
2022-09-16,0.5393939393939392
2022-09-19,0.4394904458598705
2022-09-20,0.07462686567163979
2022-09-21,0.4430379746835423
2022-09-22,0.4499999999999987
2022-09-23,0.6862745098039219
2022-09-26,0.724137931034483
2022-09-27,0.7191780821917805
2022-09-28,0.37815126050420145
2022-09-29,0.2661290322580655
2022-09-30,0.0
2022-10-10,0.0673076923076872
2022-10-11,0.22077922077921863
2022-10-12,0.23611111111111086
2022-10-13,0.5869565217391339
2022-10-14,0.6626506024096398
2022-10-17,0.5274725274725335
2022-10-18,0.431818181818186
2022-10-19,0.7283950617283994
2022-10-20,0.24175824175823687
2022-10-21,0.2795322837068555
2022-10-24,0.48374211523109995
2022-10-25,0.6912311345918849
2022-10-26,0.6667734566525505
2022-10-27,1.0
2022-10-28,0.9672650835132371
2022-10-31,0.960759342810931
2022-11-01,0.4940569759323635
2022-11-02,0.38657418942733723
2022-11-03,0.07462686567165118
2022-11-04,0.24675324675325083
2022-11-07,0.16867469879517707
2022-11-08,0.19444444444444153
2022-11-09,0.17948717948717596
2022-11-10,0.27941176470587964
2022-11-11,0.06250000000000175
2022-11-14,0.06849315068493396
2022-11-15,0.275862068965521
2022-11-16,0.2857142857142918
2022-11-17,0.5402298850574752
2022-11-18,0.6714285714285724
2022-11-21,0.7564102564102564
2022-11-22,0.5581395348837235
2022-11-23,0.7543859649122828
2022-11-24,0.4424778761061961
2022-11-25,0.5970149253731357
2022-11-28,0.4822695035461019
2022-11-29,0.6400000000000011
2022-11-30,0.3999999999999993
2022-12-01,0.5968992248062008
2022-12-02,0.38211382113821013
2022-12-05,0.57462686567164
2022-12-06,0.44545454545454133
2022-12-07,0.7543859649122775
2022-12-08,0.5153846153846134
2022-12-09,0.6422018348623827
2022-12-12,0.36363636363636326
2022-12-13,0.3200000000000019
2022-12-14,0.02272727272727424
2022-12-15,0.14545454545454842
2022-12-16,0.11304347826087095
2022-12-19,0.36607142857143177
2022-12-20,0.4361702127659586
2022-12-21,0.9196428571428567
2022-12-22,0.8411214953271033
2022-12-23,0.8421574681083072
2022-12-26,0.6553556190405541
2022-12-27,0.76229220400373
2022-12-28,0.3522746910573966
2022-12-29,0.46345067743540014
2022-12-30,0.5134429163555192
2023-01-03,0.5939496738769253
2023-01-04,0.2772267240509624
2023-01-05,0.6380296375872712
2023-01-06,0.2941176470588238
2023-01-09,0.20000000000005144
2023-01-10,0.11538461538464817
2023-01-11,0.07894736842107694
2023-01-12,0.04545454545456745
2023-01-13,0.30000000000000454
2023-01-16,0.2539682539682501
2023-01-17,0.4705882352941133
2023-01-18,0.7499999999999977
2023-01-19,0.9382716049382649
2023-01-20,0.7499999999999958
2023-01-30,0.8404255319148956
2023-01-31,0.8214285714285742
2023-02-01,0.7303370786516808
2023-02-02,0.2631578947368435
2023-02-03,0.2500000000000012
2023-02-06,0.11764705882353009
2023-02-07,0.037037037037037604
2023-02-08,0.03703703703703794
2023-02-09,0.05714285714285921
2023-02-10,0.07296970585003369
2023-02-13,0.13318833381856435
2023-02-14,0.3438613442840748
2023-02-15,0.6356007193217807
2023-02-16,0.6980250783699082
2023-02-17,0.8682274065191415
2023-02-20,0.40400650973944663
2023-02-21,0.29899647964474957
2023-02-22,0.16655088572420956
2023-02-23,0.42307692307692113
2023-02-24,0.2948717948717921
2023-02-27,0.6567164179104384
2023-02-28,0.7457627118644081
2023-03-01,0.8255813953488387
2023-03-02,0.6153846153846144
2023-03-03,0.7297297297297346
2023-03-06,0.7014925373134371
2023-03-07,0.8437499999999969
2023-03-08,0.5934065934065889
2023-03-09,0.6352941176470626
2023-03-10,0.6265060240963874
2023-03-13,0.3619047619047645
2023-03-14,0.04347826086956855
2023-03-15,0.07042253521127516
2023-03-16,0.2083333333333337
2023-03-17,0.25974025974025033
2023-03-20,0.499999999999982
2023-03-21,1.0
2023-03-22,1.0
2023-03-23,1.0
2023-03-24,1.0
2023-03-27,1.0
2023-03-28,0.5619834710743795
2023-03-29,0.3307692307692328
2023-03-30,0.26562500000000516
2023-03-31,0.3333333333333334
2023-04-03,0.10417099096539903
2023-04-04,0.2048601508195517
2023-04-06,0.41071833587144185
2023-04-07,0.7146776256107013
2023-04-10,0.7447692608525623
2023-04-11,1.0
2023-04-12,0.9099770362046206
2023-04-13,0.9362390559573635
2023-04-14,0.5692649367130838
2023-04-17,0.25999999999999557
2023-04-18,0.2155172413793068
2023-04-19,0.3228346456692892
2023-04-20,0.14953271028037415
2023-04-21,0.22784810126582236
2023-04-24,0.5111111111111047
2023-04-25,0.838709677419349
2023-04-26,0.6666666666666554
2023-04-27,0.6250000000000122
2023-04-28,0.7391304347826203
2023-05-04,0.8695652173913115
2023-05-05,0.7551020408163367
2023-05-08,0.7692307692307783
2023-05-09,0.6557377049180332
2023-05-10,0.7835051546391772
2023-05-11,0.6
2023-05-12,0.7346938775510161
2023-05-15,0.7678571428571404
2023-05-16,0.9026548672566347
2023-05-17,0.4749999999999975
2023-05-18,0.4560000000000006
2023-05-19,0.2844827586206929
2023-05-22,0.13559322033898297
2023-05-23,0.0
2023-05-24,0.07936507936508239
2023-05-25,0.10000000000000211
2023-05-26,0.3999999999999983
2023-05-29,0.4347826086956518
2023-05-30,0.5813953488372033
2023-05-31,0.3921568627450946
2023-06-01,0.30769230769230665
2023-06-02,0.09433962264150408
2023-06-05,0.2978723404255416
2023-06-06,0.20454545454547227
2023-06-07,0.3529411764706013
2023-06-08,0.8076923076923104
2023-06-09,0.3818181818181995
2023-06-12,0.460317460317458
2023-06-13,0.4214201053774324
2023-06-14,0.35288098383225236
2023-06-15,0.4455505519467499
2023-06-16,0.796942960109349
2023-06-19,0.5300038335739476
2023-06-20,0.6491867234404255
2023-06-21,0.7532752487058777
2023-06-26,0.5691417901951391
2023-06-27,0.47509847798346766
2023-06-28,0.7222222222222187
2023-06-29,0.6097560975609735
2023-06-30,0.6734693877550991
2023-07-03,0.9782608695652167
2023-07-04,0.9767441860465106
2023-07-05,0.9807692307692302
2023-07-06,0.772727272727279
2023-07-07,0.4393939393939483
2023-07-10,0.2500000000000017
2023-07-11,0.19696969696970287
2023-07-12,0.0
2023-07-13,0.08771929824561636
2023-07-14,0.13888888888889084
2023-07-17,0.5526315789473758
2023-07-18,0.7368421052631621
2023-07-19,0.9333333333333221
2023-07-20,0.7399999999999973
2023-07-21,0.6981132075471669
2023-07-24,0.4285714285714271
2023-07-25,0.0
2023-07-26,0.207317073170738
2023-07-27,0.2857142857142886
2023-07-28,0.28947368421053116
2023-07-31,0.4878048780487799
2023-08-01,0.9508196721311531
2023-08-02,0.5694444444444375
2023-08-03,0.607594936708856
2023-08-04,0.6543209876543123
2023-08-07,0.48611111111111055
2023-08-08,0.3833333333333274
2023-08-09,0.8200000000000093
2023-08-10,0.6170212765957456
2023-08-11,0.7977098817613955
2023-08-14,0.8159634359980181
2023-08-15,0.6354873225442802
2023-08-16,0.6948185948297918
2023-08-17,0.803192405683046
2023-08-18,0.46235333217415264
2023-08-21,0.46182781515191784
2023-08-22,0.4915595720583698
2023-08-23,0.23298396136610658
2023-08-24,0.0
2023-08-25,0.1184210526315792
2023-08-28,0.2771084337349385
2023-08-29,0.5102040816326537
2023-08-30,0.6329113924050617
2023-08-31,0.7352941176470579
2023-09-01,0.6833333333333315
2023-09-04,0.7397260273972579
2023-09-05,0.42187499999999534
2023-09-06,0.4090909090909068
2023-09-07,0.442622950819672
2023-09-08,0.3506493506493521
2023-09-11,0.0
2023-09-12,0.13157894736841924
2023-09-13,0.3164556962025324
2023-09-14,0.3164556962025305
2023-09-15,0.574712643678158
2023-09-18,0.958904109589038
2023-09-19,0.7894736842105242
2023-09-20,0.6428571428571389
2023-09-21,0.6428571428571388
2023-09-22,0.3703703703703669
2023-09-25,0.0
2023-09-26,0.23404255319149114
2023-09-27,0.30769230769231026
2023-09-28,0.3243243243243324
2023-10-09,0.48387096774194993
2023-10-10,0.48387096774194993
2023-10-11,0.30434782608696126
2023-10-12,0.20689655172413896
2023-10-13,0.4761904761904746
2023-10-16,0.5111111111111065
2023-10-17,0.8813559322033893
2023-10-18,0.9222222222222225
2023-10-19,1.0
2023-10-20,0.801574871526086
2023-10-23,0.7094838675571378
2023-10-24,0.44556383103173725
2023-10-25,0.16186433637208084
2023-10-26,0.0
2023-10-27,0.20357993938757138
2023-10-30,0.3238155843154098
2023-10-31,0.44234669877885613
2023-11-01,0.8979591836734732
2023-11-02,0.6470588235294135
2023-11-03,0.3725490196078462
2023-11-06,0.06250000000000949
2023-11-07,0.37142857142857755
2023-11-08,0.32394366197182956
2023-11-09,0.6093749999999956
2023-11-10,0.7166666666666612
2023-11-13,0.7962962962962833
2023-11-14,0.6764705882352766
2023-11-15,0.7187500000000091
2023-11-16,0.5714285714285937
2023-11-17,0.34782608695653805
2023-11-20,0.7714285714285889
2023-11-21,0.5853658536585572
2023-11-22,0.7222222222222286
2023-11-23,0.5312500000000017
2023-11-24,0.5396825396825387
2023-11-27,0.27272727272726555
2023-11-28,0.2631578947368315
2023-11-29,0.0
2023-11-30,0.0
2023-12-01,0.24137931034482035
2023-12-04,0.25454545454544875
2023-12-05,0.42307692307692096
2023-12-06,0.7272727272727211
2023-12-07,0.8139534883720994
2023-12-08,0.7714285714285809
2023-12-11,1.0
2023-12-12,1.0
2023-12-13,1.0
2023-12-14,1.0
2023-12-15,0.8148148148148122
2023-12-18,0.8148148148148106
2023-12-19,0.30596507144476937
2023-12-20,0.5432154052843683
2023-12-21,0.5393754125125916
2023-12-22,0.5630620829707011
2023-12-25,0.4588308282998557
2023-12-26,0.6269714322275137
2023-12-27,0.1083486047873649
2023-12-28,0.0
2023-12-29,0.0
2024-01-02,0.0526315789473662
2024-01-03,0.30303030303030415
2024-01-04,0.36363636363636126
2024-01-05,0.5
2024-01-08,0.7666666666666663
2024-01-09,0.5890410958904136
2024-01-10,0.37142857142857755
2024-01-11,0.7478991596638682
2024-01-12,0.7142857142857132
2024-01-15,0.5675675675675648
2024-01-16,0.6701030927835022
2024-01-17,0.7977528089887586
2024-01-18,0.10526315789474154
2024-01-19,0.2000000000000044
2024-01-22,0.5192307692307736
2024-01-23,0.5689655172413831
2024-01-24,0.5798319327731092
2024-01-25,0.7752808988764076
2024-01-26,0.7752808988764077
2024-01-29,0.49206349206349104
2024-01-30,0.26562499999999106
2024-01-31,0.12307692307692403
2024-02-01,0.1956521739130372
2024-02-02,0.01851851851851207
2024-02-05,0.01619223906481345
2024-02-06,0.1544843860016327
2024-02-07,0.14810355207705794
2024-02-08,0.12717534431830393
2024-02-19,0.38312166390576197
2024-02-20,0.6646305787638326
2024-02-21,0.5670526709002545
2024-02-22,0.9022888133100431
2024-02-23,0.9569130079083712
2024-02-26,0.5882352941176432
2024-02-27,0.3142857142857143
2024-02-28,0.30985915492957755
2024-02-29,0.04285714285714295
2024-03-01,0.0
2024-03-04,0.27272727272727276
2024-03-05,0.5531914893617021
2024-03-06,0.5416666666666667
2024-03-07,0.8823529411764709
2024-03-08,0.8888888888888893
2024-03-11,0.38888888888888873
2024-03-12,0.388888888888889
2024-03-13,0.3999999999999999
2024-03-14,0.4000000000000002
2024-03-15,0.5531914893617021
2024-03-18,0.9189189189189187
2024-03-19,0.8965517241379342
2024-03-20,0.9629629629629808
2024-03-21,0.9166666666667237
2024-03-22,0.3333333333333857
2024-03-25,4.1618143006097696e-14
2024-03-26,0.0
2024-03-27,0.32352941176471006
2024-03-28,0.5599999999999971
2024-03-29,0.7837837837837781
2024-04-01,0.9722222222222087
2024-04-02,0.9459459459459447
2024-04-03,0.774193548387105
2024-04-08,0.5
2024-04-09,0.29999999999999294
2024-04-10,0.0
2024-04-11,0.0
2024-04-12,0.0
2024-04-15,0.0
2024-04-16,0.0
2024-04-17,0.3333333333333176
2024-04-18,0.6676529766836108
2024-04-19,0.8673907910271424
2024-04-22,0.687297696783745
2024-04-23,0.7806609354050134
2024-04-24,0.5859794700563774
2024-04-25,0.42574116530951084
2024-04-26,0.280583947389272
2024-04-29,0.6461878453038623
2024-04-30,0.44535756617937516
2024-05-06,0.5
2024-05-07,0.7818181818181874
2024-05-08,0.7241379310344894
2024-05-09,0.35384615384616064
2024-05-10,0.43103448275862644
2024-05-13,0.531250000000003
2024-05-14,0.17741935483870566
2024-05-15,0.2033898305084698
2024-05-16,0.4615384615384506
2024-05-17,0.4615384615384503
2024-05-20,0.22499999999999207
2024-05-21,0.5652173913043365
2024-05-22,0.4285714285714213
2024-05-23,0.18749999999999412
2024-05-24,0.3157894736842111
2024-05-27,0.44827586206897607
2024-05-28,0.2571428571428703
2024-05-29,0.3000000000000126
2024-05-30,0.5925925925925964
2024-05-31,0.22222222222222693
2024-06-03,0.31707317073170005
2024-06-04,0.5813953488372076
2024-06-05,0.645833333333334
2024-06-06,0.452830188679251
2024-06-07,0.7272727272727362
2024-06-11,0.7777777777777876
2024-06-12,0.6382978723404401
2024-06-13,0.6136363636363761
2024-06-14,0.9045824241222015
2024-06-17,0.8436985264657367
2024-06-18,0.6277046620566411
2024-06-19,0.8099412602349397
2024-06-20,0.8077078924856846
2024-06-21,0.40736842105261795
2024-06-24,0.6607255919969574
2024-06-25,0.722304897041015
2024-06-26,0.4797106441612145
2024-06-27,0.3461538461538517
2024-06-28,0.4218750000000057
2024-07-01,0.07500000000000792
2024-07-02,0.06122448979592488
2024-07-03,0.07692307692308555
2024-07-04,0.3200000000000095
2024-07-05,0.5000000000000081
2024-07-08,0.2553191489361666
2024-07-09,0.2999999999999916
2024-07-10,0.6805555555555479
2024-07-11,0.6891891891891819
2024-07-12,0.6666666666666597
2024-07-15,0.9538461538461492
2024-07-16,1.0
2024-07-17,0.6562499999999999
2024-07-18,0.6034482758620715
2024-07-19,0.5238095238095263
2024-07-22,0.23611111111111402
2024-07-23,0.0
2024-07-24,0.05128205128204138
2024-07-25,0.18181818181816806
2024-07-26,0.35555555555554075
2024-07-29,0.8918918918918868
2024-07-30,0.7499999999999946
2024-07-31,0.7045454545454579
2024-08-01,0.6578947368421111
2024-08-02,0.67500000000001
2024-08-05,0.6486486486486611
2024-08-06,0.9565217391304446
2024-08-07,1.0
2024-08-08,0.9384615384615453
2024-08-09,0.932203389830516
2024-08-12,0.6507936507936496
2024-08-13,0.3620689655172401
2024-08-14,0.06779661016949169
2024-08-15,0.19047619047618966
2024-08-16,0.09756097560975613
2024-08-19,0.20000000000000678
2024-08-20,0.24415526840781349
2024-08-21,0.38382525383825317
2024-08-22,0.22087522803444834
2024-08-23,0.7504078303425454
2024-08-26,0.7039150498684547
2024-08-27,0.5607225439237551
2024-08-28,0.3622672213948971
2024-08-29,0.2549042907142529
2024-08-30,0.08577252507806543
2024-09-02,0.4107142857142883
2024-09-03,0.5500000000000115
2024-09-04,0.6666666666666718
2024-09-05,0.8461538461538495
2024-09-06,1.0
2024-09-09,0.8285714285714401
2024-09-10,0.6785714285714282
2024-09-11,0.6666666666666666
2024-09-12,0.4827586206896564
2024-09-13,0.2857142857142889
2024-09-18,0.2999999999999884
2024-09-19,0.633333333333321
2024-09-20,0.4062499999999935
2024-09-23,0.786885245901636
2024-09-24,0.824324324324322
2024-09-25,0.8918918918918958
2024-09-26,0.9000000000000046
2024-09-27,1.0
2024-09-30,1.0
2024-10-08,1.0
2024-10-09,0.7551020408163227
2024-10-10,0.5555555555555504
2024-10-11,0.4231090875301947
2024-10-14,0.19391107683733444
2024-10-15,0.0
2024-10-16,0.0
2024-10-17,0.03437353964379938
2024-10-18,0.11672129095844032
2024-10-21,0.2530307519108821
2024-10-22,0.7894584676971154
2024-10-23,1.0
2024-10-24,0.7916666666666773
2024-10-25,0.6712328767123351
2024-10-28,0.5641025641025651
2024-10-29,0.4285714285714243
2024-10-30,0.0
2024-10-31,0.0
2024-11-01,0.1568627450980318
2024-11-04,0.4843750000000007
2024-11-05,0.5740740740740752
2024-11-06,0.5961538461538409
2024-11-07,0.759259259259259
2024-11-08,0.7021276595744772
2024-11-11,0.2173913043478239
2024-11-12,0.24999999999999753
2024-11-13,0.2608695652173886
2024-11-14,0.049999999999999316
2024-11-15,0.048780487804876836
2024-11-18,0.45161290322579944
2024-11-19,0.41379310344826903
2024-11-20,0.8000000000000029
2024-11-21,0.928571428571431
2024-11-22,1.0
2024-11-25,0.7000000000000139
2024-11-26,0.8000000000000093
2024-11-27,0.7391304347826192
2024-11-28,0.6521739130434854
2024-11-29,0.6666666666666731
2024-12-02,0.7619047619047505
2024-12-03,0.5833333333332944
2024-12-04,0.7619047619047451
2024-12-05,0.9516129032258
2024-12-06,0.9206349206349148
2024-12-09,0.9666666666666672
2024-12-10,0.9726027397260283
2024-12-11,0.6129032258064491
2024-12-12,0.14583333333334098
2024-12-13,0.14000000000000698
2024-12-16,0.206669873336541
2024-12-17,0.10308283133164595
2024-12-18,0.2585727952787739
2024-12-19,0.8089649048299268
2024-12-20,1.0
2024-12-23,0.6156535503254267
2024-12-24,0.45243730695039525
2024-12-25,0.3709675284275246
2024-12-26,0.2406975199711645
2024-12-27,0.0
2024-12-30,0.0
2024-12-31,0.0
