date,FCT_Cr_Atr_Dfive
2014-12-19,
2014-12-22,
2014-12-23,
2014-12-24,
2014-12-25,
2014-12-26,
2014-12-29,
2014-12-30,
2014-12-31,
2015-01-05,
2015-01-06,0.6145772537266372
2015-01-07,0.2834280800649688
2015-01-08,0.10729055890346349
2015-01-09,0.02168021680216491
2015-01-12,0.12137592137592451
2015-01-13,-0.7601380042462862
2015-01-14,-0.11744368213494558
2015-01-15,0.030989010989011745
2015-01-16,0.0996732026143814
2015-01-19,0.3426556991774352
2015-01-20,0.2527779069226854
2015-01-21,0.0810455607476652
2015-01-22,0.12615384615384204
2015-01-23,-0.2348335307277298
2015-01-26,-0.12363517489375697
2015-01-27,0.2699187827696079
2015-01-28,0.206597222222219
2015-01-29,0.02609495767390488
2015-01-30,0.13595397890700028
2015-02-02,-0.05179615705931305
2015-02-03,-0.27844410211267695
2015-02-04,-0.3361462728551313
2015-02-05,-0.22939166097060348
2015-02-06,-0.05382395382395529
2015-02-09,-0.05214244592482932
2015-02-10,0.08497143817204551
2015-02-11,0.05009426339886651
2015-02-12,-0.10762987012987557
2015-02-13,0.10008245722531911
2015-02-16,-0.12195841804945284
2015-02-17,0.07947287573773307
2015-02-25,0.2086573734409446
2015-02-26,0.13465224534502046
2015-02-27,-0.05619639160012124
2015-03-02,0.18261809200370507
2015-03-03,-0.06641604010025652
2015-03-04,-0.16226944667201698
2015-03-05,-0.0053824766521729725
2015-03-06,-0.07384826429905311
2015-03-09,0.05353183401964156
2015-03-10,0.16896156052782899
2015-03-11,0.13865398167723633
2015-03-12,0.08054800362492825
2015-03-13,0.1543526549608659
2015-03-16,-0.026941685765218527
2015-03-17,-0.38306959180003436
2015-03-18,-0.19955313503700484
2015-03-19,-0.07004504504504477
2015-03-20,-0.1555481874447402
2015-03-23,-0.13250213128729577
2015-03-24,0.5334937737348728
2015-03-25,0.0695304411376616
2015-03-26,0.047222222222220486
2015-03-27,0.17814938684503895
2015-03-30,0.13190933602965774
2015-03-31,-0.5055568898884253
2015-04-01,0.21145374449338933
2015-04-02,0.007081807081807584
2015-04-03,-0.22494197740987348
2015-04-07,-0.06656129801808638
2015-04-08,0.25867478011405765
2015-04-09,-0.44930700178070965
2015-04-10,-0.02973251795638302
2015-04-13,0.19545995294971233
2015-04-14,0.06528084397600244
2015-04-15,0.014325141374520095
2015-04-16,0.2849780062197562
2015-04-17,-0.03647188035133569
2015-04-20,-0.14206553509339556
2015-04-21,-0.10555875576036469
2015-04-22,-0.3841425713766114
2015-04-23,-0.10890241153933301
2015-04-24,0.10652062216824819
2015-04-27,-0.1158720442540073
2015-04-28,0.09900480439258698
2015-04-29,0.28710971568113974
2015-04-30,0.14441373864982399
2015-05-04,-0.03837025316456004
2015-05-05,0.17174107943338637
2015-05-06,-0.2172519866700879
2015-05-07,0.16157703957495545
2015-05-08,-0.1483596648463819
2015-05-11,-0.17890100671140854
2015-05-12,0.05693151992364523
2015-05-13,0.25618027666220966
2015-05-14,-0.3601139886011382
2015-05-15,0.07453416149067864
2015-05-18,0.05521403192149195
2015-05-19,-0.1555847185768428
2015-05-20,-0.030461073318216195
2015-05-21,0.11697034180077119
2015-05-22,-0.01041666666666515
2015-05-25,0.32401592215833946
2015-05-26,0.35754985754985813
2015-05-27,0.11114175399889589
2015-05-28,0.1319146534206344
2015-05-29,0.043203551912567126
2015-06-01,-0.34269005847952827
2015-06-02,-0.4078144078144062
2015-06-03,-0.3427177177177201
2015-06-04,0.13943634213638334
2015-06-05,0.07988917109212201
2015-06-08,0.4085794655414832
2015-06-09,0.14285714285714046
2015-06-10,0.2293360433604343
2015-06-11,-0.3382735514387093
2015-06-12,-0.16106315311221542
2015-06-15,-0.38221411714224396
2015-06-16,0.16666666666666563
2015-06-17,-0.1228545618789509
2015-06-18,0.18059800664452413
2015-06-19,0.02652917327692191
2015-06-23,0.10709213142695602
2015-06-24,-0.29234972677595666
2015-06-25,0.09282407407407336
2015-06-26,-0.1009290096406733
2015-06-29,0.08679298843233707
2015-06-30,-0.1991756370077735
2015-07-01,0.24420157862781314
2015-07-02,0.07396523178808098
2015-07-03,0.04309351180517336
2015-07-06,-0.16309457413752387
2015-07-07,0.17002654720424776
2015-07-08,0.29244038559107044
2015-07-09,-0.04417154246769552
2015-07-10,0.10008417508417325
2015-07-13,0.28964887090458563
2015-07-14,0.003231292517009415
2015-07-15,-0.7192026317081597
2015-07-16,-0.0951758136727176
2015-07-17,-0.13687600644122425
2015-07-20,-0.18006079027355687
2015-07-21,-0.03597659402744153
2015-07-22,0.3023613746573888
2015-07-23,-0.11313118925713402
2015-07-24,0.03482853643600643
2015-07-27,-0.06857142857142787
2015-07-28,0.1595564607891248
2015-07-29,0.00627290436655324
2015-07-30,0.2948441206554757
2015-07-31,-0.018860491933243198
2015-08-03,-0.004231843323788835
2015-08-04,-0.015530826249952723
2015-08-05,0.0942040431692203
2015-08-06,-0.17829068358922104
2015-08-07,0.10391274091098102
2015-08-10,0.10956747155098183
2015-08-11,-0.213673014239155
2015-08-12,-0.1397558849171749
2015-08-13,0.40807474140807937
2015-08-14,-0.0412647716384532
2015-08-17,-0.14434661723818432
2015-08-18,0.20494008314991702
2015-08-19,0.09855934857500426
2015-08-20,-0.5399800722381414
2015-08-21,-0.06880911554842575
2015-08-24,0.0670840787119873
2015-08-25,-0.07179258504268354
2015-08-26,-0.12357349684891417
2015-08-27,0.14995797466887328
2015-08-28,0.07136420976752392
2015-08-31,0.329069767441859
2015-09-01,-0.00952901888530296
2015-09-02,0.08439344807516189
2015-09-07,0.03917592429318433
2015-09-08,-0.050691244239632414
2015-09-09,-0.4455399061032846
2015-09-10,-0.014423076923075736
2015-09-11,-0.025207020467681113
2015-09-14,-0.008463136033227375
2015-09-15,-0.0147159915472116
2015-09-16,0.03696847753185503
2015-09-17,-0.11538461538461786
2015-09-18,0.2211339385252398
2015-09-21,0.02438456420492121
2015-09-22,0.13198638057304085
2015-09-23,0.10328042328042354
2015-09-24,0.06219312602291088
2015-09-25,-0.37868425337892675
2015-09-28,-0.21237255219291057
2015-09-29,-0.1071016721122405
2015-09-30,0.26362433862433976
2015-10-08,0.6359729463153484
2015-10-09,0.3024305392318146
2015-10-12,0.3042036501446085
2015-10-13,0.10694867333623088
2015-10-14,-0.2942614770459085
2015-10-15,-0.8281230718604766
2015-10-16,-0.23677187182533121
2015-10-19,-0.17222993330850578
2015-10-20,-0.3160755148741423
2015-10-21,-0.06283728838618866
2015-10-22,0.4645196970986155
2015-10-23,0.14782447866092963
2015-10-26,0.09884581237052265
2015-10-27,0.36098104793757213
2015-10-28,0.1660300060897949
2015-10-29,-0.2948083342926253
2015-10-30,-0.03130745658835242
2015-11-02,-0.19150580220681748
2015-11-03,-0.18942121140315757
2015-11-04,-0.04941977401800539
2015-11-05,-0.031441324946137786
2015-11-06,0.25471023229643747
2015-11-09,0.3871378441886064
2015-11-10,0.18044685242879568
2015-11-11,-0.07886174912556723
2015-11-12,0.35255894166791957
2015-11-13,-0.3929842770922221
2015-11-16,-0.28044297981558447
2015-11-17,-0.26863600317208397
2015-11-18,0.12054075867634924
2015-11-19,-0.3765735069430366
2015-11-20,0.24963768115941887
2015-11-23,-0.0018903351856090628
2015-11-24,0.25752659465231914
2015-11-25,-0.0027862208713233874
2015-11-26,0.050549229570421156
2015-11-27,-0.17609489051094687
2015-11-30,-0.00014736221632598995
2015-12-01,-0.20350597609561838
2015-12-02,-0.21325932778291956
2015-12-03,0.09600083027744827
2015-12-04,0.09678016969876337
2015-12-07,0.11613144137415979
2015-12-08,0.04396396396396289
2015-12-09,0.2733441690369764
2015-12-10,0.013824785403098989
2015-12-11,-0.20015682390326198
2015-12-14,-0.1786314413741619
2015-12-15,-0.02278749337572556
2015-12-16,-0.281595157179267
2015-12-17,-0.04289414510574124
2015-12-18,0.1751611998878587
2015-12-21,0.08069126819127116
2015-12-22,0.3277890466531415
2015-12-23,0.21368577075098694
2015-12-24,-0.05893341792675742
2015-12-25,0.007243305721443379
2015-12-28,0.21592244418331083
2015-12-29,-0.35078369905956097
2015-12-30,0.06494834266035185
2015-12-31,0.1392055267702962
2016-01-04,-0.023766294227188074
2016-01-05,-0.2993866137470677
2016-01-06,-0.020033670033667864
2016-01-07,-0.09324282943758253
2016-01-08,-0.17777777777778153
2016-01-11,0.018560606060607193
2016-01-12,0.09817888427847128
2016-01-13,0.04039933788536737
2016-01-14,-0.12776141384388812
2016-01-15,0.13111111111111418
2016-01-18,-0.10769459298871507
2016-01-19,-0.0801587301587331
2016-01-20,0.17864001396648593
2016-01-21,-0.004745254745252461
2016-01-22,0.12960629921259634
2016-01-25,0.07811800519294601
2016-01-26,0.1270935960591144
2016-01-27,-0.17016763245033362
2016-01-28,0.1538461538461515
2016-01-29,-0.16974052740051523
2016-02-01,-0.04794520547944696
2016-02-02,-0.1428285857071438
2016-02-03,-0.0115359965819328
2016-02-04,0.04424885459368481
2016-02-05,-0.1624054543517628
2016-02-15,0.25867801569356613
2016-02-16,0.1498363721365095
2016-02-17,0.341439205955342
2016-02-18,-0.10427918570835358
2016-02-19,0.29910409971759166
2016-02-22,-0.27531206657419405
2016-02-23,0.10545905707196104
2016-02-24,-0.33333333333333537
2016-02-25,-0.036275536930330546
2016-02-26,-0.16254142867216323
2016-02-29,0.34251290877796675
2016-03-01,-0.13962814436748006
2016-03-02,-0.04172058471123821
2016-03-03,0.13724938049110375
2016-03-04,0.02205356651817717
2016-03-07,-0.2563784549964576
2016-03-08,-0.13982187421297304
2016-03-09,0.17547890741983596
2016-03-10,-0.041875913378503264
2016-03-11,0.2258938883258282
2016-03-14,-0.13765670202507052
2016-03-15,0.14896835071560824
2016-03-16,-0.07734806629834116
2016-03-17,-0.1003863716192516
2016-03-18,-0.08061122004878324
2016-03-21,0.27921262830759913
2016-03-22,0.010614055496629176
2016-03-23,-0.0043362457279851035
2016-03-24,0.05844366557295717
2016-03-25,-0.35358778581060823
2016-03-28,-0.28126180863546774
2016-03-29,-0.051121398620794525
2016-03-30,-0.11194282403945545
2016-03-31,0.04696969659960065
2016-04-01,0.2322285625096359
2016-04-05,0.043238993710691453
2016-04-06,-0.11984344422700503
2016-04-07,0.259136212624583
2016-04-08,-0.19883040935672586
2016-04-11,0.10655737704918525
2016-04-12,0.05953878406708672
2016-04-13,0.4400166044001621
2016-04-14,-0.09634551495016432
2016-04-15,0.2527777777777744
2016-04-18,0.11566484517303818
2016-04-19,0.06354453627180803
2016-04-20,-0.2514430014429994
2016-04-21,-0.005002193944714753
2016-04-22,0.073913043478264
2016-04-25,-0.2746913580246909
2016-04-26,0.004280291813604072
2016-04-27,-0.03289571280225415
2016-04-28,-0.0934972015463621
2016-04-29,-0.29649368863955206
2016-05-03,0.026733841684823477
2016-05-04,-0.1739044926556433
2016-05-05,-0.08795565804911556
2016-05-06,0.08919706990968151
2016-05-09,0.1539707796904397
2016-05-10,-0.03513427109974489
2016-05-11,0.2949685534591184
2016-05-12,0.033549783549781345
2016-05-13,-0.05367020767537681
2016-05-16,-0.05649473703960961
2016-05-17,0.0308266467624548
2016-05-18,-0.11356932153392159
2016-05-19,0.044117647058825614
2016-05-20,0.00812757201646169
2016-05-23,0.08392813192222535
2016-05-24,0.05385244226446088
2016-05-25,-0.09960897303972212
2016-05-26,-0.09376921500307589
2016-05-27,0.0883333333333304
2016-05-30,0.04405712902444873
2016-05-31,0.04335465529495329
2016-06-01,-0.012928931533581552
2016-06-02,0.1894550729893928
2016-06-03,-0.13387205387205137
2016-06-06,-0.27014044491308087
2016-06-07,-0.0885317004719991
2016-06-08,0.03323968607811314
2016-06-13,0.003534099054795334
2016-06-14,0.11460079881132346
2016-06-15,0.4802368857135103
2016-06-16,0.07078612601868631
2016-06-17,0.10930336643723758
2016-06-20,-0.1996949296388484
2016-06-21,-0.1142498716998337
2016-06-22,-0.5570247182842628
2016-06-23,0.0017624977110381398
2016-06-24,-0.22916990880512825
2016-06-27,0.09645757616548045
2016-06-28,0.21509317916231213
2016-06-29,0.24785237981832497
2016-06-30,-0.2159224724202154
2016-07-01,0.2904017747740587
2016-07-04,0.051663725703352995
2016-07-05,-0.14007124933948067
2016-07-06,0.0083409882171481
2016-07-07,0.16474137005801115
2016-07-08,-0.18033435904372289
2016-07-11,-0.18468039600982625
2016-07-12,-0.23578651734798223
2016-07-13,-0.042448779290882775
2016-07-14,-0.05624999999999773
2016-07-15,-0.1560529801324497
2016-07-18,0.4237126726073059
2016-07-19,0.2522603978300212
2016-07-20,0.1949371766444938
2016-07-21,0.030071989528795705
2016-07-22,0.3049562059389022
2016-07-25,-0.47382592856577155
2016-07-26,-0.06150409530901441
2016-07-27,-0.3152365559800183
2016-07-28,0.1609297835208503
2016-07-29,-0.16915322580645048
2016-08-01,0.12576382890232582
2016-08-02,0.2682846565199541
2016-08-03,0.0775687017733853
2016-08-04,-0.21960025789813148
2016-08-05,0.0827400662251617
2016-08-08,0.2658833582567784
2016-08-09,-0.46815950007439766
2016-08-10,0.1346775434816084
2016-08-11,0.10420332355816014
2016-08-12,-0.11509766116186991
2016-08-15,-0.18512544802867067
2016-08-16,0.3315123634272583
2016-08-17,-0.14700968927497865
2016-08-18,0.000645161290324759
2016-08-19,0.23239844460991005
2016-08-22,-0.07920634920634809
2016-08-23,-0.192445457505698
2016-08-24,0.1379974326059094
2016-08-25,-0.02000000000000039
2016-08-26,-0.3062908496732005
2016-08-29,0.08127931769722714
2016-08-30,0.18578662475990973
2016-08-31,-0.03289473684210692
2016-09-01,-0.032258064516130225
2016-09-02,0.3891666666666606
2016-09-05,-0.10050292018170084
2016-09-06,-0.17747266717518345
2016-09-07,-0.01973684210526566
2016-09-08,0.019599836668030196
2016-09-09,-0.3997435897435878
2016-09-12,-0.02237108190090871
2016-09-13,0.17004048582995884
2016-09-14,-0.1484374999999977
2016-09-19,0.04018116362791398
2016-09-20,0.1909340659340722
2016-09-21,0.30354957160342516
2016-09-22,-0.15198810850985014
2016-09-23,0.20228365384615693
2016-09-26,-0.10051563650973926
2016-09-27,0.05300899887513484
2016-09-28,-0.2840557275541762
2016-09-29,0.04209799861974152
2016-09-30,0.11550868486351776
2016-10-10,0.2798892524540625
2016-10-11,-0.11086614173228244
2016-10-12,0.03186274509803728
2016-10-13,0.09040717736369693
2016-10-14,-0.19825657281372033
2016-10-17,-0.2723727422003276
2016-10-18,0.052738853503183594
2016-10-19,0.1234276729559739
2016-10-20,0.11151235013722528
2016-10-21,0.08772526351580989
2016-10-24,-0.003968253968252511
2016-10-25,0.1713407484868678
2016-10-26,-0.06075260292796157
2016-10-27,-0.29715762273901825
2016-10-28,-0.10049019607843007
2016-10-31,0.18055555555555297
2016-11-01,-0.2623404715552686
2016-11-02,-0.039876327889647074
2016-11-03,0.04861111111111146
2016-11-04,0.15448717948717797
2016-11-07,-0.1756272401433698
2016-11-08,0.26052687941743347
2016-11-09,0.0022012578616365207
2016-11-10,0.43961864406779505
2016-11-11,-0.0943589743589735
2016-11-14,0.2548484553162467
2016-11-15,-0.2279512890400334
2016-11-16,-0.0019503546099315615
2016-11-17,-0.6020508933902893
2016-11-18,-0.0918881118881136
2016-11-21,-0.3903323262839862
2016-11-22,-0.006201513265012913
2016-11-23,-0.008018705430956126
2016-11-24,0.265665612027812
2016-11-25,0.2849179365942728
2016-11-28,0.14596639862456096
2016-11-29,0.17182859599900674
2016-11-30,0.22663572670755344
2016-12-01,-0.05053728427394529
2016-12-02,-0.3435045644878292
2016-12-05,0.09205641506365048
2016-12-06,-0.22250590611027915
2016-12-07,-0.40000000000000013
2016-12-08,0.014905962384953408
2016-12-09,0.10155634852825293
2016-12-12,-0.09561443672486311
2016-12-13,-0.047435897435896934
2016-12-14,0.16732026143790618
2016-12-15,0.008411472697185757
2016-12-16,0.037123519458545966
2016-12-19,0.14368433826843816
2016-12-20,0.2963414634146333
2016-12-21,0.05395633430677667
2016-12-22,-0.0030968468468467077
2016-12-23,0.0448797250859091
2016-12-26,-0.07138683287884433
2016-12-27,-0.2912689996465191
2016-12-28,0.13126577713667006
2016-12-29,0.014093137254902324
2016-12-30,-0.17116361663296145
2017-01-03,-0.12883631713555332
2017-01-04,0.25535698408464774
2017-01-05,-0.31276336735649135
2017-01-06,-0.05740454076367353
2017-01-09,0.09240634052664441
2017-01-10,0.10713742778960256
2017-01-11,-0.22310550419078823
2017-01-12,0.1443479786021253
2017-01-13,-0.03968590831918299
2017-01-16,0.19242827565808712
2017-01-17,0.09654524579897843
2017-01-18,0.16062126181747652
2017-01-19,0.028944911297846182
2017-01-20,0.0016129032258043324
2017-01-23,-0.25549516908212383
2017-01-24,-0.06665147544719446
2017-01-25,-0.12257207115109414
2017-01-26,-0.09371705671515823
2017-02-03,0.14991511035653454
2017-02-06,0.2853997289972897
2017-02-07,-0.1385470218621739
2017-02-08,0.0361653272101078
2017-02-09,0.28064516129032735
2017-02-10,-0.1122807017543837
2017-02-13,-0.38132884777123555
2017-02-14,0.2597140551135668
2017-02-15,0.11994301994301416
2017-02-16,-0.336986301369866
2017-02-17,0.06507936507936568
2017-02-20,0.24005305039787544
2017-02-21,-0.209761227267104
2017-02-22,-0.04241898148147925
2017-02-23,0.19713667730971268
2017-02-24,0.0888213441404899
2017-02-27,-0.047517039922101045
2017-02-28,0.07827204700913347
2017-03-01,-0.07632958074533952
2017-03-02,-0.053698763036622785
2017-03-03,-0.2359519912711393
2017-03-06,-0.03531462117042955
2017-03-07,-0.08720548202383958
2017-03-08,0.23887998397114715
2017-03-09,-0.03329725048712258
2017-03-10,0.14986737400530836
2017-03-13,0.10898550724637915
2017-03-14,0.24746637184448128
2017-03-15,-0.3226655348047552
2017-03-16,0.17055821243419714
2017-03-17,-0.08683877956309952
2017-03-20,-0.1739226519337032
2017-03-21,-0.29479072568503606
2017-03-22,0.12799707602339117
2017-03-23,-0.16459416235843455
2017-03-24,0.18241738694225346
2017-03-27,0.17091448145620547
2017-03-28,0.15406847410797914
2017-03-29,0.26173485273948216
2017-03-30,-0.0946562610974429
2017-03-31,-0.19312442906290778
2017-04-05,-0.09622259875327283
2017-04-06,0.10023568658068857
2017-04-07,-0.41586544437007367
2017-04-10,0.12061399073755402
2017-04-11,0.2196287196287188
2017-04-12,-0.037537789721194606
2017-04-13,-0.31290849673202636
2017-04-14,0.028542079389539288
2017-04-17,0.03338539632956101
2017-04-18,-0.38496071829405154
2017-04-19,0.08076855895196133
2017-04-20,0.18055555555555142
2017-04-21,0.2436440677966082
2017-04-24,-0.04540598290598331
2017-04-25,0.32629715963049166
2017-04-26,-0.030369426751589684
2017-04-27,0.025641025641033786
2017-04-28,-0.2624999999999935
2017-05-02,-0.022041062801929735
2017-05-03,-0.247155829245378
2017-05-04,0.15549223376913618
2017-05-05,0.05069485222155902
2017-05-08,0.11622340425531082
2017-05-09,0.10144927536231156
2017-05-10,0.12222670431625375
2017-05-11,-0.1907894736842109
2017-05-12,-0.2285097909060702
2017-05-15,0.3204218948899813
2017-05-16,-0.1514111365369864
2017-05-17,0.027027027027027407
2017-05-18,-0.072619047619046
2017-05-19,0.19249649368864524
2017-05-22,-0.3146491751142899
2017-05-23,0.01595524243679658
2017-05-24,0.15126050420168527
2017-05-25,0.08508863399373937
2017-05-26,-0.05536017463013017
2017-05-31,-0.24403810876382923
2017-06-01,0.2794869713450788
2017-06-02,-0.19363338555762097
2017-06-05,0.10884309799108968
2017-06-06,-0.05053617650683554
2017-06-07,0.21568233561001432
2017-06-08,-0.25319209306725204
2017-06-09,0.20427764326069936
2017-06-12,-0.030465689830263022
2017-06-13,0.13588627049180152
2017-06-14,0.07305672941477839
2017-06-15,0.0650660420326671
2017-06-16,-0.29983579638752345
2017-06-19,-0.001180327868852367
2017-06-20,-0.07794608778626314
2017-06-21,0.04003368893879898
2017-06-22,-0.1794479310168879
2017-06-23,0.3158971361776767
2017-06-26,-0.06958273381295019
2017-06-27,0.0076335877862624725
2017-06-28,0.004298642533933611
2017-06-29,0.16477776682763046
2017-06-30,-0.3266147503435676
2017-07-03,0.07713828936850621
2017-07-04,0.10526315789473814
2017-07-05,-0.18917567026810644
2017-07-06,0.04014752370917059
2017-07-07,0.18514499901361206
2017-07-10,-0.09076682316119089
2017-07-11,-0.21475220898962777
2017-07-12,0.13203970112635385
2017-07-13,-0.005459057071960302
2017-07-14,-0.1441886580572678
2017-07-17,0.078314715881497
2017-07-18,0.14254690233455952
2017-07-19,0.0716065573770499
2017-07-20,-0.11456356736243031
2017-07-21,0.2572986069049066
2017-07-24,-0.13214454416627458
2017-07-25,-0.10072702417200141
2017-07-26,-0.13638709677418906
2017-07-27,-0.02704386839481221
2017-07-28,-0.26175583192288104
2017-07-31,0.04693583273251714
2017-08-01,0.2215153267784819
2017-08-02,-0.03732718894010544
2017-08-03,0.18697033898304982
2017-08-04,0.016911437472187693
2017-08-07,0.2947368421052663
2017-08-08,-0.27149321266967774
2017-08-09,0.3276102654176476
2017-08-10,-0.10789321577440274
2017-08-11,0.347566350312032
2017-08-14,-0.4129807188260708
2017-08-15,0.2380978920084273
2017-08-16,-0.4152293130366862
2017-08-17,0.078659344806661
2017-08-18,-0.52505552780121
2017-08-21,0.2645158065453704
2017-08-22,-0.007243286015093539
2017-08-23,0.2580790960451969
2017-08-24,-0.12701612903226123
2017-08-25,0.3977272727272705
2017-08-28,-0.14120370370370977
2017-08-29,-0.18243831640057542
2017-08-30,-0.11780361395153505
2017-08-31,0.06250000000000143
2017-09-01,-0.2019230769230761
2017-09-04,0.30555555555555525
2017-09-05,-0.06945536215609023
2017-09-06,0.01610869869729848
2017-09-07,-0.017241379310343665
2017-09-08,0.47165991902834065
2017-09-11,-0.5012229210342414
2017-09-12,0.2698336723704662
2017-09-13,0.07492016703512695
2017-09-14,0.14052905054321685
2017-09-15,-0.6691270860077041
2017-09-18,0.2831245705829547
2017-09-19,-0.28314754098360717
2017-09-20,-0.020235165436150372
2017-09-21,-0.2051058530510512
2017-09-22,0.531815986476694
2017-09-25,-0.05829418381526232
2017-09-26,0.24723809523809492
2017-09-27,-0.11019961717255007
2017-09-28,0.1755681818181778
2017-09-29,-0.4502828854313936
2017-10-09,0.10521914849139359
2017-10-10,-0.18394777265744516
2017-10-11,0.001667307938955892
2017-10-12,-0.24613095238095178
2017-10-13,0.22656500802567456
2017-10-16,-0.2603886110042255
2017-10-17,0.1276707163803841
2017-10-18,0.1082964601769891
2017-10-19,0.16442914515203322
2017-10-20,-0.009898341359008016
2017-10-23,0.12815975733062765
2017-10-24,0.16585823814739806
2017-10-25,0.17250000000000004
2017-10-26,-0.07816389525041903
2017-10-27,0.01158870627896992
2017-10-30,0.12035380640032296
2017-10-31,-0.32292951332890363
2017-11-01,-0.1742857142857131
2017-11-02,0.0661157024793378
2017-11-03,0.007705218187364027
2017-11-06,-0.12679239951967172
2017-11-07,0.19569644311702322
2017-11-08,0.3002857142857117
2017-11-09,0.1197604790419149
2017-11-10,-0.027060667527197674
2017-11-13,0.04658547194432306
2017-11-14,0.3517331648311985
2017-11-15,-0.4751941391941365
2017-11-16,-0.11124984074404153
2017-11-17,0.16961122769015552
2017-11-20,0.0196478741337311
2017-11-21,-0.6932082606166391
2017-11-22,0.030703573156401653
2017-11-23,-0.056129685916920774
2017-11-24,-0.38009845288326366
2017-11-27,0.050951036937047625
2017-11-28,0.28311965811965845
2017-11-29,0.07704402515723421
2017-11-30,0.12554112554112495
2017-12-01,0.17637215528782102
2017-12-04,-0.0513221916649
2017-12-05,0.02449374754764096
2017-12-06,0.09752750415825963
2017-12-07,-0.02301799269630015
2017-12-08,-0.10044823901162403
2017-12-11,-0.05134431264597842
2017-12-12,-0.19577130040414295
2017-12-13,-0.1212533770708594
2017-12-14,-0.15709386624767477
2017-12-15,0.14291077207068945
2017-12-18,0.07442348296440822
2017-12-19,0.2126528442317945
2017-12-20,0.062315270935956193
2017-12-21,-0.011285396283066587
2017-12-22,0.05560975609755935
2017-12-25,-0.017989417989414582
2017-12-26,-0.08938303902332684
2017-12-27,-0.03677248677248018
2017-12-28,0.12874235287748256
2017-12-29,-0.1702255639097775
2018-01-02,-0.16186103458830775
2018-01-03,0.11449126413154778
2018-01-04,0.0647173489278705
2018-01-05,-0.0661146331996388
2018-01-08,0.27772556390977776
2018-01-09,0.004411856086494137
2018-01-10,-0.2236453201970404
2018-01-11,-0.015087719298245164
2018-01-12,0.1292788301761411
2018-01-15,-0.24204545454545373
2018-01-16,0.1855118565644915
2018-01-17,0.2561128526645753
2018-01-18,-0.036260162601624804
2018-01-19,-0.10322476097877216
2018-01-22,-0.06409861325115643
2018-01-23,-0.06730769230769729
2018-01-24,-0.24439541041482665
2018-01-25,-0.02818428184282171
2018-01-26,-0.02171823947722847
2018-01-29,0.03327821413807033
2018-01-30,-0.11038461538460913
2018-01-31,0.2625772285966417
2018-02-01,0.43111111111111916
2018-02-02,0.06574239713774835
2018-02-05,0.14196962724344298
2018-02-06,0.21821428571428012
2018-02-07,-0.11197339246119105
2018-02-08,-0.6485714285714328
2018-02-09,-0.019230769230768642
2018-02-12,-0.013593020896729223
2018-02-13,0.04611561119293672
2018-02-14,0.0026367831245880068
2018-02-22,0.2969924812030051
2018-02-23,-0.05932203389830297
2018-02-26,0.20023249055506614
2018-02-27,-0.29650380995069814
2018-02-28,-0.09540309540309871
2018-03-01,0.0933526476742284
2018-03-02,0.36013504202838414
2018-03-05,-0.2682432432432426
2018-03-06,0.2226867335562993
2018-03-07,0.06238804442397359
2018-03-08,-0.19470542721343462
2018-03-09,-0.4040388145816931
2018-03-12,-0.039748201438847934
2018-03-13,-0.10128205128205083
2018-03-14,-0.04163102366695336
2018-03-15,0.041265060240962693
2018-03-16,-0.024979321753518538
2018-03-19,-0.06270277895330358
2018-03-20,0.01953327571305056
2018-03-21,0.1271645021645008
2018-03-22,0.11973684210525931
2018-03-23,0.2051282051282089
2018-03-26,0.1095938375350074
2018-03-27,-0.03421859039836491
2018-03-28,0.20616883116883655
2018-03-29,-0.07251461988303579
2018-03-30,-0.09866220735786022
2018-04-02,0.04007936507936995
2018-04-03,0.08900740636615592
2018-04-04,-0.45228455378902144
2018-04-09,0.13627252217127211
2018-04-10,0.05059085016285286
2018-04-11,-0.09208840390242753
2018-04-12,-0.08114684587402009
2018-04-13,0.2915702680747307
2018-04-16,-0.3946058555046066
2018-04-17,-0.13794262881897973
2018-04-18,0.05966210004755196
2018-04-19,0.04790326331292208
2018-04-20,-0.27806122448979564
2018-04-23,0.29635207496653126
2018-04-24,0.04090909090909703
2018-04-25,0.034594325535086366
2018-04-26,-0.08173784977908248
2018-04-27,0.12742019884877667
2018-05-02,0.08449587824983745
2018-05-03,0.19461859979099919
2018-05-04,-0.014186162269779711
2018-05-07,0.1320346320346272
2018-05-08,-0.08864468864469262
2018-05-09,-0.27376910016977063
2018-05-10,-0.15112813963387473
2018-05-11,0.015112374063547696
2018-05-14,0.013468013468021893
2018-05-15,0.18325123152709
2018-05-16,0.15053763440859855
2018-05-17,0.0036387264457393466
2018-05-18,0.15747924322852544
2018-05-21,-0.06498316498317269
2018-05-22,-0.12301957129542782
2018-05-23,0.1023041474654308
2018-05-24,0.326137377341661
2018-05-25,-0.30617232230135116
2018-05-28,-0.03131313131313175
2018-05-29,0.12223587223586749
2018-05-30,-0.19473150962511943
2018-05-31,-0.5035580282054609
2018-06-01,0.256709956709956
2018-06-04,-0.028197945845000898
2018-06-05,-0.04163314561544163
2018-06-06,-0.023905600391291734
2018-06-07,0.07466375863322326
2018-06-08,-0.20942028985507186
2018-06-11,0.08571428571428234
2018-06-12,-0.1856395816572823
2018-06-13,0.2569897483690543
2018-06-14,0.11218161683277786
2018-06-15,0.0643222506393831
2018-06-19,0.8456582633053296
2018-06-20,0.22871116225546573
2018-06-21,-0.20358228050535784
2018-06-22,0.05483778351995412
2018-06-25,0.04135050469892555
2018-06-26,-1.311986863711009
2018-06-27,-0.1302263137706197
2018-06-28,0.20271044092384544
2018-06-29,-0.07098765432098077
2018-07-02,-0.07720484643561348
2018-07-03,0.5010344827586178
2018-07-04,0.04191447182101521
2018-07-05,-0.25652841781874197
2018-07-06,-0.003801169590646504
2018-07-09,0.05848861283642478
2018-07-10,-0.2527956989247263
2018-07-11,0.058165272995577
2018-07-12,-0.06931886678721964
2018-07-13,-0.02902711323763655
2018-07-16,0.3278401122019766
2018-07-17,0.24303666278015099
2018-07-18,-0.09629186602871487
2018-07-19,0.24889431142290347
2018-07-20,0.17171717171716142
2018-07-23,-0.46870967741935965
2018-07-24,-0.08322946960254311
2018-07-25,0.1627005347593618
2018-07-26,-0.13752883875929126
2018-07-27,-0.1448189762796431
2018-07-30,0.06023255813953943
2018-07-31,0.03548850574712058
2018-08-01,-0.17995642701525244
2018-08-02,0.11985815602836698
2018-08-03,0.17120786516853884
2018-08-06,0.5862509583439761
2018-08-07,0.059963768115943235
2018-08-08,0.10653074081767991
2018-08-09,-0.0029584630373768322
2018-08-10,-0.16337839701574935
2018-08-13,-0.7021237566038963
2018-08-14,-0.09717765266305446
2018-08-15,-0.04820469823966958
2018-08-16,-0.1597082036292876
2018-08-17,0.09667485719273981
2018-08-20,-0.029235792937471666
2018-08-21,0.024713884547113433
2018-08-22,0.14206382096974815
2018-08-23,0.2174953271028029
2018-08-24,-0.18746312684365946
2018-08-27,0.3658194292842739
2018-08-28,-0.01639344262295323
2018-08-29,-0.13464912280701435
2018-08-30,-0.24754574727087064
2018-08-31,0.40512820512820497
2018-09-03,-0.24795832159955727
2018-09-04,0.0907736079122112
2018-09-05,-0.12243589743590122
2018-09-06,0.17029820777868598
2018-09-07,-0.45795306388526547
2018-09-10,0.10721900700579196
2018-09-11,-0.1551882460973395
2018-09-12,0.22967032967033407
2018-09-13,0.04575221238938244
2018-09-14,0.031876846524646785
2018-09-17,-0.09531046461137825
2018-09-18,0.24359877848250178
2018-09-19,-0.1989010989011044
2018-09-20,-0.16777777777777847
2018-09-21,0.2099038355255894
2018-09-25,0.26488166387759193
2018-09-26,-0.3437430786268034
2018-09-27,0.12325581395349501
2018-09-28,0.009595959595956674
2018-10-08,-0.011313546870409835
2018-10-09,-0.3521890740023079
2018-10-10,0.27817460317460874
2018-10-11,0.3691492493376441
2018-10-12,0.23181818181818256
2018-10-15,-0.029725609756096096
2018-10-16,0.210292580982227
2018-10-17,-0.12641930251420053
2018-10-18,-0.6179689730655706
2018-10-19,-0.15392762577228358
2018-10-22,-0.06971153846154193
2018-10-23,0.0721212121212095
2018-10-24,0.05622410731900597
2018-10-25,0.36591478696741386
2018-10-26,-0.10201643017177323
2018-10-29,0.04693611473272492
2018-10-30,-0.17722689075630316
2018-10-31,0.10810810810810434
2018-11-01,-0.2752715121136168
2018-11-02,0.08313338038108721
2018-11-05,-0.05477087256747758
2018-11-06,0.06722689075630989
2018-11-07,-0.09630018367882617
2018-11-08,0.15361222370568714
2018-11-09,0.018348623853217394
2018-11-12,0.14629629629629026
2018-11-13,0.041322314049586084
2018-11-14,-0.07058098320233952
2018-11-15,0.030488739083803708
2018-11-16,-0.05604931192661412
2018-11-19,-0.10819672131147383
2018-11-20,-0.0909090909090949
2018-11-21,-0.07260179434092855
2018-11-22,-0.029762852140698633
2018-11-23,-0.0007440476190439596
2018-11-26,-0.09180327868852345
2018-11-27,0.19403122130395048
2018-11-28,0.2111439425918147
2018-11-29,-0.010645545903591947
2018-11-30,0.08240165631470164
2018-12-03,0.6462184873949585
2018-12-04,-0.204227053140098
2018-12-05,-0.14725854425052207
2018-12-06,-0.044916508137816474
2018-12-07,0.1340760178410129
2018-12-10,-0.9097893233916392
2018-12-11,0.026232732637868232
2018-12-12,-0.03771531661966828
2018-12-13,-0.039260591550261605
2018-12-14,-0.3729402591897293
2018-12-17,0.3507503231761618
2018-12-18,0.02056286307077515
2018-12-19,0.15712511278639033
2018-12-20,0.08760029181473608
2018-12-21,0.023358741086802054
2018-12-24,0.2628205128205205
2018-12-25,0.0718105423987752
2018-12-26,-0.16783625730994461
2018-12-27,0.06097560975608932
2018-12-28,0.36254107338443864
2019-01-02,-0.4326923076923096
2019-01-03,0.035294117647058504
2019-01-04,0.04587813620071632
2019-01-07,0.03918881885449073
2019-01-08,-0.17171717171717094
2019-01-09,0.17269230769230715
2019-01-10,-0.2254307783719578
2019-01-11,0.13603400850212694
2019-01-14,-0.25065742290222875
2019-01-15,-0.15824915824914793
2019-01-16,0.28536231884058594
2019-01-17,0.08585858585858802
2019-01-18,-0.1882613510520496
2019-01-21,0.217245240761483
2019-01-22,0.13595302619691543
2019-01-23,-0.4605475040257744
2019-01-24,0.030303030303028625
2019-01-25,0.418315018315023
2019-01-28,-0.19522643818849972
2019-01-29,0.06482670089859896
2019-01-30,0.12268518518519284
2019-01-31,0.1351515151515181
2019-02-01,-0.46593406593407516
2019-02-11,0.3107235142118928
2019-02-12,-0.07588739290086889
2019-02-13,0.1458333333333295
2019-02-14,0.011868131868131876
2019-02-15,0.0748959778086077
2019-02-18,-0.21527777777778345
2019-02-19,0.08708560118754408
2019-02-20,0.006666666666664212
2019-02-21,-0.26948281076721525
2019-02-22,0.1211526544102389
2019-02-25,0.041035353535353744
2019-02-26,0.05498209395406298
2019-02-27,-0.1873451327433569
2019-02-28,0.294477423997119
2019-03-01,-0.06166606563288339
2019-03-04,0.005439005439009964
2019-03-05,-0.20214521452144424
2019-03-06,0.17916331456153586
2019-03-07,-0.17366946778711115
2019-03-08,0.025568593365199805
2019-03-11,-0.1180780004309477
2019-03-12,0.009259259259260633
2019-03-13,-0.07181818181817508
2019-03-14,-0.12180713869706773
2019-03-15,-0.017094017094015642
2019-03-18,0.13841398628417728
2019-03-19,0.10704110704110384
2019-03-20,-0.009999999999996918
2019-03-21,0.14925215925848342
2019-03-22,-0.052631578947369625
2019-03-25,-0.012643678160929775
2019-03-26,-0.05447240931112048
2019-03-27,-0.07692307692308117
2019-03-28,-0.022543059777104642
2019-03-29,0.06467977171845525
2019-04-01,-0.14047619047618337
2019-04-02,0.008172043010758698
2019-04-03,-0.031185031185037043
2019-04-04,0.07251082251083046
2019-04-08,0.13080895008605561
2019-04-09,0.25714285714285656
2019-04-10,0.05681159420289105
2019-04-11,0.18102477477478462
2019-04-12,-0.0120623712856813
2019-04-15,-0.1984126984126956
2019-04-16,-0.23290842764167047
2019-04-17,-0.0686556780372121
2019-04-18,-0.013239396890170244
2019-04-19,-0.08536598836209264
2019-04-22,0.029432846971404285
2019-04-23,0.007639610437367564
2019-04-24,0.03680532414439172
2019-04-25,-0.1746197985121285
2019-04-26,0.0498093120287263
2019-04-29,0.14150732396876822
2019-04-30,0.1212458286985594
2019-05-06,0.17518527983644766
2019-05-07,0.19827586206895556
2019-05-08,-0.004440004440010206
2019-05-09,-0.1577574967405582
2019-05-10,-0.03712745397213983
2019-05-13,-0.13418160786582436
2019-05-14,-0.1166666666666615
2019-05-15,-0.06027114647804368
2019-05-16,0.10600924499231162
2019-05-17,0.09371454504198323
2019-05-20,-0.08363933088534654
2019-05-21,0.09733333333333213
2019-05-22,0.15698729582576873
2019-05-23,-0.0976499690785498
2019-05-24,-0.20819790538099897
2019-05-27,0.023133736189955838
2019-05-28,-0.11955555555555042
2019-05-29,-0.1136665192392699
2019-05-30,0.17808140205234968
2019-05-31,0.2093375065205978
2019-06-03,-0.05924007821170717
2019-06-04,0.08433253397281892
2019-06-05,-0.07551272257154949
2019-06-06,-0.2967395523353613
2019-06-10,-0.16676676676676283
2019-06-11,0.019037170882808797
2019-06-12,0.021728072087781734
2019-06-13,0.05506993006993159
2019-06-14,0.14277076562617488
2019-06-17,0.12306306306306204
2019-06-18,0.09524673439767758
2019-06-19,-0.17663117663117542
2019-06-20,-0.0020816812053927568
2019-06-21,0.05245418158837756
2019-06-24,-0.16204081632653006
2019-06-25,-0.11535162950257044
2019-06-26,0.2114919797846596
2019-06-27,-0.025251940229350997
2019-06-28,-0.04255319148936261
2019-07-01,0.11394557823129417
2019-07-02,0.03288770053475914
2019-07-03,-0.12195121951218096
2019-07-04,0.1827620537619086
2019-07-05,-0.011235955056176545
2019-07-08,-0.045995670995671735
2019-07-09,0.1294117647058827
2019-07-10,0.06884343036977669
2019-07-11,-0.18908227848101405
2019-07-12,-0.09987515605493799
2019-07-15,0.10909090909091204
2019-07-16,-0.23365253077975628
2019-07-17,-0.14036617262423765
2019-07-18,0.15340909090909172
2019-07-19,0.3055555555555651
2019-07-22,-0.09825581395349457
2019-07-23,0.21096345514950662
2019-07-24,0.19699699699699497
2019-07-25,-0.1521335807050065
2019-07-26,-0.3683574879227094
2019-07-29,0.11536107711138535
2019-07-30,-0.03528399311532234
2019-07-31,-0.18191214470283562
2019-08-01,0.04840397697541328
2019-08-02,0.2778091473743523
2019-08-05,-0.18622291021671877
2019-08-06,-0.11406665623533341
2019-08-07,0.4592204389125435
2019-08-08,0.09529473962462044
2019-08-09,-0.00865800865799464
2019-08-12,0.10281329923273835
2019-08-13,0.224473802060015
2019-08-14,-0.4564227470083688
2019-08-15,0.04975717815456275
2019-08-16,-0.14633298574904757
2019-08-19,0.06822742474916231
2019-08-20,-0.13940886699507882
2019-08-21,0.033487975257292364
2019-08-22,-0.16982538992108645
2019-08-23,0.05779517092509868
2019-08-26,-0.1785628931886598
2019-08-27,-0.02604101726479443
2019-08-28,0.04696405506237126
2019-08-29,-0.034806461546650305
2019-08-30,0.059966386252515026
2019-09-02,0.09271124483701074
2019-09-03,-0.1342549930312112
2019-09-04,0.08424161869649692
2019-09-05,0.0030935158159901693
2019-09-06,-0.21560283687942627
2019-09-09,-0.016071428571430655
2019-09-10,0.2685377685377615
2019-09-11,-0.18941061384201985
2019-09-12,0.1472290086151411
2019-09-16,0.22122532683926838
2019-09-17,0.06994382022472471
2019-09-18,-0.14764267990073615
2019-09-19,0.30383141762452376
2019-09-20,-0.09661366670711939
2019-09-23,-0.11038439472174674
2019-09-24,-0.11425075091778869
2019-09-25,-0.05284831846259734
2019-09-26,-0.2586563307493547
2019-09-27,0.15619158878504502
2019-09-30,0.15897435897435552
2019-10-08,0.13793438167345778
2019-10-09,0.15850087839156637
2019-10-10,-0.058437686344661025
2019-10-11,-0.24534313725490517
2019-10-14,-0.19780219780219538
2019-10-15,-0.08053221288515414
2019-10-16,-0.061346302641762475
2019-10-17,0.19963369963369504
2019-10-18,0.15228758169935294
2019-10-21,0.08756137479542572
2019-10-22,-0.030200501253129
2019-10-23,0.009929829206943899
2019-10-24,0.02534562211981571
2019-10-25,-0.16209150326797456
2019-10-28,0.011583924349874857
2019-10-29,0.139931350114416
2019-10-30,-0.08138396257208948
2019-10-31,-0.08624787775890884
2019-11-01,0.21139705882352905
2019-11-04,-0.09841269841269339
2019-11-05,-0.08751680860601453
2019-11-06,0.15124267528793936
2019-11-07,-0.029217904574521156
2019-11-08,-0.05565476190476914
2019-11-11,0.19545653123634443
2019-11-12,0.03067432820687469
2019-11-13,-0.18632492367025172
2019-11-14,-0.06826493295408359
2019-11-15,-0.1047619047618977
2019-11-18,-0.1600823815764863
2019-11-19,-0.16864318102547468
2019-11-20,0.07009794507394347
2019-11-21,0.11195652173913323
2019-11-22,0.030081300813010844
2019-11-25,0.07879101007491834
2019-11-26,0.11546445251687491
2019-11-27,0.06142728093946541
2019-11-28,-0.0011904761904858799
2019-11-29,0.1644923425978454
2019-12-02,-0.13075818869894443
2019-12-03,0.2281042128603114
2019-12-04,0.00034614053306260273
2019-12-05,-0.059845559845551816
2019-12-06,-0.21201912627690545
2019-12-09,0.011150852093420371
2019-12-10,-0.3159090909090954
2019-12-11,-0.04972885658243738
2019-12-12,0.14853603603602922
2019-12-13,0.08411214953270989
2019-12-16,0.13266694474087137
2019-12-17,-0.03165030079930929
2019-12-18,-0.029168521359544633
2019-12-19,-0.13343219236576764
2019-12-20,0.0959401067541848
2019-12-23,-0.03940638470290957
2019-12-24,0.15463880654643636
2019-12-25,0.153873750933681
2019-12-26,-0.00937083793725613
2019-12-27,-0.23135677342085448
2019-12-30,-0.05982067806108002
2019-12-31,-0.06096318929143388
2020-01-02,-0.17814902424600312
2020-01-03,-0.0260349978659867
2020-01-06,0.2548196517413035
2020-01-07,0.048192771084343625
2020-01-08,0.14464135021097524
2020-01-09,0.02964489537095833
2020-01-10,0.19383802816901402
2020-01-13,-0.18533705100869602
2020-01-14,-0.011764705882365693
2020-01-15,-0.17809523809524086
2020-01-16,0.16434970651838177
2020-01-17,-0.2852272727272674
2020-01-20,0.09260073260073381
2020-01-21,0.12864782276548126
2020-01-22,0.19933554817276233
2020-01-23,-0.19006079830822406
2020-02-03,0.4114635364635297
2020-02-04,0.1037681159420279
2020-02-05,-0.10919080919081484
2020-02-06,-0.21187644239304382
2020-02-07,0.028522336769763
2020-02-10,-0.4620121258052263
2020-02-11,-0.259467040673212
2020-02-12,-0.06942070275403253
2020-02-13,0.07081157091201482
2020-02-14,0.1399999999999918
2020-02-17,0.18622766929787823
2020-02-18,0.16561762391817858
2020-02-19,0.0029048656499587808
2020-02-20,0.050657894736832285
2020-02-21,-0.20305220883533803
2020-02-24,0.012048192771086945
2020-02-25,-0.116585365853663
2020-02-26,0.05882352941176754
2020-02-27,0.0059782608695763476
2020-02-28,0.13805220883533537
2020-03-02,0.2533333333333367
2020-03-03,0.08000000000000146
2020-03-04,-0.021276595744676996
2020-03-05,-0.11956521739131173
2020-03-06,-0.02990196078429861
2020-03-09,-0.4393798449612463
2020-03-10,0.15714285714285697
2020-03-11,0.09535066981874732
2020-03-12,0.31746626686657764
2020-03-13,-0.058061002178655396
2020-03-16,0.4675999096861639
2020-03-17,-0.18744588744588764
2020-03-18,-0.05844907407406698
2020-03-19,-0.3798408488063717
2020-03-20,0.0730820105820078
2020-03-23,-0.4467707893625983
2020-03-24,-0.032196969696969654
2020-03-25,-0.11562500000000606
2020-03-26,0.17549857549857156
2020-03-27,-0.08630952380952037
2020-03-30,0.11458447991193338
2020-03-31,0.1425000000000067
2020-04-01,0.18641975308642572
2020-04-02,0.16750841750841602
2020-04-03,0.3048068283917302
2020-04-07,0.043057153816654516
2020-04-08,-0.11816793893130598
2020-04-09,-0.07054673721340694
2020-04-10,-0.3290402657678139
2020-04-13,-0.4401426527731967
2020-04-14,-0.0038818244028251516
2020-04-15,0.16735998001681116
2020-04-16,0.05084915595272836
2020-04-17,0.1067956961781183
2020-04-20,0.27594071498636163
2020-04-21,-0.0052090846880858185
2020-04-22,-0.1800394987126315
2020-04-23,-0.03100788611145778
2020-04-24,0.06942325297527678
2020-04-27,-0.0810810810810909
2020-04-28,0.0002732240437157453
2020-04-29,-0.024152542372878998
2020-04-30,0.0633848133848155
2020-05-06,-0.15008479366873279
2020-05-07,-0.08181818181817638
2020-05-08,0.25401720499918556
2020-05-11,0.23499999999999596
2020-05-12,-0.2922025473749664
2020-05-13,0.13254868992573232
2020-05-14,0.07355371900826217
2020-05-15,-0.2959570957095694
2020-05-18,-0.24849557522123528
2020-05-19,0.21252092400402028
2020-05-20,0.16581196581196678
2020-05-21,0.15905811360356675
2020-05-22,-0.07959770114942243
2020-05-25,0.08849557522124173
2020-05-26,0.012582524271844996
2020-05-27,-0.3705426356589116
2020-05-28,-0.2162142115413066
2020-05-29,0.32793103448275734
2020-06-01,-0.03361344537815895
2020-06-02,-0.058086956521740785
2020-06-03,0.21518549280176766
2020-06-04,-0.02004952472243053
2020-06-05,-0.34887850467289794
2020-06-08,0.1447245564892703
2020-06-09,0.11608695652173817
2020-06-10,-0.09968872870248142
2020-06-11,0.12430503692639558
2020-06-12,0.23364485981308317
2020-06-15,-0.1285024154589414
2020-06-16,-0.15194690265486366
2020-06-17,0.14938549420113104
2020-06-18,-0.030214261801134904
2020-06-19,-0.049125329499158474
2020-06-22,-0.032608695652174995
2020-06-23,0.16721006054960189
2020-06-24,-0.12608565438753344
2020-06-29,0.14711701526286142
2020-06-30,0.016912165848336512
2020-07-01,-0.02482993197278391
2020-07-02,-0.14202786377709045
2020-07-03,0.0164788561735099
2020-07-06,-0.31077646460795416
2020-07-07,-0.16181924653523339
2020-07-08,0.06441326530611861
2020-07-09,0.22623839009287988
2020-07-10,0.04181584813889177
2020-07-13,0.08607324244853917
2020-07-14,0.23037716615698028
2020-07-15,0.11041666666666229
2020-07-16,-0.265231259968104
2020-07-17,-0.026548672566375834
2020-07-20,0.6591294516676134
2020-07-21,-0.07502863688430682
2020-07-22,-0.060199004975118424
2020-07-23,0.5015948963317423
2020-07-24,0.09731543624161602
2020-07-27,-0.5656991026219506
2020-07-28,0.16690260040006216
2020-07-29,-0.0025801513524204567
2020-07-30,-0.5885167464114835
2020-07-31,-0.11160115052732716
2020-08-03,-0.1056242520941383
2020-08-04,-0.39541409670888317
2020-08-05,0.013560406327543365
2020-08-06,0.15524448159940074
2020-08-07,0.07046548956661193
2020-08-10,0.020875732346595052
2020-08-11,0.1358252484971121
2020-08-12,-0.18678124999999865
2020-08-13,-0.029602092799119635
2020-08-14,-0.006283725384846749
2020-08-17,0.040136941125722
2020-08-18,0.09700398650250654
2020-08-19,0.10829077602129472
2020-08-20,-0.03345124553683612
2020-08-21,-0.20753151787634555
2020-08-24,0.11956195149590311
2020-08-25,-0.14146404270483243
2020-08-26,0.08688082161184028
2020-08-27,0.1654603496129788
2020-08-28,0.09130893736805107
2020-08-31,-0.30706547790240935
2020-09-01,0.11485693323550582
2020-09-02,0.029263776516525876
2020-09-03,-0.2137220670391045
2020-09-04,0.2152627008250109
2020-09-07,0.3619712608783666
2020-09-08,0.05572561312926754
2020-09-09,-0.17843537414966346
2020-09-10,0.4429258241758241
2020-09-11,-0.12403990465260047
2020-09-14,-0.17456390263407834
2020-09-15,-0.007535245503163326
2020-09-16,0.15614785992217955
2020-09-17,-0.4008181599422481
2020-09-18,0.07391796368884411
2020-09-21,-0.022922552646141455
2020-09-22,-0.035667681600695
2020-09-23,0.05106825729393866
2020-09-24,-0.044669139643411945
2020-09-25,-0.285381393428116
2020-09-28,0.1853673024882831
2020-09-29,-0.16286197421263804
2020-09-30,-0.307913791634719
2020-10-09,0.35119653288110075
2020-10-12,0.3594643604407891
2020-10-13,-0.23781936474286247
2020-10-14,0.3083523521398356
2020-10-15,0.29972023080957777
2020-10-16,-0.2061562439119437
2020-10-19,-0.17620845453982953
2020-10-20,0.12551786210639138
2020-10-21,-0.20729003836862323
2020-10-22,-0.20601252294615832
2020-10-23,-0.15706214689265371
2020-10-26,-0.03942378445689682
2020-10-27,-0.07454318936877079
2020-10-28,-0.05330117576122729
2020-10-29,0.16365663322184848
2020-10-30,0.1333333333333325
2020-11-02,0.27350427350427287
2020-11-03,0.01339285714285791
2020-11-04,0.032333433825742434
2020-11-05,-0.13931623931623932
2020-11-06,-0.00460829493087608
2020-11-09,-0.4344729344729341
2020-11-10,0.04287790697674469
2020-11-11,0.19438264738598815
2020-11-12,0.11305361305361533
2020-11-13,-0.024517918661355276
2020-11-16,0.203703703703704
2020-11-17,-0.00662790697674492
2020-11-18,-0.18270715388574763
2020-11-19,-0.014362373737375058
2020-11-20,0.024050071460251125
2020-11-23,-0.06122448979591696
2020-11-24,0.07108695652173813
2020-11-25,0.12053369516056245
2020-11-26,-0.03543133802816996
2020-11-27,0.028772824596433093
2020-11-30,0.3158541194255451
2020-12-01,-0.09822717792395455
2020-12-02,-0.09085191538021702
2020-12-03,0.05153526523123553
2020-12-04,0.0608621410649602
2020-12-07,-0.3766635279347121
2020-12-08,0.06699626928958996
2020-12-09,-0.03957145747592107
2020-12-10,-0.14617934052232076
2020-12-11,-0.12940808674422996
2020-12-14,0.09229711247486501
2020-12-15,-0.15953494696994533
2020-12-16,0.1220233100519282
2020-12-17,0.11374248451666688
2020-12-18,-0.046496890631337655
2020-12-21,0.12497488106831331
2020-12-22,0.12917165270576023
2020-12-23,0.05645201085615861
2020-12-24,-0.018183314135265763
2020-12-25,0.1469017094017105
2020-12-28,-0.1397725081935595
2020-12-29,0.0829648734954575
2020-12-30,-0.20102960102960166
2020-12-31,0.03776327920005735
2021-01-04,0.0054200542005425
2021-01-05,-0.001442598538788413
2021-01-06,-0.1777789122592102
2021-01-07,-0.00138254286725846
2021-01-08,0.046540680957386366
2021-01-11,0.11523584398839308
2021-01-12,0.11713806018339272
2021-01-13,0.2551464599657405
2021-01-14,0.2036026200873347
2021-01-15,-0.08376589182276438
2021-01-18,-0.22687812041115746
2021-01-19,-0.12453183520599348
2021-01-20,-0.25494386918719425
2021-01-21,-0.2540322580645151
2021-01-22,0.0931216931216933
2021-01-25,0.12916496018202434
2021-01-26,-0.013084909685676861
2021-01-27,0.049610219785746146
2021-01-28,0.23043085946311787
2021-01-29,-0.12645502645502676
2021-02-01,-0.15465723391270947
2021-02-02,0.05211877863980746
2021-02-03,0.045053929121725754
2021-02-04,-0.1623305010401786
2021-02-05,0.03745304737671213
2021-02-08,0.1489558752632502
2021-02-09,-0.028520225294419825
2021-02-10,-0.06678426051560313
2021-02-18,0.17510512798803402
2021-02-19,-0.01738461953443281
2021-02-22,-0.1161182345048873
2021-02-23,0.2617250673854461
2021-02-24,0.21632549327665043
2021-02-25,-0.15938599430390496
2021-02-26,0.07134068919357942
2021-03-01,-0.041559336965786564
2021-03-02,-0.2188679245283026
2021-03-03,-0.24524610759635734
2021-03-04,0.01051245050003484
2021-03-05,0.05770386148888336
2021-03-08,0.025883586457282184
2021-03-09,0.0438871473354214
2021-03-10,0.1171954563258926
2021-03-11,0.008613358935674519
2021-03-12,-0.14355742296918564
2021-03-15,0.11455260570304779
2021-03-16,-0.21055381400208814
2021-03-17,-0.0500711237553363
2021-03-18,0.05811542627262707
2021-03-19,-0.1470443349753709
2021-03-22,-0.00914205344584907
2021-03-23,0.15456989247311984
2021-03-24,-0.010454708199066323
2021-03-25,0.013996634851621184
2021-03-26,0.16675862068965444
2021-03-29,-0.038283420808892306
2021-03-30,0.1330645161290308
2021-03-31,-0.011481427103218478
2021-04-01,-0.008711671766688925
2021-04-02,0.18506474820144214
2021-04-06,-0.05120700437773661
2021-04-07,-0.08881340109947108
2021-04-08,0.05777807660414008
2021-04-09,-0.15926465234801598
2021-04-12,-0.262814748201442
2021-04-13,0.11204244031830154
2021-04-14,-0.12534430499371943
2021-04-15,-0.009949146072675812
2021-04-16,0.14887725258582984
2021-04-19,0.08180391138812715
2021-04-20,-0.11200749708070508
2021-04-21,0.10870416871363545
2021-04-22,-0.1232400742278245
2021-04-23,0.05751841137080759
2021-04-26,0.011946088611874163
2021-04-27,-0.0512203152426413
2021-04-28,-0.047188412700723915
2021-04-29,0.2515692826057961
2021-04-30,-0.1254280510018203
2021-05-06,0.07692307692307485
2021-05-07,0.2966432474629197
2021-05-10,0.05807684840882067
2021-05-11,-0.17555669080746653
2021-05-12,0.07098360655737869
2021-05-13,0.013691809808317648
2021-05-14,-0.2884343648438596
2021-05-17,0.0352856714242861
2021-05-18,-0.02579230459108839
2021-05-19,-0.08537459283387695
2021-05-20,-0.20440799017966804
2021-05-21,0.04714290662633074
2021-05-24,-0.12241705662758265
2021-05-25,0.07840345882104857
2021-05-26,0.20367967757964062
2021-05-27,0.054752513042371886
2021-05-28,0.08596932936598961
2021-05-31,0.045747471531030856
2021-06-01,0.016979153009047267
2021-06-02,-0.2916874376869424
2021-06-03,0.0976671998479628
2021-06-04,-0.051191054934369776
2021-06-07,0.05647504934185098
2021-06-08,-0.08999742474967247
2021-06-09,0.13916294365847737
2021-06-10,-0.07252491452680188
2021-06-11,-0.1581484703494321
2021-06-15,0.09986748061089262
2021-06-16,0.1016484520633065
2021-06-17,0.017377304019543016
2021-06-18,0.224285381287192
2021-06-21,0.3691256247931627
2021-06-22,-0.31826640268041967
2021-06-23,0.004152933315829943
2021-06-24,-0.004771722612844767
2021-06-25,-0.361715747531121
2021-06-28,-0.17730905805987004
2021-06-29,0.24247891662771773
2021-06-30,-0.17310141602577803
2021-07-01,0.09687698577073825
2021-07-02,0.119741369741371
2021-07-05,-0.07556096958141406
2021-07-06,-0.06557377049180155
2021-07-07,0.1230769230769216
2021-07-08,-0.1973684210526306
2021-07-09,0.0757418909592791
2021-07-12,0.008289255545905656
2021-07-13,0.009803921568630474
2021-07-14,0.18446601941747606
2021-07-15,0.12079378774805566
2021-07-16,0.09536732297862073
2021-07-19,0.123145101725645
2021-07-20,-0.07209900353584452
2021-07-21,-0.28586462081607833
2021-07-22,-0.12207373859794252
2021-07-23,-0.23110989518321717
2021-07-26,-0.34144790001203584
2021-07-27,0.16619118586331835
2021-07-28,0.030810366104483664
2021-07-29,0.10604344185588951
2021-07-30,0.024087982832616567
2021-08-02,0.5231619350142293
2021-08-03,-0.15254475254475225
2021-08-04,0.09899732620321179
2021-08-05,-0.0016085040912057792
2021-08-06,0.20225409836065927
2021-08-09,-0.517123287671234
2021-08-10,0.10093623034799283
2021-08-11,0.04612507058159061
2021-08-12,0.18548206815061313
2021-08-13,-0.07610675536548989
2021-08-16,0.3755813953488419
2021-08-17,-0.11013882136876552
2021-08-18,0.026343031491770502
2021-08-19,-0.2961333855330142
2021-08-20,-0.04749690051729248
2021-08-23,-0.11665282392027504
2021-08-24,0.1753113587406287
2021-08-25,-0.22782548805802666
2021-08-26,0.40815378322976226
2021-08-27,-0.029065111787123513
2021-08-30,-0.07355554878920745
2021-08-31,-0.21666646827755887
2021-09-01,0.18862230388614626
2021-09-02,-0.4994235588988698
2021-09-03,-0.06977763838306045
2021-09-06,0.07037410379742859
2021-09-07,0.09920634920635306
2021-09-08,-0.061674008810573895
2021-09-09,0.025157083580320455
2021-09-10,0.15563751317176563
2021-09-13,-0.05149876042371734
2021-09-14,0.13013698630136794
2021-09-15,-0.139393939393941
2021-09-16,0.30655935613682295
2021-09-17,0.18662269575510632
2021-09-22,0.1857516339869295
2021-09-23,-0.20908435472242282
2021-09-24,0.18701298701299043
2021-09-27,-0.059026888604355565
2021-09-28,-0.3354082373690156
2021-09-29,-0.041869158878504426
2021-09-30,0.10873460246360325
2021-10-08,0.16725698543880183
2021-10-11,-0.13964131106988148
2021-10-12,0.191093043715679
2021-10-13,0.017763198613603245
2021-10-14,0.029559946966352477
2021-10-15,-0.09442785378614331
2021-10-18,0.12782312925169872
2021-10-19,0.1947940213907362
2021-10-20,-0.16316676700782506
2021-10-21,0.009355109067432685
2021-10-22,-0.20259103641456488
2021-10-25,0.14789883268482612
2021-10-26,-0.4543427103922749
2021-10-27,-0.035081300344600386
2021-10-28,-0.0764689585189169
2021-10-29,0.04559083813103349
2021-11-01,-0.5197885460800135
2021-11-02,0.18219920722676475
2021-11-03,0.08872345436891857
2021-11-04,-0.046030799911849274
2021-11-05,0.10344165111884795
2021-11-08,0.5181906538340599
2021-11-09,-0.11857332889923684
2021-11-10,-0.03806971493602903
2021-11-11,0.05379746835442901
2021-11-12,-0.1264134416308348
2021-11-15,-0.3776933455021626
2021-11-16,0.20378331063995403
2021-11-17,0.04200956653495247
2021-11-18,-0.09863945578231136
2021-11-19,0.014240790655887577
2021-11-22,0.21672837344273668
2021-11-23,-0.2516712599816265
2021-11-24,0.0162393942158574
2021-11-25,0.13743255923058875
2021-11-26,-0.046003288186021084
2021-11-29,-0.16949121952099777
2021-11-30,0.21541372253754879
2021-12-01,0.007431909957898785
2021-12-02,-0.1420794884248004
2021-12-03,0.19076274684452071
2021-12-06,0.17129810828440914
2021-12-07,-0.11590972415714604
2021-12-08,-0.09112343966712802
2021-12-09,0.1133873950775313
2021-12-10,-0.18447643979057707
2021-12-13,-0.029820452771269365
2021-12-14,0.1125646923519251
2021-12-15,-0.003158650394831347
2021-12-16,0.2733214497920444
2021-12-17,0.0641666666666666
2021-12-20,-0.1044962507247067
2021-12-21,0.03768591240222905
2021-12-22,0.08099989096927598
2021-12-23,-0.49391131568184826
2021-12-24,0.030912009223453628
2021-12-27,0.06686456800260365
2021-12-28,-0.24723821736676793
2021-12-29,0.09586603374632877
2021-12-30,0.3423569876569288
2021-12-31,-0.03435052055031059
2022-01-04,0.02025952710673255
2022-01-05,0.1461155582922833
2022-01-06,-0.17101986272247202
2022-01-07,-0.22087336747022762
2022-01-10,0.13921437339582005
2022-01-11,-0.128506949787143
2022-01-12,0.4025869270878326
2022-01-13,-0.020858361986825176
2022-01-14,0.07543057496861127
2022-01-17,-0.13787830855214184
2022-01-18,0.13733604375393108
2022-01-19,-0.5497345514323415
2022-01-20,0.09705293796616352
2022-01-21,-0.018340232983535026
2022-01-24,-0.0045367476560156
2022-01-25,0.09421500755947795
2022-01-26,0.060703174343258934
2022-01-27,0.14585863492834397
2022-01-28,0.15631680749261812
2022-02-07,0.1976852934299728
2022-02-08,-0.06208525937339256
2022-02-09,0.20901761719916334
2022-02-10,-0.17688569105972024
2022-02-11,-0.10252691387559949
2022-02-14,-0.25889778124796425
2022-02-15,-0.13480170835875377
2022-02-16,-0.30059153187038995
2022-02-17,-0.04237918145173035
2022-02-18,-0.21896021692193426
2022-02-21,0.05112381689811814
2022-02-22,0.1568807599372179
2022-02-23,0.35876864887103666
2022-02-24,0.15914374266234566
2022-02-25,0.37430040679535126
2022-02-28,0.2561991912239409
2022-03-01,-0.014164613075791387
2022-03-02,-0.08137973137973378
2022-03-03,-0.14554770150387103
2022-03-04,-0.2062389365752612
2022-03-07,-0.2539640797880607
2022-03-08,-0.013753106876550542
2022-03-09,-0.21843366277328113
2022-03-10,0.15499414291292551
2022-03-11,0.12268765854757369
2022-03-14,0.0025804950169751664
2022-03-15,-0.10236208920187995
2022-03-16,0.17923783711336927
2022-03-17,-0.23995972613773744
2022-03-18,-0.18321615065169916
2022-03-21,-0.08200850642111146
2022-03-22,-0.04174087510993775
2022-03-23,-0.17291581090180774
2022-03-24,0.1061529895267402
2022-03-25,0.034077342068555526
2022-03-28,0.2991539112572612
2022-03-29,0.13653254177660423
2022-03-30,0.19397241300081147
2022-03-31,0.03554037610583072
2022-04-01,0.07378991505243283
2022-04-06,-0.2023854244073964
2022-04-07,-0.12541208791208647
2022-04-08,-0.08032128514056174
2022-04-11,0.0015045739046719714
2022-04-12,-0.11317667839407008
2022-04-13,-0.12611919198265772
2022-04-14,0.16444270015698526
2022-04-15,-0.03863796417899033
2022-04-18,-0.10431970616416714
2022-04-19,0.39756436278175533
2022-04-20,0.20219608980050296
2022-04-21,-0.10398159263705349
2022-04-22,0.026524996177951975
2022-04-25,0.2685846453497824
2022-04-26,-0.3857476854016661
2022-04-27,-0.05809128630705108
2022-04-28,0.24254532001479687
2022-04-29,0.16830294530154583
2022-05-05,-0.2733750165701919
2022-05-06,0.13629942056878705
2022-05-09,-0.05056179775281089
2022-05-10,-0.24763871832086629
2022-05-11,-0.34177635952666047
2022-05-12,0.1342318059299205
2022-05-13,-0.1615576869672983
2022-05-16,0.030318882773052693
2022-05-17,-0.0790258692356606
2022-05-18,0.19890477206457702
2022-05-19,-0.06832449352230503
2022-05-20,0.08471834343709966
2022-05-23,0.10719943671888514
2022-05-24,0.10712580348944166
2022-05-25,0.06212624584717453
2022-05-26,-0.03529185867895454
2022-05-27,0.005885790616125087
2022-05-30,-0.10497453975714661
2022-05-31,-0.1194087665647303
2022-06-01,0.06469708302168913
2022-06-02,0.06754992319508592
2022-06-06,0.013132904998587998
2022-06-07,-0.04620216546822123
2022-06-08,0.15326497571505754
2022-06-09,-0.19803041635501886
2022-06-10,0.011087978666166409
2022-06-13,0.024466707558099265
2022-06-14,0.05446408592526482
2022-06-15,-0.08359895682411005
2022-06-16,-0.06309523809524215
2022-06-17,-0.008399806623155433
2022-06-20,-0.043429909277143464
2022-06-21,0.10614163972964834
2022-06-22,0.2968526623429857
2022-06-23,0.35618817663893443
2022-06-24,0.16452428621587628
2022-06-27,0.03403927965819514
2022-06-28,-0.0957715572797753
2022-06-29,-0.3817959050073664
2022-06-30,-0.3591343045850622
2022-07-01,-0.2150390867306769
2022-07-04,0.0617792887330182
2022-07-05,0.044329835335820834
2022-07-06,0.25741000467508013
2022-07-07,0.150382025382027
2022-07-08,-0.1243993657786778
2022-07-11,0.6955011055457757
2022-07-12,-0.07672348124166874
2022-07-13,-0.12265593750735312
2022-07-14,-0.09935897435897487
2022-07-15,0.1725332139125246
2022-07-18,-1.2324129036817166
2022-07-19,0.2652598372284019
2022-07-20,-0.020623632385118773
2022-07-21,0.09890109890109798
2022-07-22,0.12309267793138882
2022-07-25,0.4551289706233563
2022-07-26,-0.4028092496938816
2022-07-27,0.005769230769230475
2022-07-28,0.08782589959060665
2022-07-29,-0.2633585369251623
2022-08-01,-0.07180714212205244
2022-08-02,0.2312759761372985
2022-08-03,-0.009935897435898993
2022-08-04,-0.07117731212656897
2022-08-05,0.18446105773442534
2022-08-08,0.16365375418459954
2022-08-09,-0.12716429395921885
2022-08-10,0.141569767441862
2022-08-11,-0.09089141780442686
2022-08-12,-0.027983714146813103
2022-08-15,-0.014252582753531348
2022-08-16,0.18602276043186733
2022-08-17,-0.1064150768230988
2022-08-18,0.03738385598141472
2022-08-19,-0.10730629109650047
2022-08-22,-0.13388983210714883
2022-08-23,-0.17502786240926668
2022-08-24,-0.033535178554705974
2022-08-25,-0.005426982219209793
2022-08-26,0.14282699884022243
2022-08-29,0.1703078401362849
2022-08-30,-0.04180399678447689
2022-08-31,-0.056701929646475184
2022-09-01,-0.05169206539983441
2022-09-02,-0.12591117427516665
2022-09-05,-0.31189163834147693
2022-09-06,0.26463114122902043
2022-09-07,0.044448089224209994
2022-09-08,0.26370984455958385
2022-09-09,0.15161169415293108
2022-09-13,0.44337327188940295
2022-09-14,-0.2851095055317281
2022-09-15,0.07643103165491139
2022-09-16,-0.33305260074333354
2022-09-19,-0.13633923778851706
2022-09-20,-0.3918441558441567
2022-09-21,0.42419716206124103
2022-09-22,0.010428786899375937
2022-09-23,0.26493826180172514
2022-09-26,0.03604938271604934
2022-09-27,0.030844155844155535
2022-09-28,-0.43510543510543587
2022-09-29,-0.12228006246746337
2022-09-30,-0.17144239557012997
2022-10-10,0.04850921273031518
2022-10-11,0.17354368932039005
2022-10-12,-0.002216502216499605
2022-10-13,0.27202974957634973
2022-10-14,0.05229133439659476
2022-10-17,-0.10154756081290847
2022-10-18,-0.08171904477062586
2022-10-19,0.23257080610021363
2022-10-20,-0.40569739952718786
2022-10-21,0.02797757714448472
2022-10-24,0.1960317002671409
2022-10-25,0.2962718196848583
2022-10-26,-0.06546171812080961
2022-10-27,0.2942581479154495
2022-10-28,-0.04520157430458252
2022-10-31,-0.11347878907774912
2022-11-01,-0.38093085913908203
2022-11-02,-0.059140108169270976
2022-11-03,-0.14071981253209523
2022-11-04,0.06746705271565454
2022-11-07,-0.0569219705142083
2022-11-08,0.017448294518359816
2022-11-09,-0.02984149610325408
2022-11-10,0.07797498789467683
2022-11-11,-0.1697317477876099
2022-11-14,0.020740740740743117
2022-11-15,0.15650854936569317
2022-11-16,0.0031929671787874273
2022-11-17,0.1601166823621295
2022-11-18,0.07641763834554938
2022-11-21,0.0735714285714284
2022-11-22,-0.13663092355586276
2022-11-23,0.22342438611723434
2022-11-24,-0.3199960187120552
2022-11-25,0.1749902458056964
2022-11-28,-0.12957142857142692
2022-11-29,0.20172059578839008
2022-11-30,-0.3025283347864006
2022-12-01,0.22132569842095978
2022-12-02,-0.23432282003710442
2022-12-05,0.21174660633483944
2022-12-06,-0.13714837619220177
2022-12-07,0.2772106982633304
2022-12-08,-0.20731023307989405
2022-12-09,0.11000737644455416
2022-12-12,-0.2587624793507143
2022-12-13,-0.0700365956986503
2022-12-14,-0.3676193530284221
2022-12-15,0.2055179176323782
2022-12-16,-0.058831818502079095
2022-12-19,0.29479501412016995
2022-12-20,0.08073724858448986
2022-12-21,0.5441375716519067
2022-12-22,-0.11402451275869097
2022-12-23,0.014536187745851137
2022-12-26,-0.23842311447286832
2022-12-27,0.1837912753250655
2022-12-28,-0.48320863440646733
2022-12-29,0.10588890651943644
2022-12-30,0.049341455079158186
2023-01-03,0.06664397336857175
2023-01-04,-0.22897584129805165
2023-01-05,0.1613176236938418
2023-01-06,-0.07414287477340281
2023-01-09,-0.008283444406788439
2023-01-10,-0.04803493449781757
2023-01-11,-0.05967157505203821
2023-01-12,-0.040507252987864534
2023-01-13,0.08556149732620015
2023-01-16,-0.03344111455915092
2023-01-17,0.12884301530589784
2023-01-18,0.1287833319043158
2023-01-19,0.21956871275890988
2023-01-20,-0.14370103220992275
2023-01-30,0.10281984228344848
2023-01-31,-0.05790731744930115
2023-02-01,-0.05227367833729092
2023-02-02,-0.36109241613828735
2023-02-03,-0.03575717873130329
2023-02-06,-0.057463911810487656
2023-02-07,-0.17010888518618938
2023-02-08,-0.019989339019185683
2023-02-09,0.12729171219737673
2023-02-10,0.061994269401080555
2023-02-13,0.03268880664889556
2023-02-14,0.17075172410939982
2023-02-15,0.12287060174610458
2023-02-16,0.02151155831084018
2023-02-17,0.0907259736257078
2023-02-20,-0.23119197302770955
2023-02-21,-0.11138144011983142
2023-02-22,-0.0692991731746775
2023-02-23,0.19917327746833485
2023-02-24,-0.12211466865227429
2023-02-27,0.31966966966967114
2023-02-28,0.05825203902127671
2023-03-01,0.16463414634146598
2023-03-02,-0.24890440178398682
2023-03-03,0.09738204833142282
2023-03-06,-0.06496881496881837
2023-03-07,0.20305518657166588
2023-03-08,-0.2602863202545112
2023-03-09,0.0352648006443877
2023-03-10,-0.01399040657834887
2023-03-13,-0.25426297840090617
2023-03-14,-0.29921789074911326
2023-03-15,0.10250148898153981
2023-03-16,0.11129644165357722
2023-03-17,0.037224338251762204
2023-03-20,0.18336399786337093
2023-03-21,0.4251497005988071
2023-03-22,0.10835805820339486
2023-03-23,-0.03083712823972272
2023-03-24,-0.05732484076432447
2023-03-27,0.1294340709451381
2023-03-28,-0.4853661098854981
2023-03-29,-0.26175909740981973
2023-03-30,-0.07254361799815943
2023-03-31,0.06806282722512653
2023-04-03,-0.222687673993604
2023-04-04,0.19750014948340106
2023-04-06,0.1578794165458461
2023-04-07,0.17862374333795772
2023-04-10,0.025395292218968663
2023-04-11,0.09144891594562565
2023-04-12,-0.032543640564042624
2023-04-13,0.09596844493113724
2023-04-14,-0.25954927775186787
2023-04-17,-0.2645107510230429
2023-04-18,-0.09416649922978963
2023-04-19,0.11403165917529855
2023-04-20,-0.13389188201990512
2023-04-21,0.1272080315160755
2023-04-24,0.198079658605971
2023-04-25,0.10573656363130185
2023-04-26,-0.0930232558139534
2023-04-27,-0.004492338220700363
2023-04-28,0.037199380497355654
2023-05-04,0.11583011583011606
2023-05-05,-0.042575187969924905
2023-05-08,0.013761467889907444
2023-05-09,-0.03678522026586867
2023-05-10,0.17031825969575964
2023-05-11,-0.18668184405236177
2023-05-12,0.12678571428571042
2023-05-15,0.050632471504033764
2023-05-16,0.12481280494678057
2023-05-17,-0.3935307770259243
2023-05-18,-0.02148142125375728
2023-05-19,-0.16550218340611167
2023-05-22,-0.15317898612291456
2023-05-23,-0.09796514280500046
2023-05-24,0.20182214299861553
2023-05-25,0.04968112244897588
2023-05-26,0.14486726277119374
2023-05-29,0.01525563496426699
2023-05-30,0.06748066748066583
2023-05-31,-0.09374827719278861
2023-06-01,-0.07829765193369972
2023-06-02,-0.09765776229191114
2023-06-05,0.12943003288272475
2023-06-06,-0.03821973233737705
2023-06-07,0.08486745213549082
2023-06-08,0.14655423088107228
2023-06-09,-0.15948509485094298
2023-06-12,0.05896424374683834
2023-06-13,-0.035598577395941675
2023-06-14,-0.06788919232233198
2023-06-15,0.09011212225386302
2023-06-16,0.31386955266259176
2023-06-19,-0.2377125727400345
2023-06-20,0.1302035199646817
2023-06-21,0.12653478170562774
2023-06-26,-0.21888583318092975
2023-06-27,-0.0976302364232775
2023-06-28,0.14401172903919707
2023-06-29,-0.08802158383664713
2023-06-30,0.0380806010928955
2023-07-03,0.1322168983348385
2023-07-04,-0.020762423417293785
2023-07-05,0.035357717966417776
2023-07-06,-0.056547047911467516
2023-07-07,-0.2110745614035076
2023-07-10,-0.12403593140368868
2023-07-11,-0.028115781710913328
2023-07-12,-0.1302059496567531
2023-07-13,0.09013748597081883
2023-07-14,0.09096636619172134
2023-07-17,0.15685005393743848
2023-07-18,0.11755952380952545
2023-07-19,0.06446762066456223
2023-07-20,-0.07492071881606815
2023-07-21,-0.01398733324349868
2023-07-24,-0.14859038142620545
2023-07-25,-0.3134920634920645
2023-07-26,0.12254992319509127
2023-07-27,0.07645174766745323
2023-07-28,0.002070334656837869
2023-07-31,0.16621036827695282
2023-08-01,0.3026058908411856
2023-08-02,-0.24991869918699852
2023-08-03,0.03785649040901422
2023-08-04,0.04389688692013889
2023-08-07,-0.15290062831695597
2023-08-08,-0.06382425205954857
2023-08-09,0.23082620354999717
2023-08-10,-0.11085881112643077
2023-08-11,0.20845054176379635
2023-08-14,0.018011270059012357
2023-08-15,-0.12104052548585324
2023-08-16,0.07895573851191406
2023-08-17,0.16202319113309976
2023-08-18,-0.413476996790249
2023-08-21,-0.002054300090391571
2023-08-22,0.03479643386059596
2023-08-23,-0.31063733450208875
2023-08-24,-0.22335659457176593
2023-08-25,0.23378615249780876
2023-08-28,0.11183013144590453
2023-08-29,0.19897294951540861
2023-08-30,0.09049240148632612
2023-08-31,0.0649867374005315
2023-09-01,-0.06034292905458641
2023-09-04,0.057779908894748905
2023-09-05,-0.2266092541234882
2023-09-06,-0.012164943685097601
2023-09-07,0.02370206071235303
2023-09-08,-0.08529732678668618
2023-09-11,-0.3380056670886813
2023-09-12,0.15444066453083033
2023-09-13,0.16115411681914044
2023-09-14,-0.002811712235798614
2023-09-15,0.2476582363174052
2023-09-18,0.3075260615306357
2023-09-19,-0.1367181909260023
2023-09-20,-0.14916123517469848
2023-09-21,0.002035002035001999
2023-09-22,-0.20751203401145268
2023-09-25,-0.1969309462915598
2023-09-26,0.1346932321315636
2023-09-27,0.05314451523371054
2023-09-28,0.0104954925314244
2023-10-09,0.06835161876556685
2023-10-10,-0.0005221023320566148
2023-10-11,-0.051487222454967965
2023-10-12,-0.050610083646688855
2023-10-13,0.09932135728542618
2023-10-16,0.018513076697030267
2023-10-17,0.2593456317438216
2023-10-18,0.15137375187626775
2023-10-19,0.14264413307407992
2023-10-20,-0.18219999861102454
2023-10-23,-0.08984806641389204
2023-10-24,-0.331831705881973
2023-10-25,-0.4278201264762158
2023-10-26,-0.12768777544256077
2023-10-27,0.2797063599341809
2023-10-30,0.15582680312433433
2023-10-31,0.15542951709948252
2023-11-01,0.2745097147685559
2023-11-02,-0.10255427841634848
2023-11-03,-0.24381982710681904
2023-11-06,-0.19347319347318853
2023-11-07,0.18273703041144726
2023-11-08,-0.043687650498802695
2023-11-09,0.23956645838154383
2023-11-10,0.077222556692755
2023-11-13,0.049488972565892075
2023-11-14,-0.15840455840455572
2023-11-15,0.014022578728468916
2023-11-16,-0.07670770370979949
2023-11-17,-0.05995670995671058
2023-11-20,0.15870406896048045
2023-11-21,-0.06824227542459306
2023-11-22,0.0993305144467861
2023-11-23,-0.11088875036908369
2023-11-24,0.006644518272423298
2023-11-27,-0.18315221409033966
2023-11-28,-0.020789063606747878
2023-11-29,-0.21134723336006034
2023-11-30,0.04871784075118404
2023-12-01,0.14289090565324342
2023-12-04,0.007474102889114612
2023-12-05,0.13252832438879406
2023-12-06,0.19713063176441076
2023-12-07,0.05190422625744046
2023-12-08,-0.07382113821138148
2023-12-11,0.10967621186599397
2023-12-12,0.09042352051426947
2023-12-13,-0.05182867956590627
2023-12-14,0.015861266786502244
2023-12-15,-0.09000000000000045
2023-12-18,-0.009176788124159334
2023-12-19,-0.31960362817456156
2023-12-20,0.19868565427157556
2023-12-21,-0.005380629732959458
2023-12-22,0.020757728538515433
2023-12-25,-0.09637750702777892
2023-12-26,0.12368634291475261
2023-12-27,-0.3618951299810508
2023-12-28,-0.10373648243805715
2023-12-29,-0.04218629996708803
2024-01-02,0.07734916694680735
2024-01-03,0.17129780974174993
2024-01-04,0.04871212121211786
2024-01-05,0.10225944682509085
2024-01-08,0.2285714285714325
2024-01-09,-0.12184235517568777
2024-01-10,-0.22370995983108488
2024-01-11,0.5706060606060619
2024-01-12,-0.04992458521870882
2024-01-15,-0.23044128646223253
2024-01-16,0.11006486712701545
2024-01-17,0.12940996403152977
2024-01-18,-0.7475429975429959
2024-01-19,0.07977207977208209
2024-01-22,0.33903269505364086
2024-01-23,0.0660486312700939
2024-01-24,0.012634293081214741
2024-01-25,0.172231054583997
2024-01-26,-0.015780998389693865
2024-01-29,-0.32823426573426767
2024-01-30,-0.16068139963167916
2024-01-31,-0.106759906759901
2024-02-01,0.10449082858949597
2024-02-02,-0.14604236343366825
2024-02-05,-0.07862843901721094
2024-02-06,0.1445469858535699
2024-02-07,-0.03603483300340516
2024-02-08,-0.027500858847045458
2024-02-19,0.2273039996180931
2024-02-20,0.2026669005556687
2024-02-21,-0.07570640614342307
2024-02-22,0.23634677596240558
2024-02-23,0.040404084653499386
2024-02-26,-0.24499306161095225
2024-02-27,-0.25578306585500454
2024-02-28,-0.012292960662525705
2024-02-29,-0.3048434970318403
2024-03-01,-0.019354838709677465
2024-03-04,0.31805536235915993
2024-03-05,0.26763909972939076
2024-03-06,-0.007402319902319876
2024-03-07,0.20053584476739458
2024-03-08,0.01709401709401719
2024-03-11,-0.3490627020038786
2024-03-12,0.0058134253792353485
2024-03-13,0.006665098408217485
2024-03-14,0.002337618968108364
2024-03-15,0.11017871017871013
2024-03-18,0.2157766332339387
2024-03-19,-0.07920792079207202
2024-03-20,0.019947178204062575
2024-03-21,-0.045369436842856076
2024-03-22,-0.2349650349650294
2024-03-25,-0.12486095661845936
2024-03-26,-0.009174311926616835
2024-03-27,0.1094276094275989
2024-03-28,0.15049073064338836
2024-03-29,0.11504524886877256
2024-04-01,0.10414044802415696
2024-04-02,-0.004811702059404167
2024-04-03,-0.13731284475964256
2024-04-08,-0.1428571428571395
2024-04-09,-0.05882352941176733
2024-04-10,-0.1290669382674157
2024-04-11,-0.08770890126822672
2024-04-12,-0.0022748561488104765
2024-04-15,-0.01960784313725614
2024-04-16,0.031470588235296845
2024-04-17,0.1873121341559912
2024-04-18,0.15790996221003234
2024-04-19,0.12621208472682818
2024-04-22,-0.06015650641472359
2024-04-23,0.09951577411934677
2024-04-24,-0.16637961420384706
2024-04-25,-0.12578026434709833
2024-04-26,-0.07913044127769686
2024-04-29,0.2556902754779088
2024-04-30,-0.15038191585162836
2024-05-06,0.03891506906375725
2024-05-07,0.26956521739130895
2024-05-08,-0.03833130163889905
2024-05-09,-0.3699557766721918
2024-05-10,0.08938466025079955
2024-05-13,0.10724191063173769
2024-05-14,-0.37647058823529894
2024-05-15,0.0391895888790287
2024-05-16,0.254635911352325
2024-05-17,0.0005291005291004902
2024-05-20,-0.17527612574341445
2024-05-21,0.21770770163735725
2024-05-22,-0.06961002222671087
2024-05-23,-0.16586921850079817
2024-05-24,0.07507002801120854
2024-05-27,0.10421063209728337
2024-05-28,-0.14762009212546695
2024-05-29,0.047501178689296444
2024-05-30,0.18960050729232733
2024-05-31,-0.28300653594771613
2024-06-03,0.0714390926498677
2024-06-04,0.25828171290062374
2024-06-05,0.07783882783883092
2024-06-06,-0.20804868960376993
2024-06-07,0.2830065359477151
2024-06-11,0.08985122993077657
2024-06-12,-0.19777029381024336
2024-06-13,-0.0370879120879167
2024-06-14,0.3143772037692392
2024-06-17,-0.11216594993089307
2024-06-18,-0.22464047809739635
2024-06-19,0.1676944297061724
2024-06-20,-0.010364119884245265
2024-06-21,-0.3066078925485635
2024-06-24,0.23935977828190566
2024-06-25,0.04588605794873246
2024-06-26,-0.223174221424498
2024-06-27,-0.1613391768190471
2024-06-28,0.09839816933638304
2024-07-01,-0.1945257611241217
2024-07-02,-0.08024511234315543
2024-07-03,0.05373230373230554
2024-07-04,0.19285714285713776
2024-07-05,0.08421052631578792
2024-07-08,-0.20535714285714693
2024-07-09,0.05434782608695018
2024-07-10,0.46334938469769504
2024-07-11,0.0055555555555565905
2024-07-12,-0.051629072681702144
2024-07-15,0.29708994708994696
2024-07-16,0.1451914771091309
2024-07-17,-0.5466827180310295
2024-07-18,-0.06240487062404624
2024-07-19,-0.06331345605392728
2024-07-22,-0.2996779388083692
2024-07-23,-0.14798101154545001
2024-07-24,0.14930100480558717
2024-07-25,0.06090336912254221
2024-07-26,0.11665193044503017
2024-07-29,0.31715942028985333
2024-07-30,-0.042066558643898216
2024-07-31,-0.03361579942572269
2024-08-01,-0.05405405405405056
2024-08-02,0.00914331146889702
2024-08-05,-0.03528057553956773
2024-08-06,0.20818374298076212
2024-08-07,0.11353307152627282
2024-08-08,-0.021052631578945036
2024-08-09,-0.05601400350087633
2024-08-12,-0.1954562665656999
2024-08-13,-0.21792825657394915
2024-08-14,-0.21291557748242104
2024-08-15,0.07860658841347833
2024-08-16,-0.17796796137810048
2024-08-19,0.14312393887946473
2024-08-20,0.06920498888201246
2024-08-21,0.12863256238280316
2024-08-22,-0.0739374099223542
2024-08-23,0.2006651623187934
2024-08-26,-0.02436883142044954
2024-08-27,-0.027450232010979733
2024-08-28,-0.06953843640969024
2024-08-29,-0.08445688304663201
2024-08-30,-0.11896893242496392
2024-09-02,0.20830496696948186
2024-09-03,0.1274217585693068
2024-09-04,0.10858585858585287
2024-09-05,0.12961731455171643
2024-09-06,0.13071041108423911
2024-09-09,-0.2720583316609753
2024-09-10,-0.10265686828717338
2024-09-11,-0.010776781903541678
2024-09-12,-0.06931751895780364
2024-09-13,-0.05594405594405431
2024-09-18,0.004523831732107672
2024-09-19,0.11558016612131897
2024-09-20,-0.0955868544600921
2024-09-23,0.2870194137799788
2024-09-24,0.07344632768361732
2024-09-25,0.06152705707932387
2024-09-26,0.002545386486996773
2024-09-27,0.1140809968847325
2024-09-30,-0.16277843271080383
2024-10-08,0.020049607275731213
2024-10-09,-0.11553512032870737
2024-10-10,-0.1790685504971255
2024-10-11,-0.11970402190822102
2024-10-14,-0.2648038031818745
2024-10-15,-0.3309559822155238
2024-10-16,0.03418279291893932
2024-10-17,0.11014150593979166
2024-10-18,0.12049481989528418
2024-10-21,0.21733524671120968
2024-10-22,0.3143831241792566
2024-10-23,0.2693222522217922
2024-10-24,-0.1087227566218775
2024-10-25,-0.11386404293381353
2024-10-28,-0.09758157730950756
2024-10-29,-0.14228255404726556
2024-10-30,-0.3191808191808129
2024-10-31,0.017713903743305254
2024-11-01,0.11899224806201483
2024-11-04,0.24103719325154466
2024-11-05,0.0653594771241842
2024-11-06,0.018802389663313407
2024-11-07,0.13496376811594554
2024-11-08,-0.07342342342341839
2024-11-11,-0.3293473639455843
2024-11-12,0.01599999999999949
2024-11-13,-0.0005214579965588384
2024-11-14,-0.10694652673662883
2024-11-15,-0.011100386100388888
2024-11-18,0.258750773036483
2024-11-19,-0.01599999999999949
2024-11-20,0.18497482896605372
2024-11-21,0.04940813175502024
2024-11-22,0.0178571428571423
2024-11-25,-0.153208556149728
2024-11-26,0.0769230769230781
2024-11-27,-0.06264637002342163
2024-11-28,-0.02871847658260686
2024-11-29,0.006993006993006686
2024-12-02,0.02328431372548635
2024-12-03,-0.06983087834152135
2024-12-04,0.06287726358149083
2024-12-05,0.2894341290892996
2024-12-06,-0.017043258249287905
2024-12-09,0.020833333333338283
2024-12-10,0.06397379126616176
2024-12-11,-0.259728990054073
2024-12-12,-0.5355280312907429
2024-12-13,-0.03575127546127844
2024-12-16,0.06723039611964168
2024-12-17,-0.059970398693893597
2024-12-18,0.22230860194055485
2024-12-19,0.3106980393223008
2024-12-20,0.14806994806721985
2024-12-23,-0.18918161563183555
2024-12-24,-0.12915114670937744
2024-12-25,-0.06904517693029172
2024-12-26,-0.13017611303765872
2024-12-27,-0.12813049031517923
2024-12-30,0.1219512195121831
2024-12-31,0.038409537856431156
