date,FCT_Cr_Atr_Dfive
2015-03-27,
2015-03-30,
2015-03-31,
2015-04-01,
2015-04-02,
2015-04-03,
2015-04-07,
2015-04-08,
2015-04-09,
2015-04-10,
2015-04-13,0.27066074494943354
2015-04-14,0.6445915435139573
2015-04-15,0.2559984719702034
2015-04-16,0.18133236719351478
2015-04-17,0.10373807779259898
2015-04-20,0.04848960404903155
2015-04-21,-0.5681361191008842
2015-04-22,-0.0621541837039992
2015-04-23,-0.31389970102104137
2015-04-24,-0.49437767938716703
2015-04-27,0.22838430196781126
2015-04-28,0.3591941980052692
2015-04-29,0.2083077949423562
2015-04-30,0.5804923267071789
2015-05-04,0.36715452708851903
2015-05-05,-0.4103899479875134
2015-05-06,-0.009925356298614046
2015-05-07,-0.03919532347082069
2015-05-08,-0.5062415010246653
2015-05-11,-0.07891695094876033
2015-05-12,0.1469793016676235
2015-05-13,-0.3526652905249335
2015-05-14,-0.09429675488500897
2015-05-15,-0.034553436924684044
2015-05-18,0.005319552979919623
2015-05-19,-0.09010471204188482
2015-05-20,0.45616632954760505
2015-05-21,0.017033376751032583
2015-05-22,0.27449836650921533
2015-05-25,0.07756522663265848
2015-05-26,0.08379499694935937
2015-05-27,-0.40593711312398706
2015-05-28,-0.27458049208011803
2015-05-29,-0.2768830391702336
2015-06-01,-0.31509209744503863
2015-06-02,-0.12987703372446543
2015-06-03,0.20968867397896834
2015-06-04,0.1782874538573448
2015-06-05,0.06803345690667527
2015-06-08,0.29693245916050104
2015-06-09,0.05242350018974023
2015-06-10,-0.25044042803079736
2015-06-11,-0.1593500981185071
2015-06-12,0.20285357164114382
2015-06-15,-0.0962476594067212
2015-06-16,0.06869613057032825
2015-06-17,0.2645793559882907
2015-06-18,0.3111210883565546
2015-06-19,0.0433747984075607
2015-06-23,0.0646708439699853
2015-06-24,0.10776942355889724
2015-06-25,0.3600501543209877
2015-06-26,0.05167251793270175
2015-06-29,-0.1427194669733685
2015-06-30,0.22733828693065958
2015-07-01,0.0490448343079922
2015-07-02,-0.46687539506953224
2015-07-03,-0.021956967111849093
2015-07-06,0.012392487274003858
2015-07-07,-0.29683473470331706
2015-07-08,-0.18123051539229731
2015-07-09,0.08520934477367426
2015-07-10,-0.22034735770479325
2015-07-13,-0.14732204323282388
2015-07-14,-0.11913984779148429
2015-07-15,-0.2422935772622301
2015-07-16,-0.3124559342545592
2015-07-17,-0.02857149221912937
2015-07-20,0.1574308650646378
2015-07-21,0.2749545887990896
2015-07-22,0.51798104921014
2015-07-23,0.11418188639799073
2015-07-24,0.11194092859053863
2015-07-27,0.35884869153986754
2015-07-28,-0.015769406013144652
2015-07-29,-0.3612511331634528
2015-07-30,0.21734818638772013
2015-07-31,0.058067454021969195
2015-08-03,-0.5559509584296436
2015-08-04,-0.15974657125820024
2015-08-05,0.17525035555906993
2015-08-06,-0.032682400862581014
2015-08-07,-0.10023634990448077
2015-08-10,0.025989465872162526
2015-08-11,0.3896262699564679
2015-08-12,-0.14632051965232346
2015-08-13,-0.06957615298876148
2015-08-14,0.028158775705400575
2015-08-17,0.19352339376166744
2015-08-18,-0.6159961677306998
2015-08-19,-0.032785909014577286
2015-08-20,0.05245463228271659
2015-08-21,0.19051014345132558
2015-08-24,0.1376395781637714
2015-08-25,0.3557271592178295
2015-08-26,0.19753992738947396
2015-08-27,-0.004640234948607543
2015-08-28,-0.057024680300546124
2015-08-31,-0.2796823898702062
2015-09-01,-0.11040444954960829
2015-09-02,0.03730087330120073
2015-09-07,-0.01269517199799385
2015-09-08,-0.21851522235800444
2015-09-09,0.013458582315751831
2015-09-10,0.09301993860274896
2015-09-11,-0.30212014134275744
2015-09-14,-0.07967145600977853
2015-09-15,0.04765886198758991
2015-09-16,-0.10810271319479567
2015-09-17,-0.16556304880836836
2015-09-18,0.04278517967986577
2015-09-21,0.0815761513458875
2015-09-22,0.08148854427845709
2015-09-23,0.3784237514461687
2015-09-24,0.246094636079129
2015-09-25,0.19281127541357462
2015-09-28,-0.0037359550561728736
2015-09-29,-0.035277088502892476
2015-09-30,-0.32886595326752777
2015-10-08,0.004127798005040331
2015-10-09,0.035811232661048145
2015-10-12,0.014314006888629653
2015-10-13,0.018610421836233345
2015-10-14,0.15577493998494063
2015-10-15,-0.02071471985512191
2015-10-16,-0.020369011738590626
2015-10-19,-0.021814006888630857
2015-10-20,-0.04320432043204653
2015-10-21,-0.08712040335281275
2015-10-22,-0.3396791141598231
2015-10-23,-0.3166211691602232
2015-10-26,-0.03852596314908308
2015-10-27,0.15644473855050672
2015-10-28,0.34312785882221
2015-10-29,0.29312268791778817
2015-10-30,0.2886078398606794
2015-11-02,-0.061689554092295595
2015-11-03,-0.14198293308852244
2015-11-04,-0.5247892341030671
2015-11-05,-0.14179688711127897
2015-11-06,-0.015135761510555415
2015-11-09,0.09854327643870164
2015-11-10,0.11751973440054256
2015-11-11,0.27365645451958454
2015-11-12,0.14502496029045092
2015-11-13,-0.12768442286717951
2015-11-16,-0.014994425863992397
2015-11-17,0.020621856070287395
2015-11-18,0.03470085470085384
2015-11-19,0.12195891494084901
2015-11-20,0.15861959029237355
2015-11-23,0.37091767881241794
2015-11-24,-0.14826305158447822
2015-11-25,0.04197338862968922
2015-11-26,-0.12713344788086997
2015-11-27,-0.035394458413911825
2015-11-30,-0.5304986432259772
2015-12-01,-0.02018510367089381
2015-12-02,-0.24526053886060378
2015-12-03,-0.13893937040488816
2015-12-04,-0.18816227230036817
2015-12-07,0.21200448447712825
2015-12-08,0.1292447069122546
2015-12-09,0.08572442621658036
2015-12-10,-0.14586683837948416
2015-12-11,0.31699468769745454
2015-12-14,0.11170287398847731
2015-12-15,-0.1306707891446953
2015-12-16,0.023692992213569707
2015-12-17,0.47041108936588744
2015-12-18,-0.11177596546974844
2015-12-21,-0.15101844624658833
2015-12-22,0.08993944770132456
2015-12-23,0.17580179206338498
2015-12-24,-0.34991813256232285
2015-12-25,-0.21931218443397027
2015-12-28,-0.05179627425044224
2015-12-29,-0.016574272542027382
2015-12-30,-0.26602562751408154
2015-12-31,0.12579244318614435
2016-01-04,0.34483397465320664
2016-01-05,0.01820934306277952
2016-01-06,-0.075834175608805
2016-01-07,0.052144608541940744
2016-01-08,0.08876422231127322
2016-01-11,-0.29035391246281994
2016-01-12,0.05222685654539343
2016-01-13,0.10865844815083514
2016-01-14,0.08695806617764618
2016-01-15,-0.21790214367533667
2016-01-18,0.3369948841120983
2016-01-19,-0.1253326571735067
2016-01-20,-0.0457142857142857
2016-01-21,-0.06213471133285961
2016-01-22,0.04410672070245704
2016-01-25,-0.20264832252095227
2016-01-26,0.13478416095736542
2016-01-27,0.11060433295324955
2016-01-28,-0.0343072047138651
2016-01-29,0.17567189249720666
2016-02-01,-0.119584194482987
2016-02-02,-0.06706269937525633
2016-02-03,-0.21538793204208687
2016-02-04,0.1488967610807205
2016-02-05,-0.15287375825260704
2016-02-15,0.1983502360594777
2016-02-16,0.08687588709931189
2016-02-17,0.08886003220985533
2016-02-18,-0.10789545196274285
2016-02-19,-0.010844726701503167
2016-02-22,-0.05263127933487718
2016-02-23,0.07649667405765109
2016-02-24,0.030760362131208523
2016-02-25,0.02265372168284488
2016-02-26,0.2331629293985551
2016-02-29,-0.15154335573254293
2016-03-01,-0.19246791641470556
2016-03-02,-0.04945598417408635
2016-03-03,0.24897540983606445
2016-03-04,-0.013936262587013748
2016-03-07,0.13029751675097045
2016-03-08,0.4124723388881391
2016-03-09,0.18795591841752887
2016-03-10,-0.21584820135550015
2016-03-11,-0.24729898314453377
2016-03-14,-0.08132166191641824
2016-03-15,-0.546830319694911
2016-03-16,-0.30775303585762087
2016-03-17,-0.2756399915338864
2016-03-18,0.1349149448185445
2016-03-21,0.34775609441155997
2016-03-22,0.15658318401613075
2016-03-23,0.19450539322164145
2016-03-24,0.27035004215396496
2016-03-25,-0.21329958212793393
2016-03-28,-0.32082435848703755
2016-03-29,0.06633494215934707
2016-03-30,0.12810408549668068
2016-03-31,0.057693745888665916
2016-04-01,0.2384383891442327
2016-04-05,-0.11424007142355479
2016-04-06,-0.04096306956732249
2016-04-07,-0.37166891457215867
2016-04-08,-0.16098555044385407
2016-04-11,0.023139781947211446
2016-04-12,0.15496914433084238
2016-04-13,0.23386145555738141
2016-04-14,0.35151638082246717
2016-04-15,0.16331800942420327
2016-04-18,-0.20434884705503237
2016-04-19,-0.05070419776301739
2016-04-20,-0.3016562433064115
2016-04-21,-0.12147237292402213
2016-04-22,0.09473898031502884
2016-04-25,0.2603745260142465
2016-04-26,0.08694229981129505
2016-04-27,0.05042654757208604
2016-04-28,-0.11605838014675607
2016-04-29,-0.3820310157132588
2016-05-03,-0.23707208702424912
2016-05-04,-0.010367945373164988
2016-05-05,0.12357772653541685
2016-05-06,0.23590226079898205
2016-05-09,0.2383267852195144
2016-05-10,0.10666926518734329
2016-05-11,-0.10209846328640093
2016-05-12,-0.13799790405870657
2016-05-13,-0.19308296151845394
2016-05-16,-0.11657445399981935
2016-05-17,-0.18739564958672036
2016-05-18,0.030799247305021555
2016-05-19,0.05061287011964037
2016-05-20,-0.07189936790274312
2016-05-23,0.14790373773607968
2016-05-24,0.14836159611110683
2016-05-25,-0.03414822615336832
2016-05-26,0.03813794786835903
2016-05-27,0.15625134250660622
2016-05-30,-0.1791660450132377
2016-05-31,-0.04312517745496295
2016-06-01,0.22557367317788238
2016-06-02,-0.03388470207873445
2016-06-03,-0.16422730594741136
2016-06-06,0.11983179367340047
2016-06-07,-0.005975705329153896
2016-06-08,-0.34556943780676275
2016-06-13,0.012186525398383666
2016-06-14,0.15015725763823437
2016-06-15,-0.09773178078709731
2016-06-16,0.2390592176051669
2016-06-17,0.265026068942044
2016-06-20,-0.040373484193707974
2016-06-21,0.008801854074959214
2016-06-22,0.18102458111136188
2016-06-23,-0.22655074349472132
2016-06-24,-0.002566629880181248
2016-06-27,0.07670733265355849
2016-06-28,-0.10250181020088192
2016-06-29,-0.02518392336938037
2016-06-30,0.018953404806104968
2016-07-01,0.2651694503184531
2016-07-04,0.30376099496305736
2016-07-05,0.45894647022583746
2016-07-06,0.06106270667946763
2016-07-07,0.1016669616022384
2016-07-08,-0.4069803093681891
2016-07-11,-0.4444121108899273
2016-07-12,-0.5756448843537736
2016-07-13,-0.21807256676562337
2016-07-14,-0.14703233084679693
2016-07-15,-0.06837807482340663
2016-07-18,0.057484740228902334
2016-07-19,0.07332177725620892
2016-07-20,-0.07621739798284997
2016-07-21,0.09623346233462521
2016-07-22,0.18354868529382093
2016-07-25,-0.15050977430176649
2016-07-26,0.1282178528032901
2016-07-27,0.400985259537349
2016-07-28,-0.11206357025786817
2016-07-29,0.026943358279347407
2016-08-01,0.2049097652871233
2016-08-02,0.01796574988861328
2016-08-03,-0.39435557546355826
2016-08-04,0.17289669305389532
2016-08-05,-0.06143709923413743
2016-08-08,0.05993673867689594
2016-08-09,-0.04893872096757184
2016-08-10,0.2639433486270788
2016-08-11,-0.048873498728845756
2016-08-12,-0.1349744689464003
2016-08-15,-0.13098505543949862
2016-08-16,0.01019131506314628
2016-08-17,-0.25452814040842925
2016-08-18,-0.07876599660700029
2016-08-19,0.12126204371735204
2016-08-22,-0.05061830458588393
2016-08-23,-0.03652390639029933
2016-08-24,0.2765753043627141
2016-08-25,0.1465882808621819
2016-08-26,-0.040889902060110256
2016-08-29,0.0946157798646568
2016-08-30,0.02592117485733548
2016-08-31,-0.2404458016861174
2016-09-01,-0.27398220508723464
2016-09-02,0.31280613348612774
2016-09-05,0.028998153586735517
2016-09-06,0.1511656291913083
2016-09-07,0.0929609626717884
2016-09-08,0.20272690473578678
2016-09-09,-0.49998810356283574
2016-09-12,0.4471505036615739
2016-09-13,-0.22536624502354352
2016-09-14,0.04961706683264705
2016-09-19,0.08600491633894694
2016-09-20,0.21765146711246838
2016-09-21,-0.7211374805225907
2016-09-22,0.3205184396148498
2016-09-23,-0.0481484349211668
2016-09-26,-0.24225793206721635
2016-09-27,0.1906305550069127
2016-09-28,0.21427520699365837
2016-09-29,-0.3116677891325756
2016-09-30,0.013695728298888031
2016-10-10,0.2359937263911285
2016-10-11,-0.29333071735844585
2016-10-12,0.06386143736740846
2016-10-13,0.005208415412498862
2016-10-14,0.014451732865034279
2016-10-17,-0.24674671592774639
2016-10-18,0.20510980090574915
2016-10-19,-0.1019080991764528
2016-10-20,0.027905866927048703
2016-10-21,0.16240601503759441
2016-10-24,0.08306623931623926
2016-10-25,-0.08277937001670645
2016-10-26,0.3219965649126209
2016-10-27,0.12489632218268916
2016-10-28,-0.16046350289688963
2016-10-31,0.1295261252157788
2016-11-01,0.0866840129787992
2016-11-02,-0.29561299729094864
2016-11-03,-0.04607975475355061
2016-11-04,0.13221202313365124
2016-11-07,0.187384401267236
2016-11-08,0.13119390901160208
2016-11-09,0.2557217038373762
2016-11-10,0.09364663783127335
2016-11-11,-0.17468085106382855
2016-11-14,-0.028356339278130194
2016-11-15,-0.18833667000874832
2016-11-16,-0.3046738418754104
2016-11-17,-0.19026217228464404
2016-11-18,0.07005602240896461
2016-11-21,-0.4438525613626725
2016-11-22,-0.17688482103598152
2016-11-23,0.0791440511471469
2016-11-24,0.11399919775371062
2016-11-25,-0.05843978342007021
2016-11-28,0.1401497769276443
2016-11-29,0.1805489107401389
2016-11-30,0.15888760219215706
2016-12-01,-0.025188418609012383
2016-12-02,-0.03319808218008953
2016-12-05,-0.017345065339660737
2016-12-06,-0.22904568029759534
2016-12-07,-0.30584985085737726
2016-12-08,-0.11771520804912781
2016-12-09,0.07928802875820416
2016-12-12,0.08797888615847423
2016-12-13,0.43468898573692805
2016-12-14,0.21684501815506396
2016-12-15,0.11080193802706963
2016-12-16,-0.11959554327915162
2016-12-19,0.15948781604879797
2016-12-20,-0.42309724689165507
2016-12-21,-0.17706449046931594
2016-12-22,-0.15598068879893712
2016-12-23,0.19203241922859804
2016-12-26,-0.031933405525012976
2016-12-27,0.30295708012914646
2016-12-28,0.17997794711942638
2016-12-29,0.25717496711591314
2016-12-30,-0.13974180024600097
2017-01-03,-0.29935360300710956
2017-01-04,-0.2124179491002291
2017-01-05,0.14379020063757741
2017-01-06,-0.2069432781477757
2017-01-09,-0.018083201971261856
2017-01-10,0.1412044420116731
2017-01-11,0.07542576292156088
2017-01-12,-0.23165716531811903
2017-01-13,0.07640772792697156
2017-01-16,0.17591467249918885
2017-01-17,0.13430469546879936
2017-01-18,-0.036349924585222924
2017-01-19,-0.1566230256720882
2017-01-20,0.1863001630410989
2017-01-23,-0.14594891805115257
2017-01-24,-0.24766572185112543
2017-01-25,0.09465430805061986
2017-01-26,0.3459721380981221
2017-02-03,-0.28421159151674247
2017-02-06,-0.030745352208764547
2017-02-07,0.10160529434122263
2017-02-08,-0.12180978562626356
2017-02-09,-0.20574673864147486
2017-02-10,-0.023675906147434034
2017-02-13,0.28861318877375536
2017-02-14,-0.014446387692130275
2017-02-15,0.23183986238173487
2017-02-16,-0.01863336378740591
2017-02-17,0.251300600950366
2017-02-20,-0.33250384357350227
2017-02-21,0.06286887283349558
2017-02-22,-0.3364871949989928
2017-02-23,0.16569112785206183
2017-02-24,-0.18232122322543903
2017-02-27,0.08655834454972841
2017-02-28,0.03386752545747429
2017-03-01,0.13516869095816544
2017-03-02,-0.2021495971294876
2017-03-03,0.11105800898751633
2017-03-06,-0.0664103066633341
2017-03-07,-0.1040979463715746
2017-03-08,0.07660224581773835
2017-03-09,0.23426514513287988
2017-03-10,0.12501521606816643
2017-03-13,0.16266392548983022
2017-03-14,0.05960518233093435
2017-03-15,0.009139150943394729
2017-03-16,-0.24803256445047311
2017-03-17,-0.3445091596973323
2017-03-20,-0.21984237067621304
2017-03-21,0.03837496145544049
2017-03-22,-0.0657429245283036
2017-03-23,0.13251197392988484
2017-03-24,0.1255239091608345
2017-03-27,0.43271593389460605
2017-03-28,0.03950395936053012
2017-03-29,0.009290909364699824
2017-03-30,-0.030285577525710046
2017-03-31,0.05866161051318981
2017-04-05,-0.43084350420395945
2017-04-06,-0.018913311288336863
2017-04-07,-0.02164510794076905
2017-04-10,-0.0017243861140876157
2017-04-11,0.23157030507302961
2017-04-12,0.14887380723425972
2017-04-13,-0.09350222599109964
2017-04-14,0.09260518448743738
2017-04-17,0.2830689542668691
2017-04-18,-0.41161599651302233
2017-04-19,0.045279720279722005
2017-04-20,0.06904572461128254
2017-04-21,-0.09853873082572892
2017-04-24,-0.316038006953393
2017-04-25,0.22372004440506404
2017-04-26,-0.18082798376523226
2017-04-27,-0.03347177429182442
2017-04-28,0.14129169985561413
2017-05-02,-0.01874218211499467
2017-05-03,-0.0626770616229522
2017-05-04,0.151050298763667
2017-05-05,-0.09191540576758911
2017-05-08,-0.20501673497660067
2017-05-09,0.0016217776286286678
2017-05-10,-0.0350476471166079
2017-05-11,0.023284779712269048
2017-05-12,0.051226788609763256
2017-05-15,0.07398827428476415
2017-05-16,0.061135410979691204
2017-05-17,0.16588692568315852
2017-05-18,-0.09346842370429051
2017-05-19,0.025655464829319262
2017-05-22,0.1638787316487503
2017-05-23,-0.053610846368367104
2017-05-24,-0.2191230486685009
2017-05-25,0.0667395609449366
2017-05-26,0.027354556696292685
2017-05-31,-0.18615050982610518
2017-06-01,0.1558940741544976
2017-06-02,0.0944709848984399
2017-06-05,-0.04051560568872438
2017-06-06,0.002552455115721327
2017-06-07,0.07487849417052764
2017-06-08,-0.1933499062373044
2017-06-09,-0.06639114342147143
2017-06-12,-0.08057523928777918
2017-06-13,0.2376597679020238
2017-06-14,-0.10233511086163408
2017-06-15,0.13964025365969027
2017-06-16,0.1571764621379476
2017-06-19,0.19277283453622526
2017-06-20,-0.43186017414773553
2017-06-21,-0.027152759758311676
2017-06-22,0.01093069553316256
2017-06-23,-0.0335489077285378
2017-06-26,-0.08136150627282455
2017-06-27,0.1400830436548486
2017-06-28,0.1656628357199905
2017-06-29,-0.12186703978761113
2017-06-30,-0.1470644506146795
2017-07-03,-0.15590489083664433
2017-07-04,0.1543554871546392
2017-07-05,-0.09111415551572638
2017-07-06,0.09120814998019702
2017-07-07,0.021725300141944334
2017-07-10,0.284624782993766
2017-07-11,-0.17889552709737172
2017-07-12,-0.04968842000752916
2017-07-13,-0.04912788987587738
2017-07-14,0.3179072951518555
2017-07-17,-0.08671283511886557
2017-07-18,0.02346057850336599
2017-07-19,0.26698671920433936
2017-07-20,0.034320636848723746
2017-07-21,-0.33631805107800866
2017-07-24,-0.1275548311373879
2017-07-25,0.00429906471876277
2017-07-26,-0.27780184786022893
2017-07-27,0.28829955580928324
2017-07-28,0.24476118075647882
2017-07-31,0.07528094114020249
2017-08-01,0.18099375027702078
2017-08-02,0.1063699057097462
2017-08-03,-0.4434234296831544
2017-08-04,-0.2954441257221705
2017-08-07,-0.004494606914518912
2017-08-08,-0.15479282622139293
2017-08-09,-0.09705382347895289
2017-08-10,0.1962617446081562
2017-08-11,0.29853700564812957
2017-08-14,0.016760108732583816
2017-08-15,-0.027170576525962557
2017-08-16,0.19120782567947733
2017-08-17,0.03331976190749293
2017-08-18,-0.27682957183422563
2017-08-21,-0.06686181697392173
2017-08-22,-0.06092401858996926
2017-08-23,-0.04475771869640066
2017-08-24,-0.2366093545280111
2017-08-25,0.08776805086261742
2017-08-28,0.12581987141390782
2017-08-29,0.17453186060508447
2017-08-30,-0.17020440251572147
2017-08-31,0.32321158718507537
2017-09-01,0.024433695001933792
2017-09-04,-0.14359821557844515
2017-09-05,-0.1170708684529933
2017-09-06,0.03901218673005036
2017-09-07,-0.37013641528447916
2017-09-08,0.14505375171890517
2017-09-11,0.1588603069687778
2017-09-12,-0.0046168608580514775
2017-09-13,-0.025071083973159547
2017-09-14,0.3406139315230151
2017-09-15,-0.057982195845698525
2017-09-18,-0.05180151507835329
2017-09-19,0.1319410319410321
2017-09-20,0.15291213107395654
2017-09-21,-0.12044603336737329
2017-09-22,-0.14728110599077862
2017-09-25,-0.04112379837017484
2017-09-26,-0.09540620898401334
2017-09-27,-0.09568656716418163
2017-09-28,-0.09657944374082897
2017-09-29,-0.05420370840742146
2017-10-09,0.06570450370205216
2017-10-10,0.03542574659391092
2017-10-11,0.10459624413145714
2017-10-12,0.08285242124840263
2017-10-13,0.1509930111195113
2017-10-16,-0.2156063188627984
2017-10-17,-0.1317691819911238
2017-10-18,-0.08140016570008618
2017-10-19,-0.07432636551090319
2017-10-20,-0.049325269892043014
2017-10-23,0.12642767283137332
2017-10-24,0.11804271061039362
2017-10-25,-0.16842951691717523
2017-10-26,0.08749087137943401
2017-10-27,0.146471137442953
2017-10-30,0.12207615309945916
2017-10-31,-0.0035911913067698635
2017-11-01,0.7821788102612178
2017-11-02,0.0101889060590489
2017-11-03,-0.18661716390321537
2017-11-06,-0.17807134247946615
2017-11-07,0.03359238725421135
2017-11-08,-0.9024069102369505
2017-11-09,-0.01238609769456966
2017-11-10,0.24466728433517856
2017-11-13,0.12750075006066586
2017-11-14,-0.022967228849577696
2017-11-15,0.36017582417582256
2017-11-16,-0.06374992918248273
2017-11-17,-0.26973819830962253
2017-11-20,-0.07356761105250156
2017-11-21,-0.11675229532372366
2017-11-22,-0.21143179983857552
2017-11-23,0.18680465903036272
2017-11-24,0.10257787325456136
2017-11-27,0.02131671153270784
2017-11-28,0.07957263947547294
2017-11-29,0.10995315477229624
2017-11-30,-0.17762366752950842
2017-12-01,0.011256140350879126
2017-12-04,0.1129381848733536
2017-12-05,0.08487668455793951
2017-12-06,0.16624657279073446
2017-12-07,0.06831162774010624
2017-12-08,-0.10055398633257624
2017-12-11,-0.08980335658198323
2017-12-12,0.04360056258790185
2017-12-13,0.11373517786560472
2017-12-14,0.10105734684359632
2017-12-15,0.06709198167057245
2017-12-18,0.06055181199504647
2017-12-19,-0.19015389573765193
2017-12-20,-0.42604416295788583
2017-12-21,-0.2797954558168637
2017-12-22,-0.0010392496139346166
2017-12-25,-0.22023187782142545
2017-12-26,0.23544625406534453
2017-12-27,0.1252463043926962
2017-12-28,0.17068359831028476
2017-12-29,0.03373752027088596
2018-01-02,0.2094730902176672
2018-01-03,-0.2473125603478931
2018-01-04,0.10343761011798075
2018-01-05,-0.07021593714603429
2018-01-08,-0.03766322147027887
2018-01-09,-0.18117529336086122
2018-01-10,-0.012112887112891643
2018-01-11,-0.08267337562894907
2018-01-12,0.008307662056759368
2018-01-15,-0.04370637785800113
2018-01-16,0.07317782759742114
2018-01-17,0.11405138978669163
2018-01-18,0.0870889600445403
2018-01-19,0.2739649787347178
2018-01-22,0.12808650681711195
2018-01-23,0.05800155262281985
2018-01-24,-0.056249050007608124
2018-01-25,-0.08516176651494754
2018-01-26,-0.3996791490858006
2018-01-29,0.24335173345361555
2018-01-30,0.09464991458866823
2018-01-31,0.22441038968798543
2018-02-01,0.04475178434025587
2018-02-02,0.20188250567998475
2018-02-05,-0.36523026037754575
2018-02-06,-0.15787569089185216
2018-02-07,-0.15530705466419195
2018-02-08,0.139181879648417
2018-02-09,0.05538944084926856
2018-02-12,-0.07970391485253345
2018-02-13,0.033511264360196795
2018-02-14,-0.03899228979317359
2018-02-22,-0.18056044449717237
2018-02-23,-0.17290471126889842
2018-02-26,0.11706788000635278
2018-02-27,0.022728802462260556
2018-02-28,-0.10975568494646044
2018-03-01,-0.09947921747012609
2018-03-02,-0.01731006166007147
2018-03-05,-0.002997782367581395
2018-03-06,-0.037841481950714254
2018-03-07,0.0999058752965102
2018-03-08,0.11351722152119025
2018-03-09,0.24283418028613862
2018-03-12,0.0814614607302495
2018-03-13,-0.026635125778903326
2018-03-14,0.10665280508280475
2018-03-15,0.007890403112243066
2018-03-16,-0.2232679570826489
2018-03-19,-0.16592451229856092
2018-03-20,0.04374847374847276
2018-03-21,-0.12494699757628772
2018-03-22,0.14640296412448406
2018-03-23,1.1730620654133372
2018-03-26,0.12468217645563369
2018-03-27,0.06690270877353104
2018-03-28,0.09321740866732145
2018-03-29,-0.16196568558532962
2018-03-30,-1.455736677115986
2018-04-02,0.06374525749297744
2018-04-03,-0.08578266795200068
2018-04-04,-0.17624818106807474
2018-04-09,0.036375750969530454
2018-04-10,0.15503737641668816
2018-04-11,-0.23574798458775054
2018-04-12,0.08946646079945576
2018-04-13,0.16862864442942915
2018-04-16,0.004274383078724964
2018-04-17,0.2900371233704563
2018-04-18,0.16117227800941625
2018-04-19,0.05627368712954881
2018-04-20,-0.027326200513002157
2018-04-23,-0.057328152322803416
2018-04-24,-0.07602892425329093
2018-04-25,-0.06497556112769758
2018-04-26,-0.2726483874799062
2018-04-27,0.024663463322580632
2018-05-02,0.015820518735027322
2018-05-03,-0.15358905850934854
2018-05-04,0.07607248851199264
2018-05-07,0.06063170853690626
2018-05-08,-0.01179409346741122
2018-05-09,0.04838747854901588
2018-05-10,0.26724179161586425
2018-05-11,-0.08554956178405268
2018-05-14,0.10614757291640593
2018-05-15,-0.13880078968561566
2018-05-16,-0.05157300391496237
2018-05-17,-0.15529275985552093
2018-05-18,0.12261794566640113
2018-05-21,0.22626884688891807
2018-05-22,0.07971365709938091
2018-05-23,0.1694812945469465
2018-05-24,0.10001518198240934
2018-05-25,0.02777180350114651
2018-05-28,0.08691384127465204
2018-05-29,0.45255790967207843
2018-05-30,0.05260257478929273
2018-05-31,0.0418844673799378
2018-06-01,-0.030196557545780107
2018-06-04,-0.3466697984520331
2018-06-05,-0.5231646395497217
2018-06-06,-0.3300358806784375
2018-06-07,-0.1427893002519875
2018-06-08,-0.06709659849430437
2018-06-11,-0.12004290945202722
2018-06-12,0.0066428468593717205
2018-06-13,0.44601721236428427
2018-06-14,-0.05967488886952016
2018-06-15,-0.07339846387575727
2018-06-19,0.1824385665771943
2018-06-20,0.07416723501923385
2018-06-21,-0.6076988887720943
2018-06-22,0.09229829504241802
2018-06-25,0.043800057208235064
2018-06-26,-0.11968737209720337
2018-06-27,-0.07190789143630624
2018-06-28,0.24208289222293955
2018-06-29,-0.02154318533473458
2018-07-02,0.09186771106547906
2018-07-03,-0.015305269027046042
2018-07-04,0.2362257013764821
2018-07-05,0.22783512257196115
2018-07-06,0.16991439430279592
2018-07-09,-0.07995472131533696
2018-07-10,0.09487541741587946
2018-07-11,0.04376723996606807
2018-07-12,-0.22062573030314458
2018-07-13,-0.14754674005884588
2018-07-16,-0.013756179900704393
2018-07-17,0.05492174282753166
2018-07-18,-0.4202303706420759
2018-07-19,-0.03289257346642022
2018-07-20,0.06118249454826252
2018-07-23,0.04787164399563803
2018-07-24,-0.08615735985024045
2018-07-25,0.23845980404214467
2018-07-26,0.028548828800093858
2018-07-27,-0.19096103755992347
2018-07-30,0.13092209672626565
2018-07-31,0.039092782001490176
2018-08-01,0.12303063949824067
2018-08-02,0.10562830687830219
2018-08-03,0.21330743371442257
2018-08-06,-0.28958693374642536
2018-08-07,0.03577701833682725
2018-08-08,-0.23033983818565745
2018-08-09,-0.036284626038778856
2018-08-10,-0.04993730729534836
2018-08-13,0.1469613259668474
2018-08-14,0.03700666960643969
2018-08-15,0.10568918661930916
2018-08-16,0.14613309703854166
2018-08-17,-0.14650594291011065
2018-08-20,0.044449310070541065
2018-08-21,0.011984862584203781
2018-08-22,0.03282684186338432
2018-08-23,-0.255890346626641
2018-08-24,0.1300003949544986
2018-08-27,-0.04554700491137713
2018-08-28,-0.29483791378831525
2018-08-29,-0.046194487018745366
2018-08-30,0.06381907227959893
2018-08-31,0.05559884559884161
2018-09-03,0.018665262408402775
2018-09-04,0.32524553799453143
2018-09-05,0.08312822392710645
2018-09-06,0.08976419407576118
2018-09-07,-0.10125889436234391
2018-09-10,-0.004594594594590721
2018-09-11,-0.23611140638441835
2018-09-12,-0.1675489798135129
2018-09-13,-0.18678406715990825
2018-09-14,-0.02016094834386898
2018-09-17,-0.03239044870113069
2018-09-18,0.08885883252146334
2018-09-19,0.29069943366523165
2018-09-20,0.28205075008581937
2018-09-21,0.12247946369203686
2018-09-25,-0.028913939691871716
2018-09-26,0.08323456287587233
2018-09-27,-0.15427607338168664
2018-09-28,-0.15704654785856037
2018-10-08,-0.1527658985199169
2018-10-09,0.05315069252846005
2018-10-10,-0.07961369719219033
2018-10-11,-0.24846906543499886
2018-10-12,0.007034069258262386
2018-10-15,0.13172471588586385
2018-10-16,0.06587291729510586
2018-10-17,0.035161416946227576
2018-10-18,0.23738496932516048
2018-10-19,-0.058199086490191246
2018-10-22,-0.045046210083450194
2018-10-23,-0.09854734760688555
2018-10-24,-0.05249425554640098
2018-10-25,-0.12378731343284516
2018-10-26,-0.007491245406013189
2018-10-29,-0.06254725039519717
2018-10-30,-0.0263504542732854
2018-10-31,0.14288141159949383
2018-11-01,0.08716096934682344
2018-11-02,0.055135727833105386
2018-11-05,0.16702668157854178
2018-11-06,0.07883614934854637
2018-11-07,-0.1556514138035986
2018-11-08,0.128895802630862
2018-11-09,0.13702105720178
2018-11-12,0.0796431605777389
2018-11-13,0.02486327140142764
2018-11-14,0.14827582653145638
2018-11-15,-0.024693626842300448
2018-11-16,-0.12266921649197297
2018-11-19,-0.2524606176998958
2018-11-20,-0.007787652135903503
2018-11-21,0.09478167329356442
2018-11-22,-0.12176161151905603
2018-11-23,0.11515795077180976
2018-11-26,0.08649445051981478
2018-11-27,0.004805466769538171
2018-11-28,-0.34834281908092396
2018-11-29,-0.0663499344692031
2018-11-30,-0.34130214649648144
2018-12-03,0.0884594697016022
2018-12-04,-0.2092335213980983
2018-12-05,0.135790664911426
2018-12-06,0.19049053356282436
2018-12-07,0.28464716711789717
2018-12-10,-0.37487965261516776
2018-12-11,0.1651912586931187
2018-12-12,-0.018410411475000246
2018-12-13,-0.25400863521958317
2018-12-14,-0.15738321806001318
2018-12-17,0.2523372539880174
2018-12-18,-0.029085334783749625
2018-12-19,0.062274056204095055
2018-12-20,0.17957245838989333
2018-12-21,0.08422642800136851
2018-12-24,0.02065200524763329
2018-12-25,0.11430253674593116
2018-12-26,-0.019769109133784508
2018-12-27,0.041724508237514016
2018-12-28,0.2480930382466712
2019-01-02,0.06233890029083908
2019-01-03,-0.11549793354870135
2019-01-04,0.006991201795471912
2019-01-07,-0.12028106683783006
2019-01-08,-0.4117339368477214
2019-01-09,-0.041555810490861544
2019-01-10,-0.04558312902831567
2019-01-11,0.053999802965380976
2019-01-14,0.10924133230196247
2019-01-15,0.2522470397506854
2019-01-16,-0.13170324733667374
2019-01-17,0.13712742409265302
2019-01-18,-0.16113708375117597
2019-01-21,-0.014731897161720124
2019-01-22,-0.02770183096802263
2019-01-23,0.14524840239126433
2019-01-24,-0.08450855194851253
2019-01-25,0.08287211439708934
2019-01-28,-0.1490433580678047
2019-01-29,-0.2059341592298573
2019-01-30,-0.06656187074438256
2019-01-31,0.026623576485069547
2019-02-01,0.10664397004485529
2019-02-11,0.2199985708744211
2019-02-12,0.16710000666677355
2019-02-13,0.180620340708361
2019-02-14,-0.02764631833898693
2019-02-15,-0.1662941849668613
2019-02-18,-0.11819480408311638
2019-02-19,0.12944960393004876
2019-02-20,-0.26716378995671675
2019-02-21,-0.009498207157565098
2019-02-22,0.23367045211056298
2019-02-25,0.28871461943390425
2019-02-26,-0.23321187696244833
2019-02-27,0.16245281739484216
2019-02-28,0.02155631253992007
2019-03-01,-0.2294997898276596
2019-03-04,-0.5689024294976908
2019-03-05,0.11567415501006702
2019-03-06,-0.09132295016407424
2019-03-07,-0.006982148286501184
2019-03-08,0.1781811085089784
2019-03-11,0.2539839161471125
2019-03-12,-0.07062984819418192
2019-03-13,-0.0329612900817527
2019-03-14,0.057941046019598846
2019-03-15,-0.2413941480206509
2019-03-18,0.02475775149409485
2019-03-19,-0.08204120443739077
2019-03-20,0.11437410466640469
2019-03-21,0.0006315822714750702
2019-03-22,0.04545636487357005
2019-03-25,0.14981572283237402
2019-03-26,0.1929087221095252
2019-03-27,-0.14033202271734105
2019-03-28,0.07231468459826804
2019-03-29,0.40568297154501887
2019-04-01,-0.19716562915810412
2019-04-02,-0.0207686916681283
2019-04-03,0.15006802721088236
2019-04-04,-0.2043174707433022
2019-04-08,-0.5242051187115229
2019-04-09,-0.029378186654842355
2019-04-10,-0.07349013526320519
2019-04-11,-0.045751605569808756
2019-04-12,0.07915517350245566
2019-04-15,0.22797333182592758
2019-04-16,0.15998668087187812
2019-04-17,0.03669120623745397
2019-04-18,-0.07490129775786691
2019-04-19,0.08584146722233604
2019-04-22,-0.018722022678408876
2019-04-23,-0.16030595619115806
2019-04-24,-0.04523583825774931
2019-04-25,0.10026706846856889
2019-04-26,-0.16826233386742245
2019-04-29,0.1409229068803555
2019-04-30,0.08710994366732992
2019-05-06,0.15218045112780837
2019-05-07,0.07559253292294227
2019-05-08,0.10500766299686262
2019-05-09,-0.1624970773906969
2019-05-10,-0.005767809737552901
2019-05-13,-0.08752986144290596
2019-05-14,-0.15345837658540962
2019-05-15,-0.028683421067528553
2019-05-16,-0.07427310894471503
2019-05-17,0.05925102297816277
2019-05-20,-0.14290830293354656
2019-05-21,-0.09034573169507783
2019-05-22,0.10995115995116835
2019-05-23,0.06994790186607101
2019-05-24,-0.041956573896348465
2019-05-27,0.4282403621786527
2019-05-28,0.23305438898805422
2019-05-29,-0.16472258628223255
2019-05-30,0.22989594886095677
2019-05-31,-0.014258879781422502
2019-06-03,-0.48398422859541224
2019-06-04,-0.14160588775838948
2019-06-05,0.08740948487586499
2019-06-06,-0.45252944670453976
2019-06-10,0.05732462470240814
2019-06-11,0.3062246747164576
2019-06-12,0.07056459104928196
2019-06-13,0.024822931026278503
2019-06-14,0.3577097505668844
2019-06-17,-0.166627252857504
2019-06-18,-0.246428002337078
2019-06-19,0.10181641478446249
2019-06-20,-0.06883672336674498
2019-06-21,-0.2429792429792384
2019-06-24,0.1859955796664835
2019-06-25,0.05143428209289643
2019-06-26,-0.288752505010019
2019-06-27,0.04588268621306784
2019-06-28,0.17832289959429862
2019-07-01,-0.005629165187917826
2019-07-02,1.5051098064796673
2019-07-03,0.8086675579322559
2019-07-04,0.07083828286828095
2019-07-05,-0.03650451896994869
2019-07-08,0.022151374246123137
2019-07-09,-1.665416541654162
2019-07-10,-1.0054974250610889
2019-07-11,0.007330386857924184
2019-07-12,0.09293040967999935
2019-07-15,-0.22592456437026198
2019-07-16,0.29743257830937697
2019-07-17,0.3585317825318646
2019-07-18,-0.13392026319655356
2019-07-19,-0.1261364723897069
2019-07-22,0.1798126713371851
2019-07-23,-0.24839884281903896
2019-07-24,0.19668447049314272
2019-07-25,-0.02636240655409894
2019-07-26,-0.036288844540377785
2019-07-29,-0.054987078630329936
2019-07-30,0.1822476400698973
2019-07-31,-0.4203761818145454
2019-08-01,0.02044269149532167
2019-08-02,0.06955717413841823
2019-08-05,0.05112735630274247
2019-08-06,0.06679629697569747
2019-08-07,0.1892475051694687
2019-08-08,0.4095551768587085
2019-08-09,-0.013356997249899433
2019-08-12,0.11754211544846781
2019-08-13,0.015638300963600138
2019-08-14,0.07931501235726961
2019-08-15,-0.5787004060034291
2019-08-16,0.0931105407335273
2019-08-19,-0.2247899533151841
2019-08-20,-0.2366118008181183
2019-08-21,0.04316327471853368
2019-08-22,0.18215360235046102
2019-08-23,-0.12463964238886
2019-08-26,-0.014145928735138813
2019-08-27,0.1526741867592285
2019-08-28,-0.22496635520178185
2019-08-29,0.04249859392575786
2019-08-30,-0.06968703965366553
2019-09-02,0.46187726887620606
2019-09-03,0.33020719068387333
2019-09-04,0.5429547393169377
2019-09-05,0.2475693279045581
2019-09-06,0.19278478043044023
2019-09-09,-0.4498113305411106
2019-09-10,-0.4543408338671769
2019-09-11,-0.6541730768255761
2019-09-12,-0.4839019083924645
2019-09-16,-0.05715479335424574
2019-09-17,-0.05160979791758294
2019-09-18,0.07091818190400798
2019-09-19,0.19749641422583752
2019-09-20,0.09472528140029493
2019-09-23,-0.19304119514776097
2019-09-24,0.008284743469918032
2019-09-25,-0.0699918776676432
2019-09-26,0.2444614006987081
2019-09-27,0.23609118923828573
2019-09-30,0.16658012591678786
2019-10-08,0.16996982279150086
2019-10-09,0.22779200544171965
2019-10-10,-0.20561823590281392
2019-10-11,-0.17842403613929836
2019-10-14,-0.039565922049519066
2019-10-15,-0.105834399137957
2019-10-16,-0.06746670369700483
2019-10-17,-0.0302009814307524
2019-10-18,0.12429705665002187
2019-10-21,0.11783658022660876
2019-10-22,-0.020543364473380364
2019-10-23,-0.10189839079834498
2019-10-24,0.008602573136890654
2019-10-25,-0.06223124248561315
2019-10-28,-0.21175723473087538
2019-10-29,0.10417718550401527
2019-10-30,-0.08500080129227386
2019-10-31,-0.02254094060202263
2019-11-01,0.08054443708544191
2019-11-04,0.08784484697245044
2019-11-05,-0.01912380869678967
2019-11-06,0.21706192358366116
2019-11-07,0.08560849511769486
2019-11-08,-0.30273777352078496
2019-11-11,0.0593149702994608
2019-11-12,-0.011625558018248135
2019-11-13,0.13387745628964529
2019-11-14,0.05202232408115126
2019-11-15,0.2994857410004717
2019-11-18,0.030187852106096997
2019-11-19,0.04941749990171523
2019-11-20,-0.3605391254550611
2019-11-21,0.12209464299927768
2019-11-22,0.044694413198343
2019-11-25,-0.13753821366602703
2019-11-26,-0.15172749391727783
2019-11-27,0.1370943204868105
2019-11-28,-0.4501819648845597
2019-11-29,-0.23677362111913824
2019-12-02,0.12680467496753578
2019-12-03,0.1678787878787903
2019-12-04,0.06593386085398605
2019-12-05,0.32905570274306883
2019-12-06,0.028470801834599366
2019-12-09,-0.0104114631098958
2019-12-10,-0.07352056678034864
2019-12-11,-0.08910259672143672
2019-12-12,-0.10706081783257444
2019-12-13,0.20556242907469932
2019-12-16,-0.003996236646553377
2019-12-17,0.020251707979572348
2019-12-18,0.04855388992907128
2019-12-19,0.03403361344536764
2019-12-20,-0.17130290539861398
2019-12-23,0.024883359253490257
2019-12-24,0.033619546688559765
2019-12-25,0.027476391400451786
2019-12-26,-0.05483164849159453
2019-12-27,0.08821413063705666
2019-12-30,0.36672625078245935
2019-12-31,-0.11061461750655083
2020-01-02,0.008829172000416156
2020-01-03,0.09593210705622231
2020-01-06,0.08330924972604395
2020-01-07,-0.7548800505649818
2020-01-08,0.07819580202772124
2020-01-09,0.008536206850743043
2020-01-10,-0.1394227946589665
2020-01-13,-0.2569407714348674
2020-01-14,0.4307115219981033
2020-01-15,0.015604478405253194
2020-01-16,-0.07848566259115153
2020-01-17,0.10616547334924746
2020-01-20,0.32432911501192896
2020-01-21,0.010276065398019826
2020-01-22,0.005167139788017805
2020-01-23,0.16430738119313026
2020-02-03,0.16120943952802383
2020-02-04,-0.1161243241245935
2020-02-05,-0.13577244003684213
2020-02-06,-0.06674380564694507
2020-02-07,-0.24557576955533866
2020-02-10,-0.2843304230429742
2020-02-11,-0.20550856118282543
2020-02-12,-0.020157598172117645
2020-02-13,-0.0763889954821535
2020-02-14,-0.09183119088042861
2020-02-17,0.07280047069444179
2020-02-18,0.19017949651368543
2020-02-19,0.02472601188298414
2020-02-20,0.1211604517260973
2020-02-21,0.27817204301075615
2020-02-24,0.060281065088750946
2020-02-25,-0.1470815949073133
2020-02-26,0.12486177991795697
2020-02-27,0.027110501029518373
2020-02-28,0.2691142191142154
2020-03-02,0.12849170557387973
2020-03-03,0.1336394056744249
2020-03-04,-0.1259530497592299
2020-03-05,-0.06630824372760216
2020-03-06,-0.5194183553672584
2020-03-09,-0.32817478431163505
2020-03-10,0.05210977843916949
2020-03-11,0.008022616136923857
2020-03-12,0.1305619479546591
2020-03-13,0.5494229963955212
2020-03-16,0.33253511122676427
2020-03-17,0.02252120367143169
2020-03-18,0.13617154629962536
2020-03-19,0.20948006558939586
2020-03-20,-0.14226245652022868
2020-03-23,-0.03256687312071918
2020-03-24,-0.08590937386663053
2020-03-25,-0.08814077465675405
2020-03-26,-0.4667489657642046
2020-03-27,-0.4886369419245282
2020-03-30,-0.27291788794507277
2020-03-31,-0.0716684416398783
2020-04-01,-0.09849953290451206
2020-04-02,0.19358770749669005
2020-04-03,0.2006058980844638
2020-04-07,0.08228001944579239
2020-04-08,0.002529133592300406
2020-04-09,0.052360976508065524
2020-04-10,-0.020126978224683244
2020-04-13,0.02801902390430148
2020-04-14,0.07767249159078451
2020-04-15,-0.0011225577392569089
2020-04-16,-0.021387496119045567
2020-04-17,-0.1717978343344579
2020-04-20,0.0463006589731203
2020-04-21,-0.08273461962342596
2020-04-22,0.123151849071748
2020-04-23,0.38179323272192556
2020-04-24,0.14232253071415513
2020-04-27,0.1625891481228123
2020-04-28,0.1556909558742022
2020-04-29,-0.09093766069459187
2020-04-30,-0.475940535778382
2020-05-06,0.008870388550751325
2020-05-07,-0.35976488246767635
2020-05-08,-0.23181008083055987
2020-05-11,0.01883106517010483
2020-05-12,0.07065035337472136
2020-05-13,0.007032608130884752
2020-05-14,0.05752317621222197
2020-05-15,0.13693067140043677
2020-05-18,0.10870881251897199
2020-05-19,0.049009469489898816
2020-05-20,0.16814981508906499
2020-05-21,0.1871617210805138
2020-05-22,0.11747570920306014
2020-05-25,-0.13373074522941678
2020-05-26,0.025247653299937604
2020-05-27,-0.37889146464514173
2020-05-28,-0.10843622556687416
2020-05-29,-0.25576439264428663
2020-06-01,-0.060486194472042565
2020-06-02,-0.005622805699704595
2020-06-03,0.23636530429684363
2020-06-04,0.16714507728423755
2020-06-05,0.1106508845604544
2020-06-08,0.03219106689720403
2020-06-09,0.016046835788836308
2020-06-10,-0.06303906349974481
2020-06-11,-0.15329371300627279
2020-06-12,0.11342669926688664
2020-06-15,0.20857569508639656
2020-06-16,0.10727685816293808
2020-06-17,-0.015326173771123022
2020-06-18,-0.11569551254286999
2020-06-19,-0.03633401886296851
2020-06-22,-0.2158378207158707
2020-06-23,-0.2878010117257627
2020-06-24,0.01220653409559408
2020-06-29,0.17462428923144102
2020-06-30,-0.08165253395131639
2020-07-01,-0.04507602371130174
2020-07-02,0.08783664142482318
2020-07-03,0.19382875258680748
2020-07-06,0.18334221741265969
2020-07-07,0.06650336070902096
2020-07-08,0.08800956076248798
2020-07-09,0.13310536588918773
2020-07-10,-0.005325327760515974
2020-07-13,-0.03586025617873417
2020-07-14,-0.03088100190583118
2020-07-15,0.020725729873922193
2020-07-16,0.04652073791089799
2020-07-17,-0.29389379666752
2020-07-20,-0.4694965570774468
2020-07-21,0.01022244291434969
2020-07-22,0.06469001537153829
2020-07-23,-0.1880738328500927
2020-07-24,0.15846950747069416
2020-07-27,0.6754741862791703
2020-07-28,0.40008379253174875
2020-07-29,0.07633805715929157
2020-07-30,0.04881146870589171
2020-07-31,-0.030554139194646862
2020-08-03,-0.4742378911097452
2020-08-04,-0.6507008032757794
2020-08-05,-0.3429545516957514
2020-08-06,0.09597403526281897
2020-08-07,0.06707721422001733
2020-08-10,0.01170508809186345
2020-08-11,0.2966828142444787
2020-08-12,0.24860480156545622
2020-08-13,-0.009268991877690064
2020-08-14,-0.11324743455419276
2020-08-17,0.05203768342545899
2020-08-18,-0.2117096515974112
2020-08-19,-0.14541094384794392
2020-08-20,-0.08059571894377708
2020-08-21,0.08943560294940486
2020-08-24,0.06914655269240495
2020-08-25,0.1405961909797651
2020-08-26,0.07819925952811617
2020-08-27,-0.04172808591643225
2020-08-28,-0.1413146089520407
2020-08-31,-0.1325152700877577
2020-09-01,0.03601039908429366
2020-09-02,0.04563221187730832
2020-09-03,0.09117296946529588
2020-09-04,0.2037713543274583
2020-09-07,0.031062205108667584
2020-09-08,0.04016131237401703
2020-09-09,0.09958099122565539
2020-09-10,-0.007236191656707693
2020-09-11,-0.08201682496801271
2020-09-14,0.1405015559042971
2020-09-15,-0.09145978896716439
2020-09-16,-0.25350126835290454
2020-09-17,0.04263609993506403
2020-09-18,-0.009141228191172215
2020-09-21,-0.0686402598772107
2020-09-22,0.07142936300367828
2020-09-23,0.23758957522473423
2020-09-24,-0.06629868111484277
2020-09-25,-0.016717895907676063
2020-09-28,0.007781822022372431
2020-09-29,-0.03512506659609651
2020-09-30,-0.09174777522688593
2020-10-09,-0.009135445514445274
2020-10-12,-0.07762072192854307
2020-10-13,-0.1964329844612124
2020-10-14,-0.1015488127649098
2020-10-15,-0.2045922558964083
2020-10-16,-0.12380855907976723
2020-10-19,0.2107663467726148
2020-10-20,0.2214403002580333
2020-10-21,0.10354553711501666
2020-10-22,0.3708509435158014
2020-10-23,0.09433798555668935
2020-10-26,-0.05559250227838565
2020-10-27,0.010192451490105184
2020-10-28,0.05446523972755857
2020-10-29,-0.3128017705997556
2020-10-30,0.12782510652935888
2020-11-02,-0.14846813179914298
2020-11-03,-0.06180390066747878
2020-11-04,-0.03785868838416549
2020-11-05,0.0998100521732481
2020-11-06,-0.11972715624208993
2020-11-09,0.013252281312880906
2020-11-10,-0.13325011702293235
2020-11-11,-0.08404499831308722
2020-11-12,0.07169073007042721
2020-11-13,0.04769359102136136
2020-11-16,0.2380280192614951
2020-11-17,0.23784349274544653
2020-11-18,0.33459315838403625
2020-11-19,0.20230723038005038
2020-11-20,-0.011815040539805848
2020-11-23,-0.29869665798449596
2020-11-24,-0.15567008954026648
2020-11-25,-0.45785804964654486
2020-11-26,-0.5483937035962202
2020-11-27,0.1702774538067329
2020-11-30,0.220058587133907
2020-12-01,0.3059595376598658
2020-12-02,0.19509710768440047
2020-12-03,0.29487300418907664
2020-12-04,-0.21979944629059087
2020-12-07,-0.10920209674574431
2020-12-08,-0.47714398774644573
2020-12-09,0.05167135944875067
2020-12-10,0.06490468877523967
2020-12-11,0.38975912761532494
2020-12-14,0.055989749813458445
2020-12-15,0.29427968715952774
2020-12-16,-0.024889205847891137
2020-12-17,-0.02792602989563401
2020-12-18,-0.5294954471519272
2020-12-21,0.11565967477328783
2020-12-22,-0.13283024276233396
2020-12-23,0.016022862184944843
2020-12-24,-0.0862579844022639
2020-12-25,0.19090164669987075
2020-12-28,-0.30945414859836734
2020-12-29,0.06119671066023625
2020-12-30,-0.1112947234664296
2020-12-31,0.09100531053234451
2021-01-04,0.0998833818638991
2021-01-05,0.3886653050170933
2021-01-06,0.017703418548986882
2021-01-07,0.02292776797628869
2021-01-08,-0.014598623679723213
2021-01-11,0.07371969114851393
2021-01-12,-0.3610663624540418
2021-01-13,-0.036479299401424525
2021-01-14,0.029214468164082505
2021-01-15,-0.07858516512803473
2021-01-18,-0.35882459124026445
2021-01-19,0.019048854084746214
2021-01-20,-0.023074127584890823
2021-01-21,0.1441922162620505
2021-01-22,0.20221309199934032
2021-01-25,0.6412086404285436
2021-01-26,0.2410030537937526
2021-01-27,0.17982735120399518
2021-01-28,-0.1478270690454162
2021-01-29,-0.10189051135417607
2021-02-01,-0.4834723101949667
2021-02-02,-0.16628172659939608
2021-02-03,-0.09959815030239091
2021-02-04,-0.03145670950942965
2021-02-05,-0.11324625915825687
2021-02-08,-0.21623071942132333
2021-02-09,0.01942986211812539
2021-02-10,-0.19650602108856444
2021-02-18,0.3680933327220461
2021-02-19,0.2941552569211982
2021-02-22,0.6587925906931839
2021-02-23,0.10883336862923598
2021-02-24,0.23475602270515789
2021-02-25,-0.19210769738895778
2021-02-26,-0.11432816660255603
2021-03-01,-0.5665549221973007
2021-03-02,-0.12882619969054893
2021-03-03,-0.12120849862396033
2021-03-04,-0.2815194964410597
2021-03-05,-0.27399347995083095
2021-03-08,0.2703074188164418
2021-03-09,-0.02759746444076592
2021-03-10,0.09667980471296053
2021-03-11,0.1660649218788017
2021-03-12,0.12501673822329215
2021-03-15,-0.2234061536548006
2021-03-16,0.053957868473065246
2021-03-17,-0.16041404017481964
2021-03-18,-0.1787126845610285
2021-03-19,-0.026238248477149534
2021-03-22,0.09219899021313441
2021-03-23,-0.000816924629822741
2021-03-24,0.2488358302304043
2021-03-25,0.172172535116697
2021-03-26,0.1412399842273962
2021-03-29,-0.10440293935053387
2021-03-30,-0.09021179977728368
2021-03-31,-0.24799957004402648
2021-04-01,0.0206255887466313
2021-04-02,0.01979777479778641
2021-04-06,0.3123756741233643
2021-04-07,0.11421030191014057
2021-04-08,0.06058949756855561
2021-04-09,-0.015692789737667766
2021-04-12,-0.17048902411469158
2021-04-13,-0.3479790574160733
2021-04-14,-0.028449009919788826
2021-04-15,0.03433119544030619
2021-04-16,-0.05590058415396233
2021-04-19,-0.07370416899311316
2021-04-20,0.24602271637293602
2021-04-21,0.054229969614587994
2021-04-22,0.05471684150154285
2021-04-23,-0.001667410347338319
2021-04-26,0.20892551848980218
2021-04-27,-0.10909606680347347
2021-04-28,-0.029836900097126064
2021-04-29,0.1536861563817275
2021-04-30,0.1455519765958967
2021-05-06,0.3682719141506607
2021-05-07,0.056808988387331456
2021-05-10,0.012908450333559009
2021-05-11,-0.2937992814080111
2021-05-12,-0.1584804644613104
2021-05-13,-0.6507474818994512
2021-05-14,-0.07540665017336626
2021-05-17,0.0024822687447469405
2021-05-18,0.05679745791442893
2021-05-19,0.02558385390423811
2021-05-20,0.16365740086803604
2021-05-21,0.08759684857873704
2021-05-24,0.07900837518140716
2021-05-25,0.09649413387425904
2021-05-26,0.051657373680405086
2021-05-27,-0.08484067310560267
2021-05-28,0.2746341943722849
2021-05-31,-0.10870047561106504
2021-06-01,-0.009033236120567674
2021-06-02,-0.011936086123422946
2021-06-03,0.1814622659463231
2021-06-04,-0.5581900231658905
2021-06-07,-0.17182047953377905
2021-06-08,-0.18201789618341646
2021-06-09,0.08706370471119344
2021-06-10,-0.1250678249997012
2021-06-11,0.36135420050704037
2021-06-15,0.4779876314056726
2021-06-16,0.1890551392586885
2021-06-17,-0.07930327913075919
2021-06-18,0.19572726134724336
2021-06-21,-0.19592465707816728
2021-06-22,-0.46429281334237427
2021-06-23,0.07719552787730113
2021-06-24,-0.09829577470480982
2021-06-25,-0.1716728843516948
2021-06-28,0.09178870737045414
2021-06-29,0.07669470930177849
2021-06-30,-0.2334167612843328
2021-07-01,0.1257134316281428
2021-07-02,0.030873879713122762
2021-07-05,-0.04186490230783191
2021-07-06,0.13572718377512927
2021-07-07,0.09849758061748885
2021-07-08,-0.10316542501871823
2021-07-09,0.1336392775701572
2021-07-12,-0.056710376860441516
2021-07-13,-0.02639078134979932
2021-07-14,-0.08509714095533799
2021-07-15,0.1219690509411856
2021-07-16,0.5283248922910203
2021-07-19,0.1844311436155648
2021-07-20,-0.0003096655033188976
2021-07-21,0.19500205645762303
2021-07-22,-0.11710636699768225
2021-07-23,-0.8493740994299477
2021-07-26,-0.14816797405197996
2021-07-27,0.01668440303723736
2021-07-28,-0.22537508519263041
2021-07-29,0.1992276845156104
2021-07-30,0.06899535837776541
2021-08-02,0.01776988988112396
2021-08-03,-0.0644145455151085
2021-08-04,0.1478760170402375
2021-08-05,-0.21653283570880824
2021-08-06,0.0856869008506432
2021-08-09,-0.049730859551830736
2021-08-10,0.14284031190413687
2021-08-11,-0.0377912528647812
2021-08-12,0.14505187484823123
2021-08-13,0.1600422484890323
2021-08-16,0.05298390015486597
2021-08-17,-0.20198635278761234
2021-08-18,-0.010991942639263405
2021-08-19,-0.12851696234049642
2021-08-20,0.08029161767272226
2021-08-23,0.060681194471592405
2021-08-24,-0.02720750883333954
2021-08-25,0.08418686306553426
2021-08-26,0.05656656148045535
2021-08-27,-0.33207293518455006
2021-08-30,0.01756128013972242
2021-08-31,0.10541003168612625
2021-09-01,-0.08465353902298861
2021-09-02,0.017017962339040835
2021-09-03,0.1426107600323771
2021-09-06,-0.09234509533843838
2021-09-07,-0.07663446658864274
2021-09-08,0.11909809272447534
2021-09-09,0.07851121030749242
2021-09-10,0.09726916834877278
2021-09-13,0.05006730478686626
2021-09-14,0.179944720749536
2021-09-15,-0.1582528541948091
2021-09-16,-0.1301502938676963
2021-09-17,-0.10470562609723778
2021-09-22,0.4647225173604318
2021-09-23,-0.060073262248495615
2021-09-24,0.276291872075371
2021-09-27,0.3172830223506884
2021-09-28,-0.004492625477865934
2021-09-29,-0.6530669541384181
2021-09-30,-0.04837423628377508
2021-10-08,-0.24879284055147535
2021-10-11,-0.5158478958083589
2021-10-12,0.139636742165564
2021-10-13,0.19877709000911778
2021-10-14,0.09452310040332419
2021-10-15,-0.08102190163345487
2021-10-18,0.313542968100064
2021-10-19,-0.059718668618304514
2021-10-20,0.10377951142772465
2021-10-21,-0.0802026012959036
2021-10-22,0.13680346722702616
2021-10-25,-0.09348343916860727
2021-10-26,-0.11132096519533215
2021-10-27,-0.30564318576770316
2021-10-28,0.18206526998429443
2021-10-29,0.08185010399642047
2021-11-01,-0.014715445362740305
2021-11-02,0.07705381499217295
2021-11-03,0.19538757008909347
2021-11-04,-0.40294122823158657
2021-11-05,-0.1605554332614189
2021-11-08,-0.04244416256545739
2021-11-09,-0.1325184904065879
2021-11-10,-0.08703071433213452
2021-11-11,0.4521872899445437
2021-11-12,-0.11945962534197743
2021-11-15,0.10667824930046721
2021-11-16,0.11019919633311602
2021-11-17,-0.010979397918484346
2021-11-18,-0.5560391899903273
2021-11-19,0.22274672862907932
2021-11-22,-0.10235760556362147
2021-11-23,0.07142056324242611
2021-11-24,0.1154738079751856
2021-11-25,0.3689135653132999
2021-11-26,0.006109765993608726
2021-11-29,0.01599816223073746
2021-11-30,-0.11682113057205051
2021-12-01,-0.06373589183982334
2021-12-02,-0.09115023255776852
2021-12-03,-0.1495659616976771
2021-12-06,0.36466650477216206
2021-12-07,0.1750066782325184
2021-12-08,0.05691488675794597
2021-12-09,-0.027502167257378765
2021-12-10,0.08796487070699491
2021-12-13,-0.6099732071098024
2021-12-14,-0.3108047346707947
2021-12-15,0.07171753071158635
2021-12-16,0.3447492483386676
2021-12-17,0.05525150122783939
2021-12-20,0.33194404819920054
2021-12-21,0.16265285437416915
2021-12-22,-0.18391603985076715
2021-12-23,-0.510428157161541
2021-12-24,-0.01994827043698621
2021-12-27,-0.008507071417606597
2021-12-28,-0.001566450368847741
2021-12-29,0.02133818450554536
2021-12-30,0.3761557052995701
2021-12-31,-0.11927681980706425
2022-01-04,0.1178204353425564
2022-01-05,0.2338393389482274
2022-01-06,0.06051161822193663
2022-01-07,-0.1213242166787511
2022-01-10,0.10627032549510691
2022-01-11,-0.23830095691772749
2022-01-12,0.254744171781338
2022-01-13,0.09549917869697468
2022-01-14,-0.030426436308790918
2022-01-17,0.03464672150606819
2022-01-18,0.24097269415141628
2022-01-19,-0.7674891881499122
2022-01-20,0.31508307084103737
2022-01-21,0.0976982208128167
2022-01-24,0.01772250244078319
2022-01-25,-0.14693363702759035
2022-01-26,0.3325572219986746
2022-01-27,-0.6180676307410672
2022-01-28,-0.04301446360954357
2022-02-07,-0.09705718419937681
2022-02-08,-0.1350026196157116
2022-02-09,0.030617339129365567
2022-02-10,0.2273111812645113
2022-02-11,-0.17321740980847677
2022-02-14,-0.049104940814062525
2022-02-15,0.36664958078570675
2022-02-16,-0.177780301042973
2022-02-17,-0.16524268260406466
2022-02-18,0.13755599279543057
2022-02-21,0.06711637734457956
2022-02-22,-0.5089636923390046
2022-02-23,0.10418599913994081
2022-02-24,0.18700986897966057
2022-02-25,0.14434491601066404
2022-02-28,0.11452695066519053
2022-03-01,0.23932245805467564
2022-03-02,0.05146275051826718
2022-03-03,-0.020559371514356634
2022-03-04,-0.3171843476792022
2022-03-07,0.26277416897772005
2022-03-08,1.0903990745981684
2022-03-09,0.44862143833854284
2022-03-10,0.18560285390579964
2022-03-11,0.17996624457047075
2022-03-14,-0.4008946123340563
2022-03-15,-1.2748777207064101
2022-03-16,-0.767264135163138
2022-03-17,-0.5047195821693694
2022-03-18,0.08642955218702644
2022-03-21,-0.017522945196950225
2022-03-22,0.07385022347093159
2022-03-23,0.17199519352467638
2022-03-24,0.5296912302801742
2022-03-25,-0.09380006838623185
2022-03-28,0.004381646839803653
2022-03-29,0.15088026948504082
2022-03-30,0.11436395295624631
2022-03-31,-0.43875273848973206
2022-04-01,-0.17950720273100698
2022-04-06,-0.017515199686126734
2022-04-07,0.10476710104460168
2022-04-08,0.09006778257387071
2022-04-11,0.1720665493027253
2022-04-12,0.06437329402104051
2022-04-13,0.09735355962410909
2022-04-14,-0.1422559607810533
2022-04-15,-0.30575956309437435
2022-04-18,0.08233675315779503
2022-04-19,0.30404115636928736
2022-04-20,-0.048591049867332634
2022-04-21,-0.07319511028454716
2022-04-22,0.21621258115960695
2022-04-25,0.08905004091323124
2022-04-26,-0.062305159276675015
2022-04-27,0.05422437594683367
2022-04-28,0.17144206490434205
2022-04-29,0.0517015202507158
2022-05-05,-0.2524179780056219
2022-05-06,-0.30006022820814215
2022-05-09,0.233061965387304
2022-05-10,-0.01852431846719204
2022-05-11,0.05306408536540874
2022-05-12,0.387628931252764
2022-05-13,0.19312186979238072
2022-05-16,-0.354630719187859
2022-05-17,-0.05849085211366333
2022-05-18,-0.08632454904984105
2022-05-19,-0.4257584641898749
2022-05-20,-0.108844937262408
2022-05-23,-0.010966522185337627
2022-05-24,-0.009343001044096556
2022-05-25,-0.11875336503683814
2022-05-26,0.29989527718035897
2022-05-27,0.1532153257754389
2022-05-30,0.36359051653157226
2022-05-31,-0.022676903067991916
2022-06-01,0.09840762451059312
2022-06-02,-0.34893790476988107
2022-06-06,0.09222734357376745
2022-06-07,-0.47305959364541145
2022-06-08,0.2945018078701854
2022-06-09,-0.09128756806467275
2022-06-10,0.22477433931424984
2022-06-13,-0.32799939062135974
2022-06-14,0.2609307495308823
2022-06-15,-0.30473306535738376
2022-06-16,0.21505629397579773
2022-06-17,0.10908831086772514
2022-06-20,0.1729688555497235
2022-06-21,-0.069395546129374
2022-06-22,0.06683507425327437
2022-06-23,-0.16113441340403128
2022-06-24,-0.058920315272459195
2022-06-27,0.187652804337827
2022-06-28,0.03692846346601764
2022-06-29,0.022583073691532424
2022-06-30,0.03628515650830904
2022-07-01,-0.1184339327424842
2022-07-04,-0.38018058763263135
2022-07-05,-0.046820770747206
2022-07-06,-0.13578849488139783
2022-07-07,0.025507313686113642
2022-07-08,0.036297809833753296
2022-07-11,0.19427922022479527
2022-07-12,0.03216900723877792
2022-07-13,0.0580932691794971
2022-07-14,-0.08742550905082377
2022-07-15,-0.030153924603747537
2022-07-18,0.06972002397069885
2022-07-19,0.014185737329293612
2022-07-20,0.008007103665957763
2022-07-21,0.02228212105834171
2022-07-22,-0.08166412448218768
2022-07-25,-0.19976965850434986
2022-07-26,-0.11636531255793821
2022-07-27,0.044360499211703514
2022-07-28,0.10108580682817953
2022-07-29,0.18182108296981347
2022-08-01,0.1691852639801294
2022-08-02,0.13201202680589824
2022-08-03,-0.0784675359111765
2022-08-04,-0.15358790940996947
2022-08-05,-0.07675550896704311
2022-08-08,-0.23341783981433506
2022-08-09,-0.22923000689640172
2022-08-10,0.04644992131606057
2022-08-11,0.19803499442490952
2022-08-12,-0.028962849209459705
2022-08-15,0.25403020749941035
2022-08-16,0.2225060650656028
2022-08-17,-0.015055051187948695
2022-08-18,-0.2727793604925506
2022-08-19,-0.09923711259185053
2022-08-22,-0.07893125998276145
2022-08-23,-0.18598343524847796
2022-08-24,-0.00019330045643966426
2022-08-25,0.21970154728181324
2022-08-26,0.22333559617924817
2022-08-29,0.29772558147685774
2022-08-30,0.2327351731810942
2022-08-31,0.05901250311271416
2022-09-01,0.24242781294438587
2022-09-02,0.03809064258363591
2022-09-05,-0.39869239242440935
2022-09-06,-0.08872061745838242
2022-09-07,0.008868447411582103
2022-09-08,-0.4685210251769493
2022-09-09,-0.25360363140134856
2022-09-13,0.01946467733630551
2022-09-14,0.18161904387946062
2022-09-15,-0.0028173895010281877
2022-09-16,0.10787319058366614
2022-09-19,0.1723305132954257
2022-09-20,0.059265650646606355
2022-09-21,-0.23458063785173885
2022-09-22,-0.016424512766240563
2022-09-23,0.06312139576550693
2022-09-26,0.06335625855552254
2022-09-27,0.14671875397385437
2022-09-28,0.021323162672102873
2022-09-29,-0.08750083662385283
2022-09-30,0.05315583271173048
2022-10-10,-0.21067982669555674
2022-10-11,-0.2946470498929261
2022-10-12,-0.04372901266752729
2022-10-13,0.07830158682430514
2022-10-14,-0.007083877451936407
2022-10-17,0.034154797539203335
2022-10-18,0.1987816922190789
2022-10-19,0.14961688816200625
2022-10-20,-0.09234923423241843
2022-10-21,0.026854108137152173
2022-10-24,0.19836718152930793
2022-10-25,-0.031573186007775214
2022-10-26,-0.08802340317784485
2022-10-27,0.10677595338624447
2022-10-28,-0.05535049033558537
2022-10-31,-0.16806883892290542
2022-11-01,0.10770496988231996
2022-11-02,0.009623266251684656
2022-11-03,0.0772996047907757
2022-11-04,-0.1253152330257124
2022-11-07,0.14208198838861058
2022-11-08,-0.17237945545968308
2022-11-09,0.016767279312160474
2022-11-10,-0.1465741557168286
2022-11-11,0.5335365970981621
2022-11-14,-0.12412909638042578
2022-11-15,0.18702867427164305
2022-11-16,0.007354782581643558
2022-11-17,0.15927516419415652
2022-11-18,-0.6709413886429841
2022-11-21,0.09899935126456508
2022-11-22,-0.22848807829948733
2022-11-23,-0.002827923250660974
2022-11-24,-0.13288210828054028
2022-11-25,0.15422716673668252
2022-11-28,-0.21004470982113077
2022-11-29,0.09611783847732895
2022-11-30,-0.02614543516305233
2022-12-01,-0.07214312530583845
2022-12-02,0.1311870002380376
2022-12-05,0.46691454056587406
2022-12-06,0.023914399366318343
2022-12-07,0.16614793797871966
2022-12-08,0.08650480190270482
2022-12-09,-0.01206441768588809
2022-12-12,-0.4212758715776182
2022-12-13,0.02909154647435635
2022-12-14,-0.2822929524129092
2022-12-15,-0.04679668999689384
2022-12-16,0.07254927203782788
2022-12-19,0.07183565165968293
2022-12-20,-0.011233818680503955
2022-12-21,0.15800546462929105
2022-12-22,0.08891862326182551
2022-12-23,-0.1801674347138922
2022-12-26,-0.10552904531964641
2022-12-27,0.1678398964145762
2022-12-28,-0.0026065534466037966
2022-12-29,-0.05162187391542989
2022-12-30,0.08624390300608915
2023-01-03,0.1474213308719555
2023-01-04,-0.34484560739959236
2023-01-05,-0.053957836561744896
2023-01-06,0.22595148018280714
2023-01-09,-0.05987176715848757
2023-01-10,-0.013729970738893128
2023-01-11,0.2578972876242416
2023-01-12,0.010826305748197436
2023-01-13,-0.26052392374316385
2023-01-16,0.16943610026145878
2023-01-17,0.006674279498253541
2023-01-18,-0.22569333137279157
2023-01-19,0.242930184752862
2023-01-20,0.16509445855102714
2023-01-30,-0.08842809436724877
2023-01-31,-0.022055895515710525
2023-02-01,0.18045653852451332
2023-02-02,-0.23674595056295225
2023-02-03,-0.1861176197502993
2023-02-06,0.0443583927108244
2023-02-07,-0.027700963472516375
2023-02-08,-0.036486796718912584
2023-02-09,-0.04637193779553163
2023-02-10,0.04925867490468737
2023-02-13,-0.2454252529467016
2023-02-14,0.1035310524350515
2023-02-15,-0.06194745978763229
2023-02-16,-0.011483412801375367
2023-02-17,-0.03816929671210623
2023-02-20,0.2226753906121948
2023-02-21,-0.08124780345858015
2023-02-22,-0.03849291414884459
2023-02-23,0.07140442873871962
2023-02-24,0.12634118970194153
2023-02-27,-0.03294763954152315
2023-02-28,-0.04851023690559869
2023-03-01,0.13710423611734177
2023-03-02,0.09895543215679593
2023-03-03,-0.09195344408499537
2023-03-06,-0.07959552474348427
2023-03-07,0.017697707072193848
2023-03-08,-0.17829211438415446
2023-03-09,-0.2228136425510409
2023-03-10,0.13123340414581464
2023-03-13,0.07723896799892313
2023-03-14,0.14733348705007465
2023-03-15,0.12054923983432389
2023-03-16,0.29280819862955976
2023-03-17,-0.13392927088579187
2023-03-20,-0.03736913391349956
2023-03-21,-0.13842773999377814
2023-03-22,0.03839488811585304
2023-03-23,-0.3285406669330773
2023-03-24,0.2325300624489705
2023-03-27,0.026986015351817383
2023-03-28,0.004222354965464862
2023-03-29,-0.0622042381305105
2023-03-30,0.1803578669314275
2023-03-31,-0.45242059487989994
2023-04-03,-0.03853914105732667
2023-04-04,0.13223381551394262
2023-04-06,0.16480874381545266
2023-04-07,-0.08360004285912606
2023-04-10,0.28416359297366645
2023-04-11,0.02386661547614652
2023-04-12,-0.19148022443963175
2023-04-13,-0.32641877004659736
2023-04-14,0.16950655311551172
2023-04-17,0.6693358808138937
2023-04-18,0.1943782564977603
2023-04-19,0.22697936080624082
2023-04-20,0.2750923404258146
2023-04-21,-0.02300196837563201
2023-04-24,-0.9435712228286408
2023-04-25,-0.3176734650883659
2023-04-26,-0.1955914384444462
2023-04-27,-0.124899499253253
2023-04-28,-0.15905426485720253
2023-05-04,0.32583698161866687
2023-05-05,0.22460284804476155
2023-05-08,-0.009930164131005906
2023-05-09,0.06582275403917315
2023-05-10,0.00607770768950526
2023-05-11,-0.16664525404974476
2023-05-12,-0.09028499906091665
2023-05-15,0.11974641836664818
2023-05-16,-0.06479902737474763
2023-05-17,0.09186241878083164
2023-05-18,0.04707586989873779
2023-05-19,-0.0929382041296342
2023-05-22,0.011692664810843002
2023-05-23,0.014191406566294976
2023-05-24,-0.0028435314454774395
2023-05-25,0.07272790050961803
2023-05-26,0.039564249136309515
2023-05-29,-0.016719752301469347
2023-05-30,0.03209248570678416
2023-05-31,-0.04844392480180914
2023-06-01,-0.05093371602771212
2023-06-02,0.052803904073586726
2023-06-05,-0.1393757423054626
2023-06-06,-0.15576231783955977
2023-06-07,-0.02507015347589429
2023-06-08,-0.07174080146289952
2023-06-09,0.16221190781049985
2023-06-12,0.16576332429990737
2023-06-13,0.13776949651333875
2023-06-14,0.11370352696141209
2023-06-15,0.16386925218703247
2023-06-16,-0.27518177283308604
2023-06-19,-0.16737633918394995
2023-06-20,0.004336284845982792
2023-06-21,-0.1022675246743612
2023-06-26,-0.09859048833232655
2023-06-27,0.1062668954825374
2023-06-28,0.017686769426621035
2023-06-29,0.06084456063723577
2023-06-30,0.29806905842234405
2023-07-03,0.1246240829848074
2023-07-04,-0.026662000376133824
2023-07-05,0.09023580024472716
2023-07-06,0.17471564416574656
2023-07-07,-0.39320107816711586
2023-07-10,-0.16063903325965131
2023-07-11,0.06131596147757619
2023-07-12,-0.01562718186997489
2023-07-13,-0.34001610687384615
2023-07-14,0.1570570007107348
2023-07-17,0.10945764740027682
2023-07-18,-0.04343427623236888
2023-07-19,-0.0068175413183600275
2023-07-20,0.134901657061102
2023-07-21,0.01008230179281884
2023-07-24,-0.16345098825120694
2023-07-25,0.04278746481215259
2023-07-26,0.0015848467957648993
2023-07-27,0.008023490744412068
2023-07-28,-0.033170074730705344
2023-07-31,0.06620953252928968
2023-08-01,0.17416611779405045
2023-08-02,-0.021931975669987017
2023-08-03,-0.05868162363458534
2023-08-04,-0.032312542621892974
2023-08-07,0.07103831436066148
2023-08-08,-0.42739560337876537
2023-08-09,0.027871520433428037
2023-08-10,-0.12683109935203685
2023-08-11,0.017079372466081644
2023-08-14,-0.019050431447744938
2023-08-15,0.2509441341030417
2023-08-16,0.026654549443669878
2023-08-17,0.06781385469676694
2023-08-18,-0.051685364870501294
2023-08-21,-0.03027812492738661
2023-08-22,0.03978321510777535
2023-08-23,-0.03452973346663289
2023-08-24,-0.020126336222627453
2023-08-25,0.09333395051091964
2023-08-28,0.33926990284219644
2023-08-29,-0.1470608498066895
2023-08-30,0.028221671050813423
2023-08-31,0.1429095747287266
2023-09-01,0.05339898947707721
2023-09-04,-0.5053625959696524
2023-09-05,0.2684234767732619
2023-09-06,-0.06491631346972326
2023-09-07,-0.0028341138871559868
2023-09-08,-0.0760935650456254
2023-09-11,0.18324199639055458
2023-09-12,-0.32383808402427006
2023-09-13,0.07470280050502483
2023-09-14,-0.042314456075606036
2023-09-15,-0.09196516526891935
2023-09-18,0.09537181509550315
2023-09-19,0.17016707037958856
2023-09-20,0.08274087592046328
2023-09-21,0.015999078612344068
2023-09-22,0.12265141658156238
2023-09-25,-0.10912250464176156
2023-09-26,-0.0636821935619981
2023-09-27,-0.11106526278158199
2023-09-28,-0.10938325024715571
2023-10-09,0.022351653132326798
2023-10-10,0.021321735314877643
2023-10-11,0.013978858759847503
2023-10-12,-0.11035598296219713
2023-10-13,0.09880947770014256
2023-10-16,-0.007361045050541179
2023-10-17,-0.20642535974400894
2023-10-18,0.05986318590782848
2023-10-19,0.07997548429570221
2023-10-20,0.019004758584051023
2023-10-23,-0.206015514653957
2023-10-24,0.19305189592839428
2023-10-25,-0.16992746694484745
2023-10-26,0.07640130359608133
2023-10-27,0.0538350587948951
2023-10-30,0.13190319351680446
2023-10-31,0.27138672766931227
2023-11-01,0.38893849140044706
2023-11-02,-0.05152798348151712
2023-11-03,-0.06977716632496606
2023-11-06,0.047432833024077914
2023-11-07,-0.4023407739110693
2023-11-08,-0.36534323829153614
2023-11-09,-0.016013810838071112
2023-11-10,-0.0886332350455963
2023-11-13,0.44585944517863124
2023-11-14,0.2540374747946976
2023-11-15,-0.02026939705813413
2023-11-16,-0.0032070353951625073
2023-11-17,0.07248566312894338
2023-11-20,-0.6614406218884418
2023-11-21,-0.22013090796492427
2023-11-22,0.22822512769832715
2023-11-23,0.29434058722021195
2023-11-24,0.07957887737168028
2023-11-27,0.22293925594625863
2023-11-28,0.3279600834679035
2023-11-29,-0.12930598664778284
2023-11-30,-0.4143001129642438
2023-12-01,0.038634177952449944
2023-12-04,-0.09798375774494708
2023-12-05,-0.3481464970992259
2023-12-06,0.2647706856938101
2023-12-07,0.1713811833362907
2023-12-08,-0.20542763849377094
2023-12-11,0.048161148161146604
2023-12-12,0.0785302118666264
2023-12-13,-0.42097809536075487
2023-12-14,-0.050625422582826436
2023-12-15,0.10842428599438134
2023-12-18,-0.009083738115993077
2023-12-19,0.07810220448197126
2023-12-20,0.12054159095496318
2023-12-21,0.020120942650898487
2023-12-22,0.056380321642807416
2023-12-25,0.06309547235813684
2023-12-26,-0.17601084055133576
2023-12-27,0.20833851963601552
2023-12-28,0.0616405887068083
2023-12-29,-0.2557086627755212
2024-01-02,-0.030479859914748327
2024-01-03,0.17748248398029612
2024-01-04,-0.3180167007765284
2024-01-05,-0.06118788433238639
2024-01-08,0.24259053291176758
2024-01-09,-0.039291423507308056
2024-01-10,-0.02940822346638018
2024-01-11,0.23647291702194756
2024-01-12,-0.13846844906300915
2024-01-15,0.08197837589141857
2024-01-16,0.010561001198530942
2024-01-17,0.1822955992048281
2024-01-18,-0.15817918858073712
2024-01-19,0.20656051530280578
2024-01-22,-0.26776393215645844
2024-01-23,0.2828692782856727
2024-01-24,-0.29170793765123204
2024-01-25,0.08157787245079806
2024-01-26,0.005808645378545932
2024-01-29,0.12327644456427705
2024-01-30,-0.37207545023368627
2024-01-31,0.07589240117335991
2024-02-01,0.12378608042789654
2024-02-02,-0.13976353842552397
2024-02-05,0.14231983627654918
2024-02-06,0.07460810238630433
2024-02-07,0.00689626893778713
2024-02-08,0.07422709994421986
2024-02-19,0.2196839104878357
2024-02-20,-0.2325401276077923
2024-02-21,0.041575923543207494
2024-02-22,0.06905951577565583
2024-02-23,-0.3377880943927236
2024-02-26,-0.31824155623882755
2024-02-27,0.13093547018745566
2024-02-28,0.04802324849802211
2024-02-29,-0.010326915903156896
2024-03-01,0.05250552021781078
2024-03-04,0.16521261322724368
2024-03-05,-0.056443073640515165
2024-03-06,-0.11933962142650706
2024-03-07,-0.03062157358828262
2024-03-08,0.0887211101480031
2024-03-11,0.04114801218019437
2024-03-12,0.015369530938455826
2024-03-13,0.08407895231294799
2024-03-14,0.17238035325235038
2024-03-15,0.12490208708710525
2024-03-18,0.0981445861780012
2024-03-19,0.20579457782381017
2024-03-20,-0.01707329737037351
2024-03-21,-0.15449016182139663
2024-03-22,-0.08868418065211865
2024-03-25,-0.26344457368839136
2024-03-26,-0.31778014184198544
2024-03-27,-0.003821174366793003
2024-03-28,-0.20293719892066464
2024-03-29,0.09229472789055312
2024-04-01,0.1669615660099673
2024-04-02,0.04927450074332754
2024-04-03,0.02966257342625078
2024-04-08,0.46214898000978155
2024-04-09,-0.23453430490584132
2024-04-10,0.3177131614674422
2024-04-11,0.29949542704136056
2024-04-12,0.2551784960865934
2024-04-15,-0.19392448451058208
2024-04-16,0.21931356467604055
2024-04-17,-0.47552314492625847
2024-04-18,-0.23387100777866635
2024-04-19,-0.32352722232943004
2024-04-22,-0.04816957913196281
2024-04-23,0.1716698893486202
2024-04-24,0.23739913329714651
2024-04-25,-0.03611859087452043
2024-04-26,0.013396730114964457
2024-04-29,-0.13995686885860237
2024-04-30,-0.5651289358384243
2024-05-06,-0.2640443498107719
2024-05-07,0.04258301983301423
2024-05-08,0.019211236786133953
2024-05-09,0.023857297998946272
2024-05-10,0.3543709964512498
2024-05-13,0.225662299828214
2024-05-14,0.07315325167687298
2024-05-15,0.04396606156451996
2024-05-16,0.19648243433578236
2024-05-17,-0.11738910331928956
2024-05-20,0.07357323285102783
2024-05-21,-0.04992848046572987
2024-05-22,-0.015411169914215591
2024-05-23,-0.13165747993523946
2024-05-24,0.04247789405890823
2024-05-27,-0.37312423150595164
2024-05-28,-0.09638142496459261
2024-05-29,-0.09325442214493818
2024-05-30,0.012598477283689138
2024-05-31,-0.055322595687890344
2024-06-03,0.5224005108364375
2024-06-04,-0.016138224517807317
2024-06-05,0.14041138840811473
2024-06-06,-0.0271796028055897
2024-06-07,0.10432699055302139
2024-06-11,-0.5354045405503132
2024-06-12,0.28661189932376496
2024-06-13,-0.054228734204993564
2024-06-14,-0.0029328745009225797
2024-06-17,-0.05017874057449037
2024-06-18,0.2727050872567157
2024-06-19,-0.3603954708395172
2024-06-20,0.048279844969926024
2024-06-21,0.008539898827962623
2024-06-24,-0.03017070191884693
2024-06-25,-0.10018549798983381
2024-06-26,0.35220008966027794
2024-06-27,-0.20358691142909924
2024-06-28,0.08618821095481805
2024-07-01,0.007261314237026667
2024-07-02,0.05830902217169447
2024-07-03,-0.38856500655388565
2024-07-04,0.14523213399618118
2024-07-05,-0.18626165497093566
2024-07-08,0.2266768233491378
2024-07-09,0.024424931140621504
2024-07-10,0.20485462790077885
2024-07-11,0.022070391751242202
2024-07-12,0.3964176507721464
2024-07-15,-0.32575509137992575
2024-07-16,-0.10476792482114367
2024-07-17,-0.03856025215287178
2024-07-18,0.17799153647703553
2024-07-19,-0.4502257605476722
2024-07-22,0.3657428068115093
2024-07-23,0.23318909592068
2024-07-24,0.18169752244951864
2024-07-25,-0.11544619350089788
2024-07-26,0.24220980349398288
2024-07-29,-0.32647343160317743
2024-07-30,-0.2054253894989552
2024-07-31,-0.09257123857684386
2024-08-01,-0.279952724536061
2024-08-02,-0.15035551741226388
2024-08-05,0.14964325354701527
2024-08-06,0.0902791843111928
2024-08-07,-0.2271290185967948
2024-08-08,0.18340332887502092
2024-08-09,0.37081473214285277
2024-08-12,-0.11714509449393135
2024-08-13,-0.0795208357412448
2024-08-14,0.126412887378875
2024-08-15,0.11708722171393367
2024-08-16,-0.4915395284327291
2024-08-19,0.10294972108444483
2024-08-20,-0.0029901559539185774
2024-08-21,0.04864803052963268
2024-08-22,-0.18461521127160857
2024-08-23,0.09676828251919684
2024-08-26,-0.011712182617369393
2024-08-27,0.03076994223385257
2024-08-28,-0.06177962341126647
2024-08-29,0.08210004968145798
2024-08-30,0.12280418858062173
2024-09-02,0.03078269000199154
2024-09-03,-0.021253371847717598
2024-09-04,0.16575869278246969
2024-09-05,0.020349207769872778
2024-09-06,0.0966937817957865
2024-09-09,-0.10042889241696368
2024-09-10,0.0490644357405035
2024-09-11,-0.08491546412281425
2024-09-12,-0.013192312804513412
2024-09-13,-0.18832368044013836
2024-09-18,-0.017114024407648407
2024-09-19,0.1443853305735852
2024-09-20,-0.11885608235972993
2024-09-23,-0.03971094700387928
2024-09-24,0.06873632879956394
2024-09-25,0.15334411475179222
2024-09-26,-0.19769038584240267
2024-09-27,0.11689380565894629
2024-09-30,0.21491539865639667
2024-10-08,0.052242510009234425
2024-10-09,-0.2273812943445322
2024-10-10,-0.02827697865253391
2024-10-11,-0.0804952219031454
2024-10-14,-0.307365913628716
2024-10-15,-0.16718061490514977
2024-10-16,0.1675012383454419
2024-10-17,0.21419347081744292
2024-10-18,0.056518931365593154
2024-10-21,0.07572803953310331
2024-10-22,0.3634230016247812
2024-10-23,-0.07433721924421323
2024-10-24,-0.2507185102507813
2024-10-25,-0.0452981277662565
2024-10-28,-0.004406711832726125
2024-10-29,-0.4001650668091582
2024-10-30,0.05427911051414114
2024-10-31,0.1350276515487275
2024-11-01,0.12759356144271608
2024-11-04,0.18530891929967058
2024-11-05,0.0590326024907228
2024-11-06,0.05037762308780646
2024-11-07,-0.027546249052006026
2024-11-08,-0.14283526605236466
2024-11-11,-0.22333088936901183
2024-11-12,0.2944731159670657
2024-11-13,0.06374835723582108
2024-11-14,0.07700765406144028
2024-11-15,0.12271475741482327
2024-11-18,0.220209115202318
2024-11-19,-0.23108479318117373
2024-11-20,-0.30021718372670714
2024-11-21,-0.2628571743258676
2024-11-22,-0.09869802251431753
2024-11-25,-0.2950775012988607
2024-11-26,-0.02669310541475254
2024-11-27,0.6007049415215102
2024-11-28,0.23280985400959758
2024-11-29,0.2120062143910026
2024-12-02,0.18539252453511967
2024-12-03,0.08716720288079215
2024-12-04,-0.6775415343699543
2024-12-05,-0.039782167625174066
2024-12-06,-0.44485828699380925
2024-12-09,-0.061257463726267405
2024-12-10,-0.02327624066754596
2024-12-11,0.245448976514125
2024-12-12,-0.028756905089999583
2024-12-13,0.3214077679462603
2024-12-16,0.11441813829152006
2024-12-17,-0.11566829456198455
2024-12-18,-0.02655095235851983
2024-12-19,0.34404032928078204
2024-12-20,-0.0074252136281087455
2024-12-23,-0.12377978207656942
2024-12-24,0.15059772886566852
2024-12-25,0.06250685145344693
2024-12-26,-0.6472591753625219
2024-12-27,-0.06896019074891103
2024-12-30,0.19540110494929372
2024-12-31,0.035449434103493375
