date,FCT_Demark_Atr_Dfive
2015-03-27,
2015-03-30,
2015-03-31,
2015-04-01,
2015-04-02,
2015-04-03,
2015-04-07,
2015-04-08,
2015-04-09,
2015-04-10,0.054780876494023904
2015-04-13,0.1064516129032258
2015-04-14,0.5676156583629893
2015-04-15,0.9083333333333333
2015-04-16,1.0
2015-04-17,1.0
2015-04-20,1.0
2015-04-21,0.6181277860326895
2015-04-22,0.5643153526970954
2015-04-23,0.36283185840707965
2015-04-24,0.0979689366786141
2015-04-27,0.1855447680690399
2015-04-28,0.3751568381430364
2015-04-29,0.4977168949771689
2015-04-30,0.7701465201465202
2015-05-04,1.0
2015-05-05,0.8112407211028632
2015-05-06,0.8268482490272373
2015-05-07,0.8338001867413632
2015-05-08,0.5694282380396732
2015-05-11,0.503209242618742
2015-05-12,0.6769706336939721
2015-05-13,0.3045822102425876
2015-05-14,0.12393887945670629
2015-05-15,0.12478632478632479
2015-05-18,0.12717770034843207
2015-05-19,0.045454545454545456
2015-05-20,0.533213644524237
2015-05-21,0.5517241379310345
2015-05-22,0.8717047451669596
2015-05-25,0.9016393442622951
2015-05-26,1.0
2015-05-27,0.6061588330632091
2015-05-28,0.3576158940397351
2015-05-29,0.16610549943883277
2015-06-01,0.03861386138613861
2015-06-02,0.0
2015-06-03,0.0485781990521327
2015-06-04,0.07536764705882353
2015-06-05,0.09468822170900693
2015-06-08,0.3050847457627119
2015-06-09,0.3711340206185567
2015-06-10,0.11877394636015326
2015-06-11,0.09538461538461539
2015-06-12,0.2398753894080997
2015-06-15,0.14935064935064934
2015-06-16,0.18505338078291814
2015-06-17,0.4097560975609756
2015-06-18,0.8741258741258742
2015-06-19,0.8983050847457628
2015-06-23,1.0
2015-06-24,1.0
2015-06-25,1.0
2015-06-26,1.0
2015-06-29,1.0
2015-06-30,1.0
2015-07-01,1.0
2015-07-02,0.9375886524822695
2015-07-03,0.9421813403416557
2015-07-06,0.9449311639549437
2015-07-07,0.788961038961039
2015-07-08,0.635
2015-07-09,0.7748344370860927
2015-07-10,0.36926605504587157
2015-07-13,0.17636363636363636
2015-07-14,0.1377840909090909
2015-07-15,0.0980788675429727
2015-07-16,0.0
2015-07-17,0.0
2015-07-20,0.03122798166334733
2015-07-21,0.1321589485840716
2015-07-22,0.46720341893387024
2015-07-23,0.5724300157754161
2015-07-24,0.6768487222415313
2015-07-27,0.805505912772352
2015-07-28,0.8133279807306324
2015-07-29,0.6218354430379773
2015-07-30,0.8010204081632715
2015-07-31,0.8293460925039878
2015-08-03,0.443113772455086
2015-08-04,0.26906779661016555
2015-08-05,0.4566210045662049
2015-08-06,0.4094292803970231
2015-08-07,0.2822384428223899
2015-08-10,0.32311977715877865
2015-08-11,0.6872791519434662
2015-08-12,0.5573192239858954
2015-08-13,0.4954627949183301
2015-08-14,0.5229885057471221
2015-08-17,0.7261146496815225
2015-08-18,0.13529411764705915
2015-08-19,0.13529411764705918
2015-08-20,0.17365269461078028
2015-08-21,0.3412969283276482
2015-08-24,0.4356725146198845
2015-08-25,0.8287037037037052
2015-08-26,1.0
2015-08-27,1.0
2015-08-28,1.0
2015-08-31,0.7692307692307718
2015-09-01,0.6234413965087245
2015-09-02,0.6666666666666624
2015-09-07,0.6568181818181829
2015-09-08,0.35853131749460554
2015-09-09,0.3789954337899579
2015-09-10,0.5000000000000032
2015-09-11,0.12987012987013757
2015-09-14,0.09295099446835499
2015-09-15,0.11233621270065233
2015-09-16,0.09668557325435864
2015-09-17,0.0
2015-09-18,0.0
2015-09-21,0.01657683468930468
2015-09-22,0.04788315003259966
2015-09-23,0.4514654922105442
2015-09-24,0.740235603172646
2015-09-25,1.0
2015-09-28,1.0
2015-09-29,0.9448529411764667
2015-09-30,0.56626506024096
2015-10-08,0.5781249999999948
2015-10-09,0.6236933797909453
2015-10-12,0.6399999999999998
2015-10-13,0.6736842105263215
2015-10-14,1.0
2015-10-15,1.0
2015-10-16,1.0
2015-10-19,1.0
2015-10-20,0.8215613382899587
2015-10-21,0.6515679442508695
2015-10-22,0.2066508313539157
2015-10-23,2.721044245507008e-15
2015-10-26,0.0
2015-10-27,0.11732851985559391
2015-10-28,0.36666666666666564
2015-10-29,0.5996055226824452
2015-10-30,0.9389920424403124
2015-11-02,0.7919463087248333
2015-11-03,0.7118226600985246
2015-11-04,0.24938271604937984
2015-11-05,0.12376237623761809
2015-11-06,0.06349206349206572
2015-11-09,0.08391608391608636
2015-11-10,0.2444444444444428
2015-11-11,0.6730769230769138
2015-11-12,0.9933333333333326
2015-11-13,0.6648936170212817
2015-11-16,0.6313131313131329
2015-11-17,0.6620370370370414
2015-11-18,0.7008196721311507
2015-11-19,0.7884057971014509
2015-11-20,0.9685714285714255
2015-11-23,1.0
2015-11-24,0.9223880597014922
2015-11-25,0.9322916666666665
2015-11-26,0.9266572637517629
2015-11-27,0.9256080114449212
2015-11-30,0.47292993630573255
2015-12-01,0.45482388973966353
2015-12-02,0.2189892802450223
2015-12-03,0.08742331288343438
2015-12-04,0.0
2015-12-07,0.06060606060606036
2015-12-08,0.18997912317327925
2015-12-09,0.2513812154696165
2015-12-10,0.19037656903765915
2015-12-11,0.4639639639639658
2015-12-14,0.5534709193245798
2015-12-15,0.4431818181818187
2015-12-16,0.46336633663366306
2015-12-17,0.8638132295719838
2015-12-18,0.8468271334792112
2015-12-21,0.7836257309941499
2015-12-22,0.9435736677115981
2015-12-23,0.9918224731414509
2015-12-24,0.656673485641885
2015-12-25,0.38884562505719006
2015-12-28,0.35610277104817767
2015-12-29,0.33333485554905035
2015-12-30,0.024035873377130552
2015-12-31,0.07874648874422348
2016-01-04,0.5440422816955802
2016-01-05,0.572425671807052
2016-01-06,0.4640000000000005
2016-01-07,0.5370370370370393
2016-01-08,0.6268656716417963
2016-01-11,0.2719546742209663
2016-01-12,0.3323170731707337
2016-01-13,0.4869281045751668
2016-01-14,0.6258741258741293
2016-01-15,0.2842465753424724
2016-01-18,0.7287234042553253
2016-01-19,0.547169811320753
2016-01-20,0.5057208237986252
2016-01-21,0.44009216589861416
2016-01-22,0.49100257069407427
2016-01-25,0.09174311926606067
2016-01-26,0.3280000000000235
2016-01-27,0.621621621621619
2016-01-28,0.536964980544748
2016-01-29,0.7947019867549692
2016-02-01,0.5804749340369372
2016-02-02,0.5012594458438205
2016-02-03,0.2602040816326512
2016-02-04,0.4256926952141013
2016-02-05,0.20303030303029934
2016-02-15,0.4763406940063124
2016-02-16,0.6006289308176171
2016-02-17,0.7925311203319524
2016-02-18,0.63589743589745
2016-02-19,0.5990338164251258
2016-02-22,0.49999999999999584
2016-02-23,0.6468085106382977
2016-02-24,0.7106382978723447
2016-02-25,0.7803738317756955
2016-02-26,1.0
2016-02-29,0.7159353348729847
2016-03-01,0.5000000000000019
2016-03-02,0.4407582938388633
2016-03-03,0.6451127819548861
2016-03-04,0.6544655929721792
2016-03-07,0.811980033277865
2016-03-08,0.9657534246575339
2016-03-09,1.0
2016-03-10,1.0
2016-03-11,0.8304623753399788
2016-03-14,0.7446808510638268
2016-03-15,0.3430656934306541
2016-03-16,0.07177033492822743
2016-03-17,0.0
2016-03-18,0.04863481228669073
2016-03-21,0.27496382054993
2016-03-22,0.36821705426356843
2016-03-23,0.5191387559808652
2016-03-24,0.8710865561694292
2016-03-25,0.5826330532212903
2016-03-28,0.22037914691943614
2016-03-29,0.30376344086021656
2016-03-30,0.5019230769230771
2016-03-31,0.5690515806988353
2016-04-01,0.9373737373737379
2016-04-05,0.6685878962536038
2016-04-06,0.6271186440677996
2016-04-07,0.30749682337992373
2016-04-08,0.162666666666667
2016-04-11,0.14324693042291822
2016-04-12,0.2346153846153771
2016-04-13,0.4979310344827518
2016-04-14,0.8719135802469132
2016-04-15,1.0
2016-04-18,0.7749029754204383
2016-04-19,0.71763255240444
2016-04-20,0.48377997179125903
2016-04-21,0.32347504621072143
2016-04-22,0.4420731707317094
2016-04-25,0.7419354838709722
2016-04-26,0.8259212198221121
2016-04-27,0.8867667121418807
2016-04-28,0.7065592635212883
2016-04-29,0.3734439834024891
2016-05-03,0.12083847102342715
2016-05-04,0.0691906005221924
2016-05-05,0.2060829050231078
2016-05-06,0.4512614470421513
2016-05-09,0.8020157098788856
2016-05-10,1.0
2016-05-11,0.8010402790248282
2016-05-12,0.6184318386477201
2016-05-13,0.2938746489453152
2016-05-16,0.11287935280314573
2016-05-17,0.0
2016-05-18,0.0
2016-05-19,0.0
2016-05-20,0.0
2016-05-23,0.15010570824524344
2016-05-24,0.27307692307692283
2016-05-25,0.24232081911263154
2016-05-26,0.32500000000000717
2016-05-27,0.6412556053811787
2016-05-30,0.26765799256506706
2016-05-31,0.23300970873787422
2016-06-01,0.5647668393782431
2016-06-02,0.5225988700565006
2016-06-03,0.32589285714285726
2016-06-06,0.45747800586510495
2016-06-07,0.4521739130434802
2016-06-08,0.02777777777778137
2016-06-13,0.049046321525886304
2016-06-14,0.13944223107570594
2016-06-15,0.08196721311475749
2016-06-16,0.39353099730457947
2016-06-17,0.7664233576642312
2016-06-20,0.6941580756013744
2016-06-21,0.7043189368770731
2016-06-22,0.9213836477987426
2016-06-23,0.7136929460580889
2016-06-24,0.7206477732793459
2016-06-27,0.8358208955223817
2016-06-28,0.6314102564102526
2016-06-29,0.6114864864864791
2016-06-30,0.6464285714285699
2016-07-01,0.8186813186813197
2016-07-04,0.8970893970893974
2016-07-05,0.9823008849557525
2016-07-06,0.9847660500544073
2016-07-07,1.0
2016-07-08,0.8979155531801154
2016-07-11,0.7293413173652689
2016-07-12,0.36244841815681
2016-07-13,0.15665399239544045
2016-07-14,0.0
2016-07-15,0.0
2016-07-18,0.0
2016-07-19,0.0
2016-07-20,0.0
2016-07-21,0.03628447024673454
2016-07-22,0.15922330097087523
2016-07-25,0.12094395280236148
2016-07-26,0.18250950570342458
2016-07-27,0.5988909426987086
2016-07-28,0.48070739549839564
2016-07-29,0.5030769230769256
2016-08-01,0.7670329670329696
2016-08-02,0.7791666666666685
2016-08-03,0.3273542600896855
2016-08-04,0.5456674473067872
2016-08-05,0.4626038781163374
2016-08-08,0.5477855477855429
2016-08-09,0.47804878048780386
2016-08-10,0.9420289855072541
2016-08-11,0.9344262295082065
2016-08-12,0.5911111111111146
2016-08-15,0.4150943396226456
2016-08-16,0.4282238442822337
2016-08-17,0.10375275938190219
2016-08-18,0.0
2016-08-19,0.010416666666658438
2016-08-22,0.009345794392516055
2016-08-23,0.008571428571422117
2016-08-24,0.37809187279152845
2016-08-25,0.6017964071856372
2016-08-26,0.5365853658536709
2016-08-29,0.7071428571428767
2016-08-30,0.761538461538458
2016-08-31,0.3587786259541891
2016-09-01,0.0
2016-09-02,0.41165514079394255
2016-09-05,0.44136139839494143
2016-09-06,0.5705978543264982
2016-09-07,0.6701096613241969
2016-09-08,0.9488041550251022
2016-09-09,0.40442588726514117
2016-09-12,0.676829924497739
2016-09-13,0.5312038404726723
2016-09-14,0.5641677255400238
2016-09-19,0.6128668171557581
2016-09-20,0.8227272727272733
2016-09-21,0.27609427609428255
2016-09-22,0.5386819484240709
2016-09-23,0.5007299270073006
2016-09-26,0.3059163059163019
2016-09-27,0.4530706836616411
2016-09-28,0.6571428571428569
2016-09-29,0.37763713080168765
2016-09-30,0.39082969432314674
2016-10-10,0.6759259259259346
2016-10-11,0.2997347480106115
2016-10-12,0.38655462184873707
2016-10-13,0.3999999999999999
2016-10-14,0.421652421652417
2016-10-17,0.0951086956521697
2016-10-18,0.35294117647058626
2016-10-19,0.24184782608695315
2016-10-20,0.2696969696969627
2016-10-21,0.4737991266375489
2016-10-24,0.5755968169761204
2016-10-25,0.48220064724918366
2016-10-26,0.8039215686274487
2016-10-27,0.9025844930417525
2016-10-28,0.8710526315789531
2016-10-31,1.0
2016-11-01,1.0
2016-11-02,0.8161209068010058
2016-11-03,0.7932011331444707
2016-11-04,0.8653136531365263
2016-11-07,0.9165714285714253
2016-11-08,0.9399176954732485
2016-11-09,1.0
2016-11-10,1.0
2016-11-11,0.9459745762711853
2016-11-14,0.9544642857142849
2016-11-15,0.947449768160741
2016-11-16,0.7160627366143856
2016-11-17,0.5491329479768786
2016-11-18,0.6171654432524005
2016-11-21,0.17810550198525335
2016-11-22,0.07189542483660201
2016-11-23,0.08838071693448774
2016-11-24,0.17623227548953496
2016-11-25,0.08513708513708543
2016-11-28,0.1497461928934013
2016-11-29,0.453999999999999
2016-11-30,0.7216624685138567
2016-12-01,0.7009472259810584
2016-12-02,0.6159334126040464
2016-12-05,0.574279379157434
2016-12-06,0.32563694267516274
2016-12-07,0.050199203187250754
2016-12-08,0.0
2016-12-09,0.03442754203362452
2016-12-12,0.047058823529407136
2016-12-13,0.46923879040666977
2016-12-14,0.7699859747545563
2016-12-15,1.0
2016-12-16,0.7329700272479557
2016-12-19,0.8122605363984668
2016-12-20,0.4334305150631669
2016-12-21,0.29708904109588957
2016-12-22,0.23076923076922978
2016-12-23,0.3475935828877015
2016-12-26,0.2853556485355665
2016-12-27,0.5492277992278014
2016-12-28,0.7458379578246389
2016-12-29,1.0
2016-12-30,0.894145352902036
2017-01-03,0.5511334413602156
2017-01-04,0.3583759148704752
2017-01-05,0.4821832237992263
2017-01-06,0.29375045611447753
2017-01-09,0.2899446780840741
2017-01-10,0.4054170231268302
2017-01-11,0.48892663888938237
2017-01-12,0.0
2017-01-13,0.0
2017-01-16,0.5740181268882214
2017-01-17,0.8042105263157892
2017-01-18,0.6958105646630128
2017-01-19,0.4467836257309876
2017-01-20,0.5897903372834972
2017-01-23,0.4775339602925785
2017-01-24,0.26185770750988213
2017-01-25,0.3416087388282066
2017-01-26,0.6644067796610205
2017-02-03,0.3915151515151532
2017-02-06,0.3712643678160952
2017-02-07,0.4729136163982437
2017-02-08,0.3456090651558053
2017-02-09,0.0
2017-02-10,0.0
2017-02-13,0.3868065967016453
2017-02-14,0.37885462555065913
2017-02-15,0.5941845764854613
2017-02-16,0.5683192261185019
2017-02-17,0.7776412776412801
2017-02-20,0.5230125523012594
2017-02-21,0.5914634146341486
2017-02-22,0.2543352601156067
2017-02-23,0.41319942611191246
2017-02-24,0.20161290322581057
2017-02-27,0.2615062761506314
2017-02-28,0.31589147286822916
2017-03-01,0.5158227848101393
2017-03-02,0.15407854984895206
2017-03-03,0.3356164383561744
2017-03-06,0.26923076923077766
2017-03-07,0.12533333333333455
2017-03-08,0.22865013774104742
2017-03-09,0.5773480662983367
2017-03-10,0.6964285714285646
2017-03-13,0.8803088803088757
2017-03-14,0.9956331877729256
2017-03-15,0.9959016393442622
2017-03-16,0.6666666666666665
2017-03-17,0.29584775086504944
2017-03-20,0.10610932475884162
2017-03-21,0.15290519877675532
2017-03-22,0.056105610561053086
2017-03-23,0.10250569476081753
2017-03-24,0.1737451737451705
2017-03-27,0.8262032085561476
2017-03-28,0.8484848484848481
2017-03-29,0.8605200945626592
2017-03-30,0.8114942528735677
2017-03-31,0.9122807017543874
2017-04-05,0.32894736842105593
2017-04-06,0.26086956521739074
2017-04-07,0.24080267558527838
2017-04-10,0.24161073825503138
2017-04-11,0.5837937384898731
2017-04-12,0.853470437017992
2017-04-13,0.7207446808510535
2017-04-14,0.8333333333333296
2017-04-17,0.936591809775425
2017-04-18,0.5690954773869323
2017-04-19,0.602088167053363
2017-04-20,0.6585648148148172
2017-04-21,0.581257413997629
2017-04-24,0.23226950354610446
2017-04-25,0.5988372093023328
2017-04-26,0.2783787223212091
2017-04-27,0.18772124289341172
2017-04-28,0.44252547285385857
2017-05-02,0.4211933337125289
2017-05-03,0.3098865478119905
2017-05-04,0.5933103787506033
2017-05-05,0.41419569733701195
2017-05-08,0.08835213729540668
2017-05-09,0.09436524100475258
2017-05-10,0.08674698795180875
2017-05-11,0.11655011655011405
2017-05-12,0.14492753623188306
2017-05-15,0.20325203252032378
2017-05-16,0.28409090909090734
2017-05-17,0.6788617886178806
2017-05-18,0.4814814814814773
2017-05-19,0.5416666666666544
2017-05-22,0.7811550151975661
2017-05-23,0.6539440203562294
2017-05-24,0.36553524804177384
2017-05-25,0.45403899721448493
2017-05-26,0.4929577464788808
2017-05-31,0.13207547169813147
2017-06-01,0.4432624113475281
2017-06-02,0.6983240223463885
2017-06-05,0.5862068965517373
2017-06-06,0.5932203389830538
2017-06-07,0.8571428571428599
2017-06-08,0.24418604651162615
2017-06-09,0.17796610169491014
2017-06-12,0.1372549019607813
2017-06-13,0.4677419354838673
2017-06-14,0.3747714808043835
2017-06-15,0.5084033613445308
2017-06-16,0.6632860040567925
2017-06-19,0.8458498023715398
2017-06-20,0.4372549019607889
2017-06-21,0.4199623352165772
2017-06-22,0.4264432029795241
2017-06-23,0.38400000000000734
2017-06-26,0.25242718446601836
2017-06-27,0.43153526970953665
2017-06-28,0.809045226130646
2017-06-29,0.5221238938052932
2017-06-30,0.2661596958174746
2017-07-03,0.15531335149863315
2017-07-04,0.33658536585364957
2017-07-05,0.2154255319148866
2017-07-06,0.299065420560747
2017-07-07,0.3287671232876731
2017-07-10,0.7158273381295003
2017-07-11,0.47200000000001235
2017-07-12,0.40972222222223076
2017-07-13,0.35034013605442477
2017-07-14,0.6691176470588275
2017-07-17,0.617563739376775
2017-07-18,0.6468842729970297
2017-07-19,0.8681818181818162
2017-07-20,0.9127358490566003
2017-07-21,0.6235632183908064
2017-07-24,0.45923913043478437
2017-07-25,0.46556473829201755
2017-07-26,0.018181818181810482
2017-07-27,0.4556451612903299
2017-07-28,0.6834532374100755
2017-07-31,0.7804878048780524
2017-08-01,0.878787878787879
2017-08-02,1.0
2017-08-03,0.6320582877959876
2017-08-04,0.3471223021582673
2017-08-07,0.34177215189873045
2017-08-08,0.05555555555555418
2017-08-09,0.0
2017-08-10,0.14089347079037748
2017-08-11,0.6787003610108356
2017-08-14,0.6996587030716745
2017-08-15,0.6327160493827158
2017-08-16,0.8870523415977979
2017-08-17,0.90120481927711
2017-08-18,0.5417661097851981
2017-08-21,0.45751633986928086
2017-08-22,0.40229885057471165
2017-08-23,0.3333333333333288
2017-08-24,0.11775700934579124
2017-08-25,0.15328467153284514
2017-08-28,0.30048076923077194
2017-08-29,0.5078947368421097
2017-08-30,0.31175059952038864
2017-08-31,0.6822315359407594
2017-09-01,0.7179994955567769
2017-09-04,0.5452668102848716
2017-09-05,0.40050846689897823
2017-09-06,0.45414595311500494
2017-09-07,0.0
2017-09-08,0.21452963116585672
2017-09-11,0.37447327949240594
2017-09-12,0.3749721836466335
2017-09-13,0.3640449438202281
2017-09-14,0.7035040431266832
2017-09-15,0.680232558139532
2017-09-18,0.6440129449838131
2017-09-19,0.7948717948717899
2017-09-20,1.0
2017-09-21,1.0
2017-09-22,0.7265917602996402
2017-09-25,0.6779661016949335
2017-09-26,0.48484848484850207
2017-09-27,0.12592592592594534
2017-09-28,0.0
2017-09-29,0.0
2017-10-09,0.17689530685919788
2017-10-10,0.24482758620689138
2017-10-11,0.4150943396226382
2017-10-12,0.553719008264455
2017-10-13,1.0
2017-10-16,0.4374999999999954
2017-10-17,0.2830188679245216
2017-10-18,0.10984848484847065
2017-10-19,0.08626198083066519
2017-10-20,0.0
2017-10-23,0.0
2017-10-24,0.08333333333333694
2017-10-25,0.03960396039604233
2017-10-26,0.10062893081761594
2017-10-27,0.38967136150236203
2017-10-30,0.5533596837944745
2017-10-31,0.5498007968127608
2017-11-01,1.0
2017-11-02,1.0
2017-11-03,0.8824593128390605
2017-11-06,0.743103448275863
2017-11-07,0.7573289902280114
2017-11-08,0.13214990138066668
2017-11-09,0.10020449897749725
2017-11-10,0.32065217391303663
2017-11-13,0.42376237623762103
2017-11-14,0.3962655601659767
2017-11-15,1.0
2017-11-16,0.8339222614840963
2017-11-17,0.46956521739131124
2017-11-20,0.32870370370370416
2017-11-21,0.19636363636363566
2017-11-22,0.0
2017-11-23,0.22651933701658317
2017-11-24,0.31438127090301693
2017-11-27,0.3345195729537426
2017-11-28,0.43317972350231326
2017-11-29,0.6811594202898384
2017-11-30,0.14457831325299392
2017-12-01,0.2022471910112265
2017-12-04,0.5657894736842007
2017-12-05,0.7127659574467936
2017-12-06,0.8949416342412441
2017-12-07,1.0
2017-12-08,0.7885906040268451
2017-12-11,0.7407407407407335
2017-12-12,0.7804878048780409
2017-12-13,0.8470873786407688
2017-12-14,0.882242990654201
2017-12-15,0.9874476987447736
2017-12-18,0.9893428063943195
2017-12-19,0.8017241379310361
2017-12-20,0.41008403361345197
2017-12-21,0.161716171617166
2017-12-22,0.16198347107438463
2017-12-25,0.0
2017-12-26,0.18243878530402904
2017-12-27,0.25586326679996846
2017-12-28,0.4196531070287794
2017-12-29,0.46635150333336833
2018-01-02,0.8014134225968201
2018-01-03,0.4119630559085854
2018-01-04,0.6115507779987717
2018-01-05,0.47485093290012653
2018-01-08,0.4043478260869499
2018-01-09,0.13432835820893735
2018-01-10,0.138996138996119
2018-01-11,0.0
2018-01-12,0.0
2018-01-15,0.0
2018-01-16,0.0
2018-01-17,0.05217391304349962
2018-01-18,0.2782608695652342
2018-01-19,0.7466063348416386
2018-01-22,0.900826446280996
2018-01-23,1.0
2018-01-24,0.8648648648648537
2018-01-25,0.7586206896551602
2018-01-26,0.26209677419353644
2018-01-29,0.5221932114882378
2018-01-30,0.5995623632385049
2018-01-31,0.7435008665511228
2018-02-01,0.7841726618704989
2018-02-02,1.0
2018-02-05,0.84939759036145
2018-02-06,0.6666666666666666
2018-02-07,0.3950617283950755
2018-02-08,0.6722408026755942
2018-02-09,0.7315068493150637
2018-02-12,0.5668789808917142
2018-02-13,0.6095890410958883
2018-02-14,0.5661252900231937
2018-02-22,0.3095975232197953
2018-02-23,0.0
2018-02-26,0.0
2018-02-27,0.051948051948050744
2018-02-28,0.031620553359683626
2018-03-01,0.024615384615384296
2018-03-02,0.025723472668809873
2018-03-05,0.02580645161290231
2018-03-06,0.0
2018-03-07,0.0
2018-03-08,0.0
2018-03-09,0.6044776119403003
2018-03-12,0.7368421052631714
2018-03-13,0.656250000000018
2018-03-14,0.7792207792207934
2018-03-15,0.789473684210534
2018-03-16,0.48292682926830166
2018-03-19,0.242152466367717
2018-03-20,0.28272251308900864
2018-03-21,0.0
2018-03-22,0.3259911894273125
2018-03-23,0.8886283704572079
2018-03-26,0.9612590799031469
2018-03-27,0.9720044792833132
2018-03-28,1.0
2018-03-29,0.9536934950385872
2018-03-30,0.24069148936169918
2018-04-02,0.28624999999999917
2018-04-03,0.2047556142668424
2018-04-04,0.10383189122373601
2018-04-09,0.11757105943153087
2018-04-10,0.21411764705883404
2018-04-11,0.0159453302961334
2018-04-12,0.09276018099548351
2018-04-13,0.19420289855073208
2018-04-16,0.19653179190751147
2018-04-17,0.5504587155963186
2018-04-18,1.0
2018-04-19,1.0
2018-04-20,1.0
2018-04-23,0.8133555713530491
2018-04-24,0.7504525050171517
2018-04-25,0.5689016236867127
2018-04-26,0.07410846855446976
2018-04-27,0.12804039323289212
2018-05-02,0.13920913625176393
2018-05-03,0.08474576271187234
2018-05-04,0.14705882352942323
2018-05-07,0.19230769230770242
2018-05-08,0.1472081218273971
2018-05-09,0.20744680851061215
2018-05-10,0.6516129032258006
2018-05-11,0.4942528735632074
2018-05-14,0.7279999999999958
2018-05-15,0.4450867052023296
2018-05-16,0.37430167597767783
2018-05-17,0.03703703703706263
2018-05-18,0.2671755725191138
2018-05-21,0.603305785123945
2018-05-22,0.7336683417085089
2018-05-23,0.8598484848484607
2018-05-24,0.9340277777777724
2018-05-25,0.9413580246913515
2018-05-28,0.9586056644880138
2018-05-29,1.0
2018-05-30,1.0
2018-05-31,1.0
2018-06-01,1.0
2018-06-04,0.953007518796992
2018-06-05,0.6962785114045612
2018-06-06,0.3746898263027302
2018-06-07,0.17569546120058693
2018-06-08,0.0
2018-06-11,0.0
2018-06-12,0.0
2018-06-13,0.4665775401069492
2018-06-14,0.41796407185628504
2018-06-15,0.374062165058949
2018-06-19,0.5162972620599723
2018-06-20,0.5875370919881291
2018-06-21,0.06666666666666567
2018-06-22,0.08333333333333269
2018-06-25,0.09611451942740155
2018-06-26,0.0
2018-06-27,0.0
2018-06-28,0.0
2018-06-29,0.0
2018-07-02,0.15546218487395033
2018-07-03,0.15744680851063703
2018-07-04,0.4980079681274878
2018-07-05,0.7431192660550382
2018-07-06,0.8450704225352065
2018-07-09,0.787804878048778
2018-07-10,0.933526011560699
2018-07-11,0.9463869463869503
2018-07-12,0.7826086956521867
2018-07-13,0.6679687500000037
2018-07-16,0.6286764705882381
2018-07-17,0.6925465838509323
2018-07-18,0.13231552162849863
2018-07-19,0.12871287128712575
2018-07-20,0.21136363636364072
2018-07-23,0.2475728155339789
2018-07-24,0.12953367875647756
2018-07-25,0.36486486486486597
2018-07-26,0.4390243902439255
2018-07-27,0.07303370786516061
2018-07-30,0.3579766536965024
2018-07-31,0.40851063829786943
2018-08-01,0.568322981366454
2018-08-02,0.6981132075471596
2018-08-03,1.0
2018-08-06,0.6006006006006034
2018-08-07,0.6315789473684263
2018-08-08,0.38920454545454986
2018-08-09,0.3322981366459714
2018-08-10,0.2238267148014451
2018-08-13,0.4305555555555511
2018-08-14,0.520467836257309
2018-08-15,1.0
2018-08-16,1.0
2018-08-17,0.6324108345619569
2018-08-20,0.672493832459533
2018-08-21,0.6903819964494343
2018-08-22,0.7154550544592657
2018-08-23,0.4209028844338644
2018-08-24,0.6275689520856632
2018-08-27,0.5623266318127474
2018-08-28,0.13974098580786096
2018-08-29,0.036423841059612
2018-08-30,0.04803493449782853
2018-08-31,0.1773584905660361
2018-09-03,0.21660649819494385
2018-09-04,0.8296703296703087
2018-09-05,0.898734177215185
2018-09-06,1.0
2018-09-07,0.8714859437750924
2018-09-10,0.8709677419354775
2018-09-11,0.4716981132075523
2018-09-12,0.22419928825624114
2018-09-13,0.036585365853666105
2018-09-14,0.03625377643505302
2018-09-17,0.0
2018-09-18,0.0
2018-09-19,0.41877256317689915
2018-09-20,0.7797202797202887
2018-09-21,0.9087947882736253
2018-09-25,0.8278931750741843
2018-09-26,0.885869565217385
2018-09-27,0.8546712802768095
2018-09-28,0.7486631016042783
2018-10-08,0.4057971014492734
2018-10-09,0.5207100591716017
2018-10-10,0.29078014184397133
2018-10-11,0.014705882352940564
2018-10-12,0.018656716417903414
2018-10-15,0.1614349775784589
2018-10-16,0.2996254681647858
2018-10-17,0.34630350194552045
2018-10-18,1.0
2018-10-19,0.7207792207792354
2018-10-22,0.656000000000027
2018-10-23,0.3505154639175477
2018-10-24,0.215517241379338
2018-10-25,0.012903225806461754
2018-10-26,0.013245033112592734
2018-10-29,0.0
2018-10-30,0.0
2018-10-31,0.2407407407407397
2018-11-01,0.3312101910828062
2018-11-02,0.422764227642294
2018-11-05,0.7500000000000415
2018-11-06,0.9402985074627125
2018-11-07,0.6434782608695704
2018-11-08,0.7945945945945946
2018-11-09,0.8754716981132021
2018-11-12,0.9046242774566429
2018-11-13,0.911999999999997
2018-11-14,1.0
2018-11-15,1.0
2018-11-16,1.0
2018-11-19,0.7643312101910822
2018-11-20,0.7643312101910796
2018-11-21,0.8294930875576025
2018-11-22,0.713498622589533
2018-11-23,0.7964774951076321
2018-11-26,0.9357601713062117
2018-11-27,0.9389002036659898
2018-11-28,0.4809160305343502
2018-11-29,0.4137931034482721
2018-11-30,0.13725490196078358
2018-12-03,0.21428571428571577
2018-12-04,0.11350737797957
2018-12-05,0.15197568389057847
2018-12-06,0.293460925039874
2018-12-07,0.5684348198853784
2018-12-10,0.24355573082852527
2018-12-11,0.34212140808171126
2018-12-12,0.3340294641411706
2018-12-13,0.13288901469339526
2018-12-14,0.003932684894594135
2018-12-17,0.008940795996407132
2018-12-18,0.0
2018-12-19,0.05697884165366317
2018-12-20,0.2475247524752401
2018-12-21,0.49019607843135976
2018-12-24,0.6041666666666173
2018-12-25,0.9382716049382706
2018-12-26,0.9295774647887342
2018-12-27,0.9484536082474245
2018-12-28,1.0
2019-01-02,1.0
2019-01-03,0.9138576779026241
2019-01-04,0.9157509157509158
2019-01-07,0.7636363636363637
2019-01-08,0.23552123552123075
2019-01-09,0.11210762331836975
2019-01-10,0.10080645161289027
2019-01-11,0.20071684587814898
2019-01-14,0.3394160583941705
2019-01-15,0.7538461538461675
2019-01-16,0.5098814229249011
2019-01-17,0.6923076923076809
2019-01-18,0.4784172661870339
2019-01-21,0.45895522388058696
2019-01-22,0.41532258064515576
2019-01-23,0.6567164179104487
2019-01-24,0.5172413793103529
2019-01-25,0.7758620689655067
2019-01-28,0.38650306748465973
2019-01-29,0.12888888888889183
2019-01-30,0.0
2019-01-31,0.015228426395933359
2019-02-01,0.21459227467811756
2019-02-11,0.5112107623318417
2019-02-12,0.9037037037037047
2019-02-13,1.0
2019-02-14,0.9316239316239359
2019-02-15,0.7095435684647331
2019-02-18,0.5944444444444519
2019-02-19,0.7255639097744366
2019-02-20,0.37450199203186935
2019-02-21,0.36718749999999467
2019-02-22,0.6459016393442604
2019-02-25,0.7965116279069735
2019-02-26,0.6215686274509787
2019-02-27,0.7685774946921441
2019-02-28,0.7886710239651428
2019-03-01,0.6152019002375267
2019-03-04,0.10022271714922153
2019-03-05,0.15957446808510592
2019-03-06,0.04213483146067288
2019-03-07,0.04201680672268745
2019-03-08,0.21971830985915053
2019-03-11,0.5864661654135431
2019-03-12,0.42857142857142544
2019-03-13,0.37951807228914997
2019-03-14,0.48044692737431327
2019-03-15,0.11855670103094505
2019-03-18,0.1299435028248719
2019-03-19,0.10849056603775063
2019-03-20,0.22043010752689926
2019-03-21,0.20329670329669852
2019-03-22,0.2534246575342426
2019-03-25,0.48292682926828984
2019-03-26,0.7572254335260096
2019-03-27,0.5458937198067574
2019-03-28,0.6115702479338861
2019-03-29,0.8583106267029994
2019-04-01,0.7397660818713473
2019-04-02,0.7374631268436622
2019-04-03,0.8850931677018635
2019-04-04,0.6936936936936939
2019-04-08,0.21192052980133133
2019-04-09,0.2077922077922148
2019-04-10,0.119453924914679
2019-04-11,0.009366689832551326
2019-04-12,0.012163337674397954
2019-04-15,0.16131380023484854
2019-04-16,0.7162641029322202
2019-04-17,0.9103528375278928
2019-04-18,0.5494553876663081
2019-04-19,0.7054806461414255
2019-04-22,0.6830745848390961
2019-04-23,0.34038971851652383
2019-04-24,0.2761194029850707
2019-04-25,0.4553571428571473
2019-04-26,0.1250000000000138
2019-04-29,0.4166666666666815
2019-04-30,0.5539568345324095
2019-05-06,0.7514124293785415
2019-05-07,0.8009049773755708
2019-05-08,1.0
2019-05-09,0.9111111111111119
2019-05-10,0.902985074626838
2019-05-13,0.861702127659533
2019-05-14,0.3538461538461036
2019-05-15,0.2352941176470079
2019-05-16,0.1454545454545119
2019-05-17,0.33093525179853567
2019-05-20,0.1604278074866276
2019-05-21,0.13333333333333236
2019-05-22,0.271653543307095
2019-05-23,0.3270142180094963
2019-05-24,0.24468085106385812
2019-05-27,0.7067669172932508
2019-05-28,0.9570312500000094
2019-05-29,0.7803030303030262
2019-05-30,0.8756613756613661
2019-05-31,0.873655913978485
2019-06-03,0.5140449438202181
2019-06-04,0.3853211009174303
2019-06-05,0.46712802768167194
2019-06-06,0.03236245954694323
2019-06-10,0.10479041916168436
2019-06-11,0.36162361623617384
2019-06-12,0.43359375000000655
2019-06-13,0.4609665427509262
2019-06-14,1.0
2019-06-17,0.7030567685589353
2019-06-18,0.42794759825324735
2019-06-19,0.5304659498207684
2019-06-20,0.4615384615384415
2019-06-21,0.22340425531914418
2019-06-24,0.3984063745019979
2019-06-25,0.4566210045662223
2019-06-26,0.15811965811967757
2019-06-27,0.19555555555557852
2019-06-28,0.3662790697674754
2019-07-01,0.34337349397591266
2019-07-02,0.9022556390977474
2019-07-03,1.0
2019-07-04,1.0
2019-07-05,1.0
2019-07-08,1.0
2019-07-09,0.6913890634820866
2019-07-10,0.25201612903225745
2019-07-11,0.22222222222221558
2019-07-12,0.2753906249999967
2019-07-15,0.1519736842105252
2019-07-16,0.28622540250447126
2019-07-17,0.6438631790744562
2019-07-18,0.4874715261959138
2019-07-19,0.26023391812866076
2019-07-22,0.6547085201793751
2019-07-23,0.16473988439305573
2019-07-24,0.4715596330275179
2019-07-25,0.4461805555555516
2019-07-26,0.4172077922077916
2019-07-29,0.35335689045936747
2019-07-30,0.5780821917808296
2019-07-31,0.027027027027025724
2019-08-01,0.030136986301368303
2019-08-02,0.06229508196719867
2019-08-05,0.16467065868262604
2019-08-06,0.28092783505153573
2019-08-07,0.6123595505617883
2019-08-08,0.9305856832971809
2019-08-09,0.9212253829321733
2019-08-12,0.9413952733274662
2019-08-13,0.9468839793614323
2019-08-14,0.994385785341002
2019-08-15,0.5323379544125072
2019-08-16,0.5972078092274431
2019-08-19,0.4208757730148205
2019-08-20,0.22768443224081866
2019-08-21,0.25446319224255837
2019-08-22,0.4040391875417756
2019-08-23,0.21590909090908572
2019-08-26,0.2159090909090874
2019-08-27,0.3909774436090268
2019-08-28,0.02875399361023245
2019-08-29,0.06643356643356899
2019-08-30,0.05588235294117916
2019-09-02,0.582300884955757
2019-09-03,0.7473233404710945
2019-09-04,0.9327129563350045
2019-09-05,0.9512953367875656
2019-09-06,1.0
2019-09-09,0.9043701799485856
2019-09-10,0.7357485348961104
2019-09-11,0.4163090128755374
2019-09-12,0.1352292513058629
2019-09-16,0.02804957599477952
2019-09-17,0.02842035690680573
2019-09-18,0.03415409054805176
2019-09-19,0.05898491083675883
2019-09-20,0.09033613445377588
2019-09-23,0.0
2019-09-24,0.0
2019-09-25,0.0
2019-09-26,0.20751633986928028
2019-09-27,0.38461538461538314
2019-09-30,0.5501285347043662
2019-10-08,0.759206798866852
2019-10-09,1.0
2019-10-10,0.9498069498069559
2019-10-11,0.6520000000000071
2019-10-14,0.5698924731182854
2019-10-15,0.3962264150943453
2019-10-16,0.19999999999998813
2019-10-17,0.1769911504424657
2019-10-18,0.4314720812182596
2019-10-21,0.6708333333333316
2019-10-22,0.6098484848484759
2019-10-23,0.438405797101446
2019-10-24,0.45318352059924616
2019-10-25,0.32900432900433846
2019-10-28,0.0
2019-10-29,0.12719298245615632
2019-10-30,0.10247349823322952
2019-10-31,0.10000000000001388
2019-11-01,0.2222222222222211
2019-11-04,0.2962962962962916
2019-11-05,0.24669603524227376
2019-11-06,0.62130177514791
2019-11-07,0.8223684210526077
2019-11-08,0.29818181818181433
2019-11-11,0.35658914728682867
2019-11-12,0.3360000000000092
2019-11-13,0.47962382445141355
2019-11-14,0.5310734463276894
2019-11-15,1.0
2019-11-18,1.0
2019-11-19,1.0
2019-11-20,0.591900311526486
2019-11-21,0.6850961538461564
2019-11-22,0.7188841201716729
2019-11-25,0.5755813953488378
2019-11-26,0.4510869565217357
2019-11-27,0.5763888888888812
2019-11-28,0.20582120582119875
2019-11-29,0.0
2019-12-02,0.0512820512820526
2019-12-03,0.17579250720461126
2019-12-04,0.2506811989100795
2019-12-05,0.6528271960102354
2019-12-06,0.6865964275893047
2019-12-09,0.6813989137896107
2019-12-10,0.6031769517281985
2019-12-11,0.4360789378779583
2019-12-12,0.1430378401103901
2019-12-13,0.6801824062159453
2019-12-16,0.6763016658103792
2019-12-17,0.7096804281685478
2019-12-18,0.869565217391321
2019-12-19,1.0
2019-12-20,0.4999999999999515
2019-12-23,0.5784313725489603
2019-12-24,0.6559999999999704
2019-12-25,0.7034482758620602
2019-12-26,0.5549132947976918
2019-12-27,0.7702702702702766
2019-12-30,0.9184652278177508
2019-12-31,0.7917620137299851
2020-01-02,0.8002507508277686
2020-01-03,0.8792686898821607
2020-01-06,0.8999709187892253
2020-01-07,0.3173931324642989
2020-01-08,0.3649796357557324
2020-01-09,0.3635431530592445
2020-01-10,0.27256645816047437
2020-01-13,0.09607028632950082
2020-01-14,0.3924365071419061
2020-01-15,0.4106583072100193
2020-01-16,0.29655172413791914
2020-01-17,0.4317180616739965
2020-01-20,0.9341563786008178
2020-01-21,0.9409594095940916
2020-01-22,0.943859649122803
2020-01-23,1.0
2020-02-03,1.0
2020-02-04,1.0
2020-02-05,0.9042968750000044
2020-02-06,0.8389662027833065
2020-02-07,0.5631262525050149
2020-02-10,0.18823529411765216
2020-02-11,0.0
2020-02-12,0.0
2020-02-13,0.0
2020-02-14,0.0
2020-02-17,0.0
2020-02-18,0.08059701492537868
2020-02-19,0.08881578947369062
2020-02-20,0.17316017316017787
2020-02-21,0.6969696969697242
2020-02-24,0.852713178294582
2020-02-25,0.4797687861271626
2020-02-26,0.6666666666666587
2020-02-27,0.695278969957079
2020-02-28,0.8360277136258627
2020-03-02,0.8743362831858382
2020-03-03,1.0
2020-03-04,0.9288537549407091
2020-03-05,0.8864097363083134
2020-03-06,0.4363207547169809
2020-03-09,0.08101851851852206
2020-03-10,0.13695652173912787
2020-03-11,0.1422121896162515
2020-03-12,0.29824561403509153
2020-03-13,0.7358208955223937
2020-03-16,0.9731638418079133
2020-03-17,0.976130653266335
2020-03-18,1.0
2020-03-19,1.0
2020-03-20,1.0
2020-03-23,1.0
2020-03-24,1.0
2020-03-25,1.0
2020-03-26,0.6856959589480425
2020-03-27,0.29732868757259096
2020-03-30,0.08776119402985154
2020-03-31,0.04806565064478236
2020-04-01,0.0
2020-04-02,0.05952380952381122
2020-04-03,0.1133144475920708
2020-04-07,0.16260162601626224
2020-04-08,0.16985138004246608
2020-04-09,0.2150537634408672
2020-04-10,0.12312312312312051
2020-04-13,0.14642857142856733
2020-04-14,0.31122448979593753
2020-04-15,0.3144329896907404
2020-04-16,0.27477477477478734
2020-04-17,0.05405405405406718
2020-04-20,0.13477088948788984
2020-04-21,0.06960556844548141
2020-04-22,0.24942791762013936
2020-04-23,0.6515544041450734
2020-04-24,0.8613013698630074
2020-04-27,0.9044811320754665
2020-04-28,0.9989232077780396
2020-04-29,0.95805291958813
2020-04-30,0.5967304726400298
2020-05-06,0.604793474997667
2020-05-07,0.22567074305319232
2020-05-08,0.017095096622233952
2020-05-11,0.019162613585289912
2020-05-12,0.025259437079541088
2020-05-13,0.030720373585917598
2020-05-14,0.04215456674473281
2020-05-15,0.07725321888412526
2020-05-18,0.3695014662756687
2020-05-19,0.44839857651246606
2020-05-20,0.6652267818574604
2020-05-21,0.9372093023255936
2020-05-22,0.9668411867364786
2020-05-25,0.8882235528942153
2020-05-26,0.9251012145748981
2020-05-27,0.43788232244022024
2020-05-28,0.3041556127571896
2020-05-29,0.021586361329618223
2020-06-01,0.019886832665432393
2020-06-02,0.0037162432759952724
2020-06-03,0.11769574210292878
2020-06-04,0.3940255174734593
2020-06-05,0.5746750212371252
2020-06-08,0.6408775665514497
2020-06-09,0.661764705882357
2020-06-10,0.5564202334630419
2020-06-11,0.11842105263156144
2020-06-12,0.48936170212765084
2020-06-15,0.8571428571428563
2020-06-16,0.9011764705882361
2020-06-17,0.8454746136865297
2020-06-18,0.6299342105263144
2020-06-19,0.6120689655172401
2020-06-22,0.3987730061349675
2020-06-23,0.08914728682170439
2020-06-24,0.09406952965235149
2020-06-29,0.22988505747126797
2020-06-30,0.10029498525074118
2020-07-01,0.09375234521202878
2020-07-02,0.13855170388989652
2020-07-03,0.45531335274981705
2020-07-06,0.6244487415441319
2020-07-07,0.6924028054239874
2020-07-08,0.8161308213382946
2020-07-09,0.957146083574177
2020-07-10,0.9624078960056214
2020-07-13,0.9660681859812232
2020-07-14,0.950980392156862
2020-07-15,0.985943775100399
2020-07-16,0.9882943143812689
2020-07-17,0.6410658307210036
2020-07-20,0.2058823529411806
2020-07-21,0.21349693251534194
2020-07-22,0.2732426303854857
2020-07-23,0.09705159705159153
2020-07-24,0.17391304347825146
2020-07-27,0.8488745980707384
2020-07-28,0.9230382700301841
2020-07-29,0.9352793715678791
2020-07-30,0.9435188491320873
2020-07-31,0.9381153792699887
2020-08-03,0.7655818871814885
2020-08-04,0.27575361859336245
2020-08-05,0.0
2020-08-06,0.07165161158356427
2020-08-07,0.14021946277598688
2020-08-10,0.1513513513513503
2020-08-11,0.36115326251896834
2020-08-12,0.7506053268765135
2020-08-13,0.749999999999998
2020-08-14,0.5511221945137155
2020-08-17,0.6779141104294492
2020-08-18,0.30753564154786084
2020-08-19,0.1473880597014904
2020-08-20,0.0
2020-08-21,0.09670329670330702
2020-08-24,0.20867768595042277
2020-08-25,0.37132352941176894
2020-08-26,0.5793307114562642
2020-08-27,0.4531763660595233
2020-08-28,0.19913696936153857
2020-08-31,0.0
2020-09-01,0.04883290352444378
2020-09-02,0.1325202791773719
2020-09-03,0.24549599309087372
2020-09-04,0.6667471194409095
2020-09-07,0.7484098190727609
2020-09-08,0.7896825396825429
2020-09-09,0.8527777777777753
2020-09-10,0.8515406162464955
2020-09-11,0.8140350877192921
2020-09-14,1.0
2020-09-15,0.8610271903323264
2020-09-16,0.4229691876750711
2020-09-17,0.49009900990098637
2020-09-18,0.4758269720101727
2020-09-21,0.3333333333333214
2020-09-22,0.4805194805194703
2020-09-23,1.0
2020-09-24,0.9458333333333481
2020-09-25,0.9147124423460693
2020-09-28,0.9198287512021553
2020-09-29,0.903153997933984
2020-09-30,0.7843708578828331
2020-10-09,0.6817743195429732
2020-10-12,0.3317948468643737
2020-10-13,0.08112139111103296
2020-10-14,0.05929854958420452
2020-10-15,0.0
2020-10-16,0.0
2020-10-19,0.12395543175487607
2020-10-20,0.24349442379182357
2020-10-21,0.31090487238979087
2020-10-22,0.7153465346534652
2020-10-23,0.8601190476190451
2020-10-26,0.8507936507936467
2020-10-27,0.8605703794029861
2020-10-28,0.8813566431988724
2020-10-29,0.5067800366559255
2020-10-30,0.6580853922909027
2020-11-02,0.4793780315270614
2020-11-03,0.3910603217191406
2020-11-04,0.3120149291048523
2020-11-05,0.48593293893016815
2020-11-06,0.13103812691732247
2020-11-09,0.15068493150683696
2020-11-10,0.07692307692307349
2020-11-11,0.0
2020-11-12,0.11148648648649212
2020-11-13,0.14828897338403446
2020-11-16,0.5103857566765672
2020-11-17,0.8449367088607629
2020-11-18,1.0
2020-11-19,1.0
2020-11-20,0.9926108374384206
2020-11-23,0.7726750861079165
2020-11-24,0.6856465005931153
2020-11-25,0.3797313797313812
2020-11-26,0.0
2020-11-27,0.13057324840764628
2020-11-30,0.24771615626800939
2020-12-01,0.44519398422702333
2020-12-02,0.5914445686748675
2020-12-03,0.9863122794896579
2020-12-04,0.8276539724043406
2020-12-07,0.7505313352860424
2020-12-08,0.02816700113739212
2020-12-09,0.13607737331636052
2020-12-10,0.24840404381951964
2020-12-11,0.6264367816091927
2020-12-14,0.6671177266576434
2020-12-15,1.0
2020-12-16,1.0
2020-12-17,1.0
2020-12-18,0.45974955277281027
2020-12-21,0.5704125177809406
2020-12-22,0.4360465116279073
2020-12-23,0.4512022630834515
2020-12-24,0.3672086720867233
2020-12-25,0.6173120728929442
2020-12-28,0.15801354401805973
2020-12-29,0.20233359039995918
2020-12-30,0.007774274298534399
2020-12-31,0.1326882531710412
2021-01-04,0.3575081824039741
2021-01-05,0.8647766128807923
2021-01-06,0.8717260190988482
2021-01-07,0.890189958353936
2021-01-08,0.8887778756759691
2021-01-11,0.9138352791774949
2021-01-12,0.5393442622950793
2021-01-13,0.49256198347107233
2021-01-14,0.5330948121645801
2021-01-15,0.4315960912052064
2021-01-18,0.0
2021-01-19,0.0
2021-01-20,0.0
2021-01-21,0.20870870870870323
2021-01-22,0.4123159303882214
2021-01-25,0.8467966573816157
2021-01-26,0.9655737704918044
2021-01-27,1.0
2021-01-28,0.9782293178519604
2021-01-29,0.9772209567198188
2021-02-01,0.86476811308417
2021-02-02,0.6994711556203436
2021-02-03,0.5366243706872981
2021-02-04,0.4444516287711455
2021-02-05,0.18839523633277797
2021-02-08,0.09881943248415534
2021-02-09,0.10468099437941851
2021-02-10,0.0
2021-02-18,0.3155255103828668
2021-02-19,0.5150987224157964
2021-02-22,0.8684582743988702
2021-02-23,0.8917695473251033
2021-02-24,1.0
2021-02-25,1.0
2021-02-26,1.0
2021-03-01,0.6820074329259349
2021-03-02,0.5955688500435532
2021-03-03,0.4898010194535334
2021-03-04,0.23093888490042694
2021-03-05,0.0
2021-03-08,0.1856702897874513
2021-03-09,0.1801596338773804
2021-03-10,0.27069220579240727
2021-03-11,0.4264943457189034
2021-03-12,0.6423357664233574
2021-03-15,0.2548780487804869
2021-03-16,0.31957186544342314
2021-03-17,0.06692406692406541
2021-03-18,0.0
2021-03-19,0.0
2021-03-22,0.0
2021-03-23,0.0
2021-03-24,0.3229813664596242
2021-03-25,0.6337078651685318
2021-03-26,0.9285714285714257
2021-03-29,0.615598885793872
2021-03-30,0.49201956028658195
2021-03-31,0.2198218820415597
2021-04-01,0.24569773272276724
2021-04-02,0.2455251370561889
2021-04-06,0.5990642781773508
2021-04-07,0.7620257254031914
2021-04-08,0.8600071792431171
2021-04-09,0.8564574186867498
2021-04-12,0.6235229980712788
2021-04-13,0.11919504643963624
2021-04-14,0.05357142857142908
2021-04-15,0.061797752808989435
2021-04-16,0.0
2021-04-19,0.0
2021-04-20,0.2707423580786025
2021-04-21,0.3750000000000048
2021-04-22,0.4627659574468105
2021-04-23,0.4619469026548687
2021-04-26,0.8392434988179691
2021-04-27,0.7042682926829397
2021-04-28,0.6608391608391698
2021-04-29,0.8210814297648209
2021-04-30,0.9571978662487935
2021-05-06,0.9808421964749653
2021-05-07,1.0
2021-05-10,1.0
2021-05-11,0.8098607681163196
2021-05-12,0.7040283470560099
2021-05-13,0.16218640121468705
2021-05-14,0.07283790801038782
2021-05-17,0.05325914149443585
2021-05-18,0.06530214424951314
2021-05-19,0.07258938244853787
2021-05-20,0.16222760290557164
2021-05-21,0.3842592592592609
2021-05-24,0.5483870967741958
2021-05-25,0.7145110410094664
2021-05-26,0.8096000000000011
2021-05-27,0.5925058548009338
2021-05-28,0.7574912891986054
2021-05-31,0.7138157894736835
2021-06-01,0.7149877149877144
2021-06-02,0.7095158597662781
2021-06-03,1.0
2021-06-04,0.28557013118062546
2021-06-07,0.20086705202312127
2021-06-08,0.09482758620689583
2021-06-09,0.16869671132764488
2021-06-10,0.0970988750740063
2021-06-11,0.3185988323602957
2021-06-15,0.6981268011527377
2021-06-16,0.8738170347003195
2021-06-17,0.861062484151393
2021-06-18,1.0
2021-06-21,0.8430506856611446
2021-06-22,0.4311653455112693
2021-06-23,0.507460752668982
2021-06-24,0.41676158224585563
2021-06-25,0.23780471521613794
2021-06-28,0.31559201112814594
2021-06-29,0.40031980107317466
2021-06-30,0.06925880923450828
2021-07-01,0.20743919885551013
2021-07-02,0.23731587561375364
2021-07-05,0.14991482112436635
2021-07-06,0.3850687622789861
2021-07-07,0.6599326599326871
2021-07-08,0.3312883435582959
2021-07-09,0.6630196936542799
2021-07-12,0.523316062176168
2021-07-13,0.4782608695652168
2021-07-14,0.36142857142856366
2021-07-15,0.52924393723251
2021-07-16,0.8100172711571607
2021-07-19,0.9095607235142076
2021-07-20,0.9116607773851549
2021-07-21,1.0
2021-07-22,0.9071490845684412
2021-07-23,0.4473601842519911
2021-07-26,0.2996972371687574
2021-07-27,0.3114862251992774
2021-07-28,0.08040286929312652
2021-07-29,0.28580861874930896
2021-07-30,0.3613166794543387
2021-08-02,0.3772394640566194
2021-08-03,0.3000109032913224
2021-08-04,0.4561903367421791
2021-08-05,0.09363295880149307
2021-08-06,0.14970059880238737
2021-08-09,0.12417218543045866
2021-08-10,0.4066339066339071
2021-08-11,0.3386243386243414
2021-08-12,0.570666666666674
2021-08-13,0.7961630695443682
2021-08-16,0.9158620689655183
2021-08-17,0.6044444444444439
2021-08-18,0.5803698435277415
2021-08-19,0.35757575757575194
2021-08-20,0.48606060606060697
2021-08-23,0.5777777777777766
2021-08-24,0.5268490374873364
2021-08-25,0.6187895212285436
2021-08-26,0.7028397565922949
2021-08-27,0.2910564975837704
2021-08-30,0.30565040467585325
2021-08-31,0.4294733798747384
2021-09-01,0.24432424936239058
2021-09-02,0.2897013307552535
2021-09-03,0.7087408434787876
2021-09-06,0.24628719704079333
2021-09-07,0.12699371622253863
2021-09-08,0.4825777318159709
2021-09-09,0.6137640449438287
2021-09-10,0.7275784753363249
2021-09-13,0.803428571428571
2021-09-14,1.0
2021-09-15,0.8141225337487041
2021-09-16,0.6727053140096517
2021-09-17,0.5111111111111016
2021-09-22,0.8313745528870675
2021-09-23,0.8212351029252385
2021-09-24,0.9419258333074154
2021-09-27,0.9852336641199619
2021-09-28,0.9585354715012969
2021-09-29,0.6717684839524192
2021-09-30,0.6515429499047666
2021-10-08,0.5048124680029143
2021-10-11,0.0
2021-10-12,0.15579799722774942
2021-10-13,0.2993883939109635
2021-10-14,0.42499999999999866
2021-10-15,0.3641975308641975
2021-10-18,0.7113989637305714
2021-10-19,0.6791474654377894
2021-10-20,0.7558088557650169
2021-10-21,0.7106493506493532
2021-10-22,1.0
2021-10-25,0.9499536572504055
2021-10-26,0.690751795487612
2021-10-27,0.13127491056831414
2021-10-28,0.43298204120885536
2021-10-29,0.5216133580428448
2021-11-01,0.5053796441991689
2021-11-02,0.5901060409047165
2021-11-03,0.9199372609492464
2021-11-04,0.36876502938502104
2021-11-05,0.13268937468225603
2021-11-08,0.12276575729068558
2021-11-09,0.05707395498392177
2021-11-10,0.0
2021-11-11,0.3997208003722657
2021-11-12,0.3236623963828187
2021-11-15,0.40297308155885914
2021-11-16,0.4975198412698412
2021-11-17,0.48760330578512356
2021-11-18,0.0625271385149803
2021-11-19,0.1591320072332704
2021-11-22,0.07168458781361729
2021-11-23,0.15519125683059842
2021-11-24,0.23486682808716552
2021-11-25,0.769396813168783
2021-11-26,0.7806884568848539
2021-11-29,0.8042936468305879
2021-11-30,0.5977970004583308
2021-12-01,0.473994690540837
2021-12-02,0.2669175545132366
2021-12-03,0.0
2021-12-06,0.5793651247273447
2021-12-07,0.7382682405347685
2021-12-08,0.7865094957432863
2021-12-09,0.7261185006045949
2021-12-10,0.8334489937543386
2021-12-13,0.2942942942942916
2021-12-14,0.0669014084507009
2021-12-15,0.10974244120940846
2021-12-16,0.3598502573701456
2021-12-17,0.3997332147621162
2021-12-20,0.7083626141953636
2021-12-21,0.9447047797563288
2021-12-22,0.7456382001836545
2021-12-23,0.21531531531531753
2021-12-24,0.16169393647738406
2021-12-27,0.12349413689087378
2021-12-28,0.12502271288552216
2021-12-29,0.1394181547624885
2021-12-30,0.7131937867491493
2021-12-31,0.48903632567464994
2022-01-04,0.6174684892972344
2022-01-05,0.7734120658438586
2022-01-06,0.8452788299909475
2022-01-07,0.8145050741599634
2022-01-10,1.0
2022-01-11,0.7023945267958932
2022-01-12,0.8398773006134955
2022-01-13,0.8699551569506718
2022-01-14,0.8543046357615861
2022-01-17,0.8659793814432958
2022-01-18,0.9902075989032489
2022-01-19,0.4489012905476092
2022-01-20,0.6025157232704392
2022-01-21,0.6481104322244854
2022-01-24,0.6608505997818979
2022-01-25,0.6046382334713688
2022-01-26,1.0
2022-01-27,0.45989572434312764
2022-01-28,0.4010334846789187
2022-02-07,0.2457541507479363
2022-02-08,0.17256112887268352
2022-02-09,0.19913852763387363
2022-02-10,0.4377194469227936
2022-02-11,0.21530768736590725
2022-02-14,0.1958441558441535
2022-02-15,0.5857471264367765
2022-02-16,0.4106122448979564
2022-02-17,0.3063524590163916
2022-02-18,0.3948138854035979
2022-02-21,0.44739336492891363
2022-02-22,0.021490626428901795
2022-02-23,0.028076463560339448
2022-02-24,0.136188629702166
2022-02-25,0.34181924766078886
2022-02-28,0.46286512046291645
2022-03-01,0.8570706527788631
2022-03-02,0.8972280324755056
2022-03-03,0.8943045173183546
2022-03-04,0.44464366077132583
2022-03-07,0.6587364469544381
2022-03-08,0.9085035939798556
2022-03-09,0.9442219106749449
2022-03-10,0.9553900368412622
2022-03-11,1.0
2022-03-14,0.956357712423904
2022-03-15,0.6514694800301426
2022-03-16,0.2951339194438761
2022-03-17,0.031363589157752635
2022-03-18,0.06261306532663287
2022-03-21,0.0637601064374166
2022-03-22,0.0834896810506564
2022-03-23,0.12906567226020282
2022-03-24,0.49356959131180406
2022-03-25,0.39952558454761283
2022-03-28,0.40725388601036494
2022-03-29,0.5935672514619905
2022-03-30,0.821498371335507
2022-03-31,0.09911616161616194
2022-04-01,0.03625110521662104
2022-04-06,0.03677130044842894
2022-04-07,0.16905222437137388
2022-04-08,0.26564102564102576
2022-04-11,0.40766002098635845
2022-04-12,0.49208359721342426
2022-04-13,0.6167008898015048
2022-04-14,0.4278481012658205
2022-04-15,0.07838179519595569
2022-04-18,0.1725000000000005
2022-04-19,0.5022172949002227
2022-04-20,0.4499424626006913
2022-04-21,0.39041437843235316
2022-04-22,0.6472000000000018
2022-04-25,0.7183908045977032
2022-04-26,0.6993865030674855
2022-04-27,0.75714477939001
2022-04-28,1.0
2022-04-29,1.0
2022-05-05,0.6932303998216539
2022-05-06,0.3695858965183438
2022-05-09,0.5560084406083485
2022-05-10,0.5455442898602949
2022-05-11,0.5867188723055529
2022-05-12,0.8238427600536182
2022-05-13,1.0
2022-05-16,0.8085714285714275
2022-05-17,0.7767707284323598
2022-05-18,0.7436391673091755
2022-05-19,0.1940726577437874
2022-05-20,0.07645525629887148
2022-05-23,0.0800363801728071
2022-05-24,0.07903008531657031
2022-05-25,0.0
2022-05-26,0.30506868782567476
2022-05-27,0.49951267056530146
2022-05-30,0.823753187575769
2022-05-31,0.774648717865329
2022-06-01,0.8995622329792664
2022-06-02,0.5404852616936143
2022-06-06,0.5991514356364196
2022-06-07,0.24680469995055665
2022-06-08,0.4589963818666529
2022-06-09,0.40877782554905223
2022-06-10,0.561978624542408
2022-06-13,0.3398989898989907
2022-06-14,0.536472148541115
2022-06-15,0.1989351403678641
2022-06-16,0.4721583064887278
2022-06-17,0.5833636033418097
2022-06-20,0.8681375064135465
2022-06-21,0.8118925100057196
2022-06-22,0.9545741324921145
2022-06-23,0.7728055077452671
2022-06-24,0.7050279329608933
2022-06-27,0.874703369719981
2022-06-28,0.9138988062896839
2022-06-29,0.9212186758433576
2022-06-30,1.0
2022-07-01,0.8382886871302307
2022-07-04,0.23346680017399582
2022-07-05,0.15242872831734125
2022-07-06,0.016543805340406708
2022-07-07,0.065092256741839
2022-07-08,0.07368674150497177
2022-07-11,0.2516619183285804
2022-07-12,0.3346980552712344
2022-07-13,0.5440931780366063
2022-07-14,0.20505992010652427
2022-07-15,0.16923076923076913
2022-07-18,0.4004758128469521
2022-07-19,0.4349775784753389
2022-07-20,0.45291828793774364
2022-07-21,0.5043327556325823
2022-07-22,0.36520207843101293
2022-07-25,0.08216012504681283
2022-07-26,0.0
2022-07-27,0.02658349417942479
2022-07-28,0.16346504527518382
2022-07-29,0.3797352377214537
2022-08-01,0.6774449806328487
2022-08-02,1.0
2022-08-03,0.7491814266826445
2022-08-04,0.4934971098265852
2022-08-05,0.3596268023748926
2022-08-08,0.11178247734138966
2022-08-09,0.0
2022-08-10,0.0
2022-08-11,0.1678200692041549
2022-08-12,0.16139767054908685
2022-08-15,0.38645111624326683
2022-08-16,0.7750642673521854
2022-08-17,0.7238895558223241
2022-08-18,0.304093567251454
2022-08-19,0.24801271860094848
2022-08-22,0.09582542694496458
2022-08-23,0.0
2022-08-24,0.0
2022-08-25,0.11929034577684232
2022-08-26,0.39007205920224847
2022-08-29,0.6844090977559822
2022-08-30,0.9435304173178748
2022-08-31,1.0
2022-09-01,1.0
2022-09-02,1.0
2022-09-05,0.7845776902131141
2022-09-06,0.7470141150922892
2022-09-07,0.7543489720611476
2022-09-08,0.3392857142857144
2022-09-09,0.07414104882459274
2022-09-13,0.08436213991769509
2022-09-14,0.3008042895442368
2022-09-15,0.28820960698690123
2022-09-16,0.38483965014577465
2022-09-19,0.6045411542100315
2022-09-20,0.7107897664071233
2022-09-21,0.3145539906103338
2022-09-22,0.25383304940375667
2022-09-23,0.3819951338199564
2022-09-26,0.5643224699828517
2022-09-27,0.7971759051252354
2022-09-28,0.8363810299460421
2022-09-29,0.635810213485739
2022-09-30,0.6850985435178054
2022-10-10,0.42626673135752036
2022-10-11,0.12228479580976072
2022-10-12,0.11712330511054361
2022-10-13,0.14762980811947626
2022-10-14,0.10077397932106753
2022-10-17,0.11912225705329417
2022-10-18,0.31659017843742726
2022-10-19,0.648128765556966
2022-10-20,0.44864604930391533
2022-10-21,0.4888881627775566
2022-10-24,0.7589288292263101
2022-10-25,0.7278402388206643
2022-10-26,0.6165090109790757
2022-10-27,0.8719260177722763
2022-10-28,0.8412616801748607
2022-10-31,0.3481481481481707
2022-11-01,0.6727642276422845
2022-11-02,0.7027600849256965
2022-11-03,0.7913561847988078
2022-11-04,0.5273522975929967
2022-11-07,0.6914285714285722
2022-11-08,0.4856007944389251
2022-11-09,0.5070993914807277
2022-11-10,0.29344073647871344
2022-11-11,0.8008658008658001
2022-11-14,0.7178961748633864
2022-11-15,0.8682310469314083
2022-11-16,0.8707964601769912
2022-11-17,0.9541099344427628
2022-11-18,0.4331469242501275
2022-11-21,0.5144618302513039
2022-11-22,0.3295292439372317
2022-11-23,0.324065196548419
2022-11-24,0.14916810097532976
2022-11-25,0.26438155188509954
2022-11-28,0.02396651862970311
2022-11-29,0.03466376352342349
2022-11-30,0.0
2022-12-01,0.0
2022-12-02,0.1168765715259277
2022-12-05,0.7287399067216568
2022-12-06,0.760123323977494
2022-12-07,0.8510265677815537
2022-12-08,0.9757812500000016
2022-12-09,0.9760247486465599
2022-12-12,0.6185682326621919
2022-12-13,0.6538071065989816
2022-12-14,0.21916411824667922
2022-12-15,0.19457013574659837
2022-12-16,0.3008641005498786
2022-12-19,0.37549019607842854
2022-12-20,0.3493360572012272
2022-12-21,0.6608000000000009
2022-12-22,0.8994708994709032
2022-12-23,0.4519774011299541
2022-12-26,0.2898540595330923
2022-12-27,0.5233731156469049
2022-12-28,0.5209397267763871
2022-12-29,0.4568665431264886
2022-12-30,0.5816315268240636
2023-01-03,0.9181025633446407
2023-01-04,0.2349525498597222
2023-01-05,0.13586834069475304
2023-01-06,0.5296356830006924
2023-01-09,0.45638629283489307
2023-01-10,0.43800322061191777
2023-01-11,0.7840073529411778
2023-01-12,0.7949673811742707
2023-01-13,0.46185852981968717
2023-01-16,0.7445887445887398
2023-01-17,0.7515789473684161
2023-01-18,0.387860423535829
2023-01-19,0.650978713687008
2023-01-20,0.7849404513360635
2023-01-30,0.7548388193607778
2023-01-31,0.7336373350626205
2023-02-01,0.9800741814772445
2023-02-02,0.8917594109647388
2023-02-03,0.4753429225496363
2023-02-06,0.5705807236086042
2023-02-07,0.5077625570776256
2023-02-08,0.429025423728815
2023-02-09,0.3552631578947386
2023-02-10,0.4411764705882402
2023-02-13,0.08040593286495148
2023-02-14,0.24076809453471287
2023-02-15,0.16159420289855042
2023-02-16,0.163850110213078
2023-02-17,0.15315934065933928
2023-02-20,0.39766702014845917
2023-02-21,0.20052770448548793
2023-02-22,0.17736289381563417
2023-02-23,0.245954692556632
2023-02-24,0.5477386934673305
2023-02-27,0.4628611803672593
2023-02-28,0.35888526558891615
2023-03-01,0.6840611573358422
2023-03-02,0.7919422343510424
2023-03-03,0.652453020856391
2023-03-06,0.4973473531398114
2023-03-07,0.5274531250574632
2023-03-08,0.2796326988843295
2023-03-09,0.0
2023-03-10,0.18869492934331045
2023-03-13,0.25546058879392297
2023-03-14,0.4467005076142119
2023-03-15,0.6285046728971979
2023-03-16,1.0
2023-03-17,0.8834285714285742
2023-03-20,0.8158482142857182
2023-03-21,0.6361185983827536
2023-03-22,0.6845794392523369
2023-03-23,0.13948256467941217
2023-03-24,0.49195402298850405
2023-03-27,0.5249406175771951
2023-03-28,0.5295527156549481
2023-03-29,0.4533239847163263
2023-03-30,0.7936891180696527
2023-03-31,0.07882047243846114
2023-04-03,0.05486788873182875
2023-04-04,0.23924819599596966
2023-04-06,0.43087863386508185
2023-04-07,0.36191555531410813
2023-04-10,0.724832510568762
2023-04-11,0.76784211082838
2023-04-12,0.49884526558891606
2023-04-13,0.08795811518324902
2023-04-14,0.295431472081219
2023-04-17,0.7140502678203541
2023-04-18,0.7826227390180875
2023-04-19,0.8738452655889146
2023-04-20,1.0
2023-04-21,1.0
2023-04-24,0.6073943248598742
2023-04-25,0.4297375442530704
2023-04-26,0.2898734820574474
2023-04-27,0.15999172170026166
2023-04-28,0.0
2023-05-04,0.18672626792019426
2023-05-05,0.49739490740954817
2023-05-08,0.48231461822903704
2023-05-09,0.5769369364025543
2023-05-10,0.580491673275173
2023-05-11,0.3584905660377339
2023-05-12,0.14105263157894318
2023-05-15,0.3521126760563364
2023-05-16,0.2117930204572806
2023-05-17,0.385826771653548
2023-05-18,0.5257510729613779
2023-05-19,0.3154362416107458
2023-05-22,0.33333333333333864
2023-05-23,0.3576437587657854
2023-05-24,0.34571428571429397
2023-05-25,0.5132784352184615
2023-05-26,0.6266565129535296
2023-05-29,0.5969344230268325
2023-05-30,0.6929240725564018
2023-05-31,0.5434608204172326
2023-06-01,0.38984432182141376
2023-06-02,0.588313482957261
2023-06-05,0.11945628444619115
2023-06-06,0.009552110985647472
2023-06-07,0.009153318077802544
2023-06-08,0.0077821011673145975
2023-06-09,0.2543859649122819
2023-06-12,0.41971383147853636
2023-06-13,0.6096997690531168
2023-06-14,0.7706214689265511
2023-06-15,0.9933847850055137
2023-06-16,0.6206509539842855
2023-06-19,0.3873312564901339
2023-06-20,0.3929313929313909
2023-06-21,0.24498288466307339
2023-06-26,0.00673968502292149
2023-06-27,0.011924683399847279
2023-06-28,0.014677080658156816
2023-06-29,0.281675571755395
2023-06-30,0.7524698609564483
2023-07-03,0.8439842487421844
2023-07-04,0.7865900847641998
2023-07-05,0.9156114847498497
2023-07-06,0.9445740956826151
2023-07-07,0.6309167165967642
2023-07-10,0.48844672657252924
2023-07-11,0.5488431876606669
2023-07-12,0.5345167652859965
2023-07-13,0.08288770053475752
2023-07-14,0.22085889570552603
2023-07-17,0.4759615384615417
2023-07-18,0.3578947368421109
2023-07-19,0.34576271186441093
2023-07-20,0.821917808219182
2023-07-21,0.8375000000000011
2023-07-24,0.3074324324324318
2023-07-25,0.41696308858518244
2023-07-26,0.4205825553764574
2023-07-27,0.4380698159345939
2023-07-28,0.34349139904038783
2023-07-31,0.547031573843438
2023-08-01,0.8076769761558691
2023-08-02,0.7399980490898872
2023-08-03,0.6553733810134066
2023-08-04,0.5848019746322551
2023-08-07,0.7027600849256836
2023-08-08,0.07855822550831724
2023-08-09,0.08620689655172407
2023-08-10,0.06604506604506606
2023-08-11,0.07030603804797383
2023-08-14,0.014899211218233645
2023-08-15,0.15560165975104914
2023-08-16,0.243445692883903
2023-08-17,0.37790697674419976
2023-08-18,0.29017857142857817
2023-08-21,0.23890063424947258
2023-08-22,0.3333647814225843
2023-08-23,0.24855449128425783
2023-08-24,0.23905478385460763
2023-08-25,0.393800832406276
2023-08-28,0.7791111149546531
2023-08-29,0.6053747368333927
2023-08-30,0.6319071438637922
2023-08-31,0.7991608473248585
2023-09-01,0.8245645811165865
2023-09-04,0.32484725050916163
2023-09-05,0.5981308411214938
2023-09-06,0.5313001605136441
2023-09-07,0.5301689460981519
2023-09-08,0.45191409897292395
2023-09-11,0.7934426229508201
2023-09-12,0.18032786885246568
2023-09-13,0.319277108433739
2023-09-14,0.1525000000000043
2023-09-15,0.10234899328859544
2023-09-18,0.31093544137022666
2023-09-19,0.6090373280943102
2023-09-20,0.7128427128427199
2023-09-21,0.7281420765027365
2023-09-22,1.0
2023-09-25,0.9004688605344118
2023-09-26,0.7498303161623722
2023-09-27,0.48961069562327364
2023-09-28,0.17724536529276644
2023-10-09,0.2509937403297704
2023-10-10,0.2903209118227932
2023-10-11,0.3188770495819045
2023-10-12,0.19033857560001333
2023-10-13,0.3165467625899153
2023-10-16,0.2766497461928942
2023-10-17,0.12500000000000397
2023-10-18,0.2076124567474079
2023-10-19,0.26905829596412983
2023-10-20,0.30142857142857543
2023-10-23,0.13407821229050332
2023-10-24,0.2526315789473688
2023-10-25,0.07400027922695948
2023-10-26,0.17502138178422655
2023-10-27,0.2547260623799675
2023-10-30,0.4064298510478756
2023-10-31,0.7019733513447298
2023-11-01,0.958781390484209
2023-11-02,0.9457114278569692
2023-11-03,0.9405861102017284
2023-11-06,0.9878713836604789
2023-11-07,0.6115606936416178
2023-11-08,0.10084033613445101
2023-11-09,0.09661835748792012
2023-11-10,0.05412719891745217
2023-11-13,0.5139082058414473
2023-11-14,0.7280000000000009
2023-11-15,0.6713615023474168
2023-11-16,0.6633532140490344
2023-11-17,0.7217015140591174
2023-11-20,0.24147465437787788
2023-11-21,0.0
2023-11-22,0.1945938527454061
2023-11-23,0.49909186034522673
2023-11-24,0.561004381744471
2023-11-27,0.8186406130622026
2023-11-28,1.0
2023-11-29,0.9484119920960908
2023-11-30,0.6090875255481606
2023-12-01,0.6424036426624249
2023-12-04,0.541888297872343
2023-12-05,0.21389961389961523
2023-12-06,0.4630152456239397
2023-12-07,0.6278906797477215
2023-12-08,0.4359154929577443
2023-12-11,0.4828393135725393
2023-12-12,0.5742115027829283
2023-12-13,0.0788381742738591
2023-12-14,0.0
2023-12-15,0.039073806078152945
2023-12-18,0.03896103896104466
2023-12-19,0.13022508038585598
2023-12-20,0.26484607931410514
2023-12-21,0.3048569036096567
2023-12-22,0.4967162357767445
2023-12-25,0.6685711397173796
2023-12-26,0.30903521816141866
2023-12-27,0.5945620909343433
2023-12-28,0.6532955719493321
2023-12-29,0.3862826221514296
2024-01-02,0.35234327219194367
2024-01-03,0.5215782983970438
2024-01-04,0.19598583234947178
2024-01-05,0.06929347826087533
2024-01-08,0.30946882217091004
2024-01-09,0.27180527383368214
2024-01-10,0.1896162528216752
2024-01-11,0.7370517928286917
2024-01-12,0.39445628997867577
2024-01-15,0.5052264808362342
2024-01-16,0.5197132616487415
2024-01-17,0.6771084337349366
2024-01-18,0.5197294250281821
2024-01-19,0.7350649350649346
2024-01-22,0.4713216957605963
2024-01-23,0.6664951428087935
2024-01-24,0.4535346359339631
2024-01-25,0.5249866479747672
2024-01-26,0.531412706784267
2024-01-29,0.6867903421588478
2024-01-30,0.21260454197622014
2024-01-31,0.2933940647265305
2024-02-01,0.5190856601348094
2024-02-02,0.31112218338451086
2024-02-05,0.5078534031413595
2024-02-06,0.6129541864139108
2024-02-07,0.61980830670928
2024-02-08,0.689295039164503
2024-02-19,0.8702531645569713
2024-02-20,0.643157894736843
2024-02-21,0.6966932725199474
2024-02-22,0.7589576547231192
2024-02-23,0.4178033250060413
2024-02-26,0.09484550871652615
2024-02-27,0.1850241044885602
2024-02-28,0.25564365074106365
2024-02-29,0.22348150076046347
2024-03-01,0.2769808052120931
2024-03-04,0.5204982037573583
2024-03-05,0.38813227314491355
2024-03-06,0.14884465464320173
2024-03-07,0.00967741935483817
2024-03-08,0.01898734177215107
2024-03-11,0.2727272727272649
2024-03-12,0.30810810810810857
2024-03-13,0.8068181818181952
2024-03-14,0.94940476190477
2024-03-15,0.9848197343453559
2024-03-18,0.9890773023398405
2024-03-19,1.0
2024-03-20,0.9838914293468967
2024-03-21,0.9805397728581079
2024-03-22,0.9776953321077422
2024-03-25,0.6097930785861855
2024-03-26,0.16903371002556095
2024-03-27,0.16809399026694033
2024-03-28,0.07115842719521594
2024-03-29,0.16789516789516645
2024-04-01,0.29436325678496783
2024-04-02,0.3460122699386509
2024-04-03,0.382566585956418
2024-04-08,0.8618556701030966
2024-04-09,0.6108422071636047
2024-04-10,0.7654609101516942
2024-04-11,0.8805704099821751
2024-04-12,0.9156723347982685
2024-04-15,0.9119139761289462
2024-04-16,1.0
2024-04-17,0.8004585646082855
2024-04-18,0.7438282000479788
2024-04-19,0.5066655308865728
2024-04-22,0.438903109115266
2024-04-23,0.6257978610999952
2024-04-24,0.8979906090122048
2024-04-25,0.8153618906942388
2024-04-26,0.8159645232815946
2024-04-29,0.6411949685534571
2024-04-30,0.20886075949366997
2024-05-06,0.0
2024-05-07,0.004226267880364892
2024-05-08,0.004484304932736266
2024-05-09,0.005152596115736203
2024-05-10,0.19911111111111152
2024-05-13,0.6038882138517624
2024-05-14,0.7000919963201473
2024-05-15,0.7641342756183729
2024-05-16,1.0
2024-05-17,0.8354430379746826
2024-05-20,0.8721064814814811
2024-05-21,0.8603916614024001
2024-05-22,0.8561454457160268
2024-05-23,0.7433331932218042
2024-05-24,0.8873480667851311
2024-05-27,0.13742481058998313
2024-05-28,0.0378062613355416
2024-05-29,0.0
2024-05-30,0.0
2024-05-31,0.0
2024-06-03,0.5492379663483525
2024-06-04,0.525704809286898
2024-06-05,0.6757225433526006
2024-06-06,0.6360174102285083
2024-06-07,0.7424581005586594
2024-06-11,0.2150170648464167
2024-06-12,0.4908732116428221
2024-06-13,0.43452054794520734
2024-06-14,0.43357025697102525
2024-06-17,0.3725721012360236
2024-06-18,0.8419354838709726
2024-06-19,0.18383167220377503
2024-06-20,0.29867246210080456
2024-06-21,0.310912104208108
2024-06-24,0.2845774795103919
2024-06-25,0.14483040261283847
2024-06-26,0.6570555389409725
2024-06-27,0.38338778665412576
2024-06-28,0.4747217230373711
2024-07-01,0.4826369397815451
2024-07-02,0.5460899274686069
2024-07-03,0.13328581610833878
2024-07-04,0.20940649496080616
2024-07-05,0.0009940357852881287
2024-07-08,0.31495468277945576
2024-07-09,0.34559884559884435
2024-07-10,0.6164215686274547
2024-07-11,0.6461538461538477
2024-07-12,1.0
2024-07-15,0.6597701149425301
2024-07-16,0.539553752535502
2024-07-17,0.5042345276872978
2024-07-18,0.620638085742772
2024-07-19,0.280261723009814
2024-07-22,0.5624375624375623
2024-07-23,0.716880815241469
2024-07-24,0.7960796468047548
2024-07-25,0.7819777789592324
2024-07-26,1.0
2024-07-29,0.7912280139603309
2024-07-30,0.6386475446567969
2024-07-31,0.5668844915984897
2024-08-01,0.25925148044022706
2024-08-02,0.11817046417883155
2024-08-05,0.23602834696548317
2024-08-06,0.3234304932735431
2024-08-07,0.15182755388940927
2024-08-08,0.2521400778210133
2024-08-09,0.6399560922063676
2024-08-12,0.5259179265658761
2024-08-13,0.45074946466809573
2024-08-14,0.5992882562277605
2024-08-15,0.6960667461263407
2024-08-16,0.20659062103928885
2024-08-19,0.30546190155090946
2024-08-20,0.3085831062670287
2024-08-21,0.35185185185184853
2024-08-22,0.11738981012904665
2024-08-23,0.18293399829209708
2024-08-26,0.12904714338022008
2024-08-27,0.14842857363167924
2024-08-28,0.09928505605421463
2024-08-29,0.14364623207175548
2024-08-30,0.3883303964955216
2024-09-02,0.5093099025149501
2024-09-03,0.44296698394335826
2024-09-04,0.8264150943396237
2024-09-05,0.8503521126760534
2024-09-06,0.8975903614457823
2024-09-09,0.7556675062972247
2024-09-10,0.8544726301735613
2024-09-11,0.8067375886524757
2024-09-12,0.7947269303201461
2024-09-13,0.27505330490404817
2024-09-18,0.2539370078740148
2024-09-19,0.5683371298405474
2024-09-20,0.39182915506035515
2024-09-23,0.3528399311531887
2024-09-24,0.4293193717277523
2024-09-25,0.6272300469483599
2024-09-26,0.3363536673522985
2024-09-27,0.5832100865463049
2024-09-30,0.8592521334332723
2024-10-08,0.8967888259786081
2024-10-09,0.5629068910763695
2024-10-10,0.5250689391541273
2024-10-11,0.44608540779207373
2024-10-14,0.1110853842164537
2024-10-15,0.0
2024-10-16,0.0747663551401876
2024-10-17,0.33163265306122397
2024-10-18,0.38393731635651274
2024-10-21,0.48574969021065856
2024-10-22,0.8811973807296569
2024-10-23,0.7918124977478762
2024-10-24,0.5185572411800901
2024-10-25,0.46928074301052347
2024-10-28,0.46665367535903274
2024-10-29,0.0
2024-10-30,0.03897854121144889
2024-10-31,0.13645678113602405
2024-11-01,0.34424397132167056
2024-11-04,0.5975581264702142
2024-11-05,0.6851612903225748
2024-11-06,0.7255343082114708
2024-11-07,0.7088305489260123
2024-11-08,0.5301353013530147
2024-11-11,0.2117962466488028
2024-11-12,0.6095346197502907
2024-11-13,0.6704980842911916
2024-11-14,0.7248000000000036
2024-11-15,0.8406805877803588
2024-11-18,1.0
2024-11-19,0.8920686835650051
2024-11-20,0.5324138152131095
2024-11-21,0.32238092359041925
2024-11-22,0.23228210839712488
2024-11-25,0.0
2024-11-26,0.0
2024-11-27,0.4063671561225136
2024-11-28,0.6011377596919033
2024-11-29,0.7281106548513606
2024-12-02,0.9198969920508266
2024-12-03,1.0
2024-12-04,0.4750000000000043
2024-12-05,0.437081161578562
2024-12-06,0.09073107049608808
2024-12-09,0.058823529411768695
2024-12-10,0.01667778519012969
2024-12-11,0.037533512064347616
2024-12-12,0.003994673768308917
2024-12-13,0.44499999999999723
2024-12-16,0.8661087866108839
2024-12-17,0.4589800443459005
2024-12-18,0.4180327868852463
2024-12-19,0.7386831275720136
2024-12-20,0.7410805300713523
2024-12-23,0.6195320447609327
2024-12-24,0.8092215260714356
2024-12-25,0.8635328636633243
2024-12-26,0.22768830973870932
2024-12-27,0.14769151529144928
2024-12-30,0.3230283365591586
2024-12-31,0.35021609397468534
