date,FCT_Demark_Atr_Dfive
2013-10-09,
2013-10-10,
2013-10-11,
2013-10-14,
2013-10-15,
2013-10-16,
2013-10-17,
2013-10-18,
2013-10-21,
2013-10-22,0.017699115044247725
2013-10-23,0.035087719298245494
2013-10-24,0.08000000000000007
2013-10-25,0.4222222222222223
2013-10-28,0.723404255319149
2013-10-29,0.8823529411764706
2013-10-30,1.0
2013-10-31,0.9130434782608695
2013-11-01,0.911504424778761
2013-11-04,0.4601769911504426
2013-11-05,0.49166666666666653
2013-11-06,0.21599999999999994
2013-11-07,0.29599999999999993
2013-11-08,0.17391304347826078
2013-11-11,0.23762376237623753
2013-11-12,0.09900990099009903
2013-11-13,0.1692307692307692
2013-11-14,0.015624999999999948
2013-11-15,0.0975609756097562
2013-11-18,0.28125000000000017
2013-11-19,0.5263157894736841
2013-11-20,0.5263157894736841
2013-11-21,0.5882352941176473
2013-11-22,0.5624999999999999
2013-11-25,0.5624999999999999
2013-11-26,0.8292682926829269
2013-11-27,0.8627450980392157
2013-11-28,1.0
2013-11-29,0.9259259259259258
2013-12-02,0.7627118644067796
2013-12-03,0.37254901960784326
2013-12-04,0.1632653061224491
2013-12-05,0.0
2013-12-06,0.31034482758620696
2013-12-09,0.5384615384615384
2013-12-10,0.564516129032258
2013-12-11,0.6034482758620688
2013-12-12,0.6774193548387097
2013-12-13,0.6153846153846153
2013-12-16,0.3409090909090909
2013-12-17,0.5757575757575757
2013-12-18,0.689655172413793
2013-12-19,0.38235294117647045
2013-12-20,0.09803921568627452
2013-12-23,0.0925925925925926
2013-12-24,0.016949152542372826
2013-12-25,0.04918032786885244
2013-12-26,0.3866666666666667
2013-12-27,0.676923076923077
2013-12-30,0.8363636363636364
2013-12-31,1.0
2014-01-02,1.0
2014-01-03,0.5581395348837209
2014-01-06,0.23076923076923048
2014-01-07,0.30232558139534893
2014-01-08,0.45454545454545453
2014-01-09,0.5238095238095238
2014-01-10,0.7799999999999998
2014-01-13,0.9750000000000001
2014-01-14,0.9722222222222223
2014-01-15,0.7272727272727273
2014-01-16,0.903225806451613
2014-01-17,0.8064516129032256
2014-01-20,0.8253968253968252
2014-01-21,0.7352941176470587
2014-01-22,0.641025641025641
2014-01-23,0.02061855670103121
2014-01-24,0.02020202020202048
2014-01-27,0.0
2014-01-28,0.0
2014-01-29,0.08791208791208797
2014-01-30,0.7419354838709676
2014-02-07,0.8688524590163934
2014-02-10,0.9552238805970148
2014-02-11,1.0
2014-02-12,1.0
2014-02-13,1.0
2014-02-14,1.0
2014-02-17,0.986998111943726
2014-02-18,0.987110946166885
2014-02-19,0.7868316223705751
2014-02-20,0.633904616501736
2014-02-21,0.00801388629025312
2014-02-24,0.007641435445238877
2014-02-25,0.0
2014-02-26,0.15821247133929878
2014-02-27,0.17945062140116755
2014-02-28,0.5308641975308682
2014-03-03,0.6811594202898567
2014-03-04,0.739130434782611
2014-03-05,0.11594202898550432
2014-03-06,0.1355932203389793
2014-03-07,0.2786885245901638
2014-03-10,0.46987951807228684
2014-03-11,0.5217391304347794
2014-03-12,0.9814814814814806
2014-03-13,0.8412698412698384
2014-03-14,0.7586206896551685
2014-03-17,0.3050847457627063
2014-03-18,0.0757575757575719
2014-03-19,0.0
2014-03-20,0.0
2014-03-21,0.0
2014-03-24,0.0
2014-03-25,0.3913043478260952
2014-03-26,0.5625000000000154
2014-03-27,0.5000000000000204
2014-03-28,0.9090909090909145
2014-03-31,0.9850746268656729
2014-04-01,0.9461538461538446
2014-04-02,0.94736842105263
2014-04-03,0.9668874172185405
2014-04-04,0.48076923076923095
2014-04-08,0.16911764705882504
2014-04-09,0.17293233082706994
2014-04-10,0.14084507042253683
2014-04-11,0.0
2014-04-14,0.2840909090909103
2014-04-15,0.3472222222222203
2014-04-16,0.44444444444444176
2014-04-17,0.5540540540540485
2014-04-18,0.7241379310344758
2014-04-21,0.49999999999998906
2014-04-22,0.9473684210526293
2014-04-23,0.3684210526315674
2014-04-24,0.3684210526315598
2014-04-25,0.3999999999999977
2014-04-28,0.19999999999999896
2014-04-29,0.15909090909090803
2014-04-30,0.36585365853657686
2014-05-05,0.2564102564102517
2014-05-06,0.1951219512195013
2014-05-07,0.6470588235294037
2014-05-08,0.805555555555549
2014-05-09,0.5250000000000006
2014-05-12,0.47727272727272946
2014-05-13,0.45652173913043625
2014-05-14,0.12727272727273176
2014-05-15,0.0
2014-05-16,0.09803921568627733
2014-05-19,0.15217391304348224
2014-05-20,0.2142857142857159
2014-05-21,0.6551724137930918
2014-05-22,1.0
2014-05-23,0.7715583066930102
2014-05-26,0.7666791448298869
2014-05-27,0.849129931954501
2014-05-28,0.8306719391451447
2014-05-29,0.808058169375546
2014-05-30,1.0
2014-06-03,0.9587402830376861
2014-06-04,0.360769135751631
2014-06-05,0.05714285714284509
2014-06-06,0.04651162790696686
2014-06-09,0.0
2014-06-10,0.0
2014-06-11,0.08108108108108013
2014-06-12,0.19999999999999743
2014-06-13,0.7894736842105327
2014-06-16,0.8421052631578905
2014-06-17,1.0
2014-06-18,0.7837837837837787
2014-06-19,0.7999999999999963
2014-06-20,0.16216216216215806
2014-06-23,0.26190476190477097
2014-06-24,0.40384615384615824
2014-06-25,0.5208333333333387
2014-06-26,0.46666666666667606
2014-06-27,0.958333333333348
2014-06-30,0.6153846153846079
2014-07-01,0.44444444444444464
2014-07-02,0.5652173913043453
2014-07-03,0.639999999999983
2014-07-04,0.7096774193548278
2014-07-07,1.0
2014-07-08,0.838709677419349
2014-07-09,0.5862068965517188
2014-07-10,0.48275862068965314
2014-07-11,0.1935483870967748
2014-07-14,0.0
2014-07-15,0.0
2014-07-16,0.0
2014-07-17,0.0
2014-07-18,0.0
2014-07-21,0.36363636363639185
2014-07-22,0.6111111111111385
2014-07-23,0.6875000000000356
2014-07-24,0.8947368421052716
2014-07-25,1.0
2014-07-28,0.8823529411764514
2014-07-29,0.8571428571428366
2014-07-30,0.8823529411764549
2014-07-31,0.8181818181818016
2014-08-01,0.7499999999999685
2014-08-04,1.0
2014-08-05,1.0
2014-08-06,1.0
2014-08-07,0.9523809523809453
2014-08-08,0.7083333333333279
2014-08-11,0.5925925925925859
2014-08-12,0.6562499999999988
2014-08-13,0.40000000000000807
2014-08-14,0.4615384615384714
2014-08-15,0.7575757575757643
2014-08-18,0.8333333333333376
2014-08-19,0.7826086956521783
2014-08-20,0.7199999999999893
2014-08-21,0.6399999999999904
2014-08-22,0.12500000000000258
2014-08-25,0.28571428571428953
2014-08-26,0.1250000000000016
2014-08-27,0.13157894736842352
2014-08-28,0.13513513513513722
2014-08-29,0.39393939393939803
2014-09-01,0.22857142857143337
2014-09-02,0.363636363636371
2014-09-03,0.6153846153846192
2014-09-04,0.5925925925926101
2014-09-05,0.6562500000000169
2014-09-09,0.9069767441860573
2014-09-10,0.9583333333333438
2014-09-11,0.9819819819819864
2014-09-12,1.0
2014-09-15,0.8798283261802554
2014-09-16,0.8857169461407725
2014-09-17,0.8487360737610425
2014-09-18,0.5719370155114544
2014-09-19,0.1753101778315871
2014-09-22,0.5919427932838319
2014-09-23,0.4776559950715226
2014-09-24,0.4808330550576868
2014-09-25,0.6641607692370457
2014-09-26,0.6355555555555541
2014-09-29,0.12925170068027142
2014-09-30,0.33103448275862124
2014-10-08,0.6989966555183961
2014-10-09,0.7039473684210545
2014-10-10,0.8264150943396247
2014-10-13,0.8021978021978021
2014-10-14,0.7364341085271322
2014-10-15,0.12133891213389239
2014-10-16,0.01851851851851857
2014-10-17,0.0
2014-10-20,0.0
2014-10-21,0.0
2014-10-22,0.07692307692307504
2014-10-23,0.15873015873015556
2014-10-24,0.1724137931034442
2014-10-27,0.32558139534883174
2014-10-28,0.6071428571428455
2014-10-29,0.2499999999999945
2014-10-30,0.5471698113207507
2014-10-31,0.7719298245614058
2014-11-03,0.7968750000000022
2014-11-04,0.7619047619047676
2014-11-05,0.9672131147541022
2014-11-06,0.5606060606060698
2014-11-07,0.33846153846154214
2014-11-10,0.17460317460317773
2014-11-11,0.15277777777778007
2014-11-12,0.0
2014-11-13,0.34782608695651135
2014-11-14,0.7539682539682494
2014-11-17,0.8990825688073374
2014-11-18,0.9551020408163247
2014-11-19,1.0
2014-11-20,0.9966101694915255
2014-11-21,0.8289962825278818
2014-11-24,0.5520361990950232
2014-11-25,0.41791044776119357
2014-11-26,0.0
2014-11-27,0.02304147465437788
2014-11-28,0.19711538461538347
2014-12-01,0.32544378698224713
2014-12-02,0.31250000000000033
2014-12-03,0.8809523809523825
2014-12-04,0.8831775700934597
2014-12-05,0.9015748031496078
2014-12-08,0.8365758754863826
2014-12-09,0.9386281588447651
2014-12-10,0.6046511627906979
2014-12-11,0.586397058823529
2014-12-12,0.17776869636289291
2014-12-15,0.15403682719546716
2014-12-16,0.0
2014-12-17,0.0
2014-12-18,0.09664545356487966
2014-12-19,0.14101353478124026
2014-12-22,0.18942917547568724
2014-12-23,0.2616058394160586
2014-12-24,0.8445945945945954
2014-12-25,0.8217054263565903
2014-12-26,1.0
2014-12-29,1.0
2014-12-30,1.0
2014-12-31,0.7472527472527475
2015-01-05,0.5718562874251496
2015-01-06,0.6843267108167769
2015-01-07,0.5861244019138748
2015-01-08,0.3606060606060602
2015-01-09,0.5434083601286167
2015-01-12,0.7901234567901231
2015-01-13,0.53515625
2015-01-14,0.698305084745763
2015-01-15,0.7984496124031015
2015-01-16,0.6782608695652188
2015-01-19,0.36898395721925176
2015-01-20,0.37499999999999967
2015-01-21,0.0
2015-01-22,0.0
2015-01-23,0.0
2015-01-26,0.03240740740740682
2015-01-27,0.05847953216374131
2015-01-28,0.09009009009008792
2015-01-29,0.16129032258064144
2015-01-30,0.4444444444444408
2015-02-02,0.18367346938775395
2015-02-03,0.3548387096774206
2015-02-04,0.47540983606557474
2015-02-05,0.6610169491525444
2015-02-06,0.5593220338983065
2015-02-09,0.5076923076923049
2015-02-10,0.2266666666666655
2015-02-11,0.10989010989011004
2015-02-12,0.0
2015-02-13,0.32203389830508683
2015-02-16,0.5304347826086994
2015-02-17,0.7543859649122828
2015-02-25,0.9683544303797476
2015-02-26,1.0
2015-02-27,0.8977272727272714
2015-03-02,0.8953488372093008
2015-03-03,0.9010989010988999
2015-03-04,0.6258064516129028
2015-03-05,0.5639097744360907
2015-03-06,0.7202797202797216
2015-03-09,0.6899224806201572
2015-03-10,0.43200000000000155
2015-03-11,0.5567010309278355
2015-03-12,0.2661290322580645
2015-03-13,0.03623188405797197
2015-03-16,0.0
2015-03-17,0.0
2015-03-18,0.007936507936508897
2015-03-19,0.15384615384615827
2015-03-20,0.24561403508772536
2015-03-23,0.44897959183673647
2015-03-24,0.8545454545454554
2015-03-25,0.8873239436619714
2015-03-26,0.7936507936507904
2015-03-27,0.9411764705882337
2015-03-30,0.7999999999999996
2015-03-31,0.5662650602409618
2015-04-01,0.3333333333333333
2015-04-02,0.5217391304347831
2015-04-03,0.5175438596491239
2015-04-07,0.5784313725490207
2015-04-08,0.7933884297520665
2015-04-09,0.992063492063493
2015-04-10,0.959595959595962
2015-04-13,0.7021276595744692
2015-04-14,0.7522935779816518
2015-04-15,0.4411764705882386
2015-04-16,0.2597402597402618
2015-04-17,0.1941747572815541
2015-04-20,0.35164835164835295
2015-04-21,0.20512820512820568
2015-04-22,0.33333333333332993
2015-04-23,0.35999999999999627
2015-04-24,0.8181818181818008
2015-04-27,0.20689655172413357
2015-04-28,0.14634146341463278
2015-04-29,0.37500000000000044
2015-04-30,0.17647058823529474
2015-05-04,0.1724137931034484
2015-05-05,0.18749999999999972
2015-05-06,0.214285714285713
2015-05-07,0.09836065573770346
2015-05-08,0.642857142857136
2015-05-11,0.7638888888888877
2015-05-12,0.8870967741935517
2015-05-13,0.8461538461538516
2015-05-14,0.5833333333333401
2015-05-15,0.20879120879121468
2015-05-18,0.0
2015-05-19,0.261682242990654
2015-05-20,0.4365079365079365
2015-05-21,0.48245614035087625
2015-05-22,0.7708333333333321
2015-05-25,0.7708333333333321
2015-05-26,0.6388888888888881
2015-05-27,0.31666666666666626
2015-05-28,0.38775510204081576
2015-05-29,0.0
2015-06-01,0.0
2015-06-02,0.0
2015-06-03,0.0
2015-06-04,0.3709517502365196
2015-06-05,0.41820896795938545
2015-06-08,0.33467169234131044
2015-06-09,0.331471236693675
2015-06-10,0.5552175012982186
2015-06-11,0.22618139241172505
2015-06-12,0.41688214238635635
2015-06-15,0.48947822722266904
2015-06-16,0.6792452830188667
2015-06-17,0.47572815533980395
2015-06-18,0.7368421052631575
2015-06-19,0.3478260869565209
2015-06-23,0.39189189189189017
2015-06-24,0.21052631578947836
2015-06-25,0.324324324324331
2015-06-26,0.135135135135138
2015-06-29,0.23809523809523805
2015-06-30,0.7419354838709634
2015-07-01,0.6388888888888824
2015-07-02,0.6749999999999936
2015-07-03,0.7934782608695606
2015-07-06,0.9264705882352923
2015-07-07,0.7272727272727254
2015-07-08,0.8765432098765431
2015-07-09,0.9421965317919074
2015-07-10,0.9402985074626864
2015-07-13,0.8590163934426233
2015-07-14,0.8618421052631589
2015-07-15,0.6896551724137945
2015-07-16,0.027586206896551814
2015-07-17,0.0
2015-07-20,0.0
2015-07-21,0.0
2015-07-22,0.03187250996015923
2015-07-23,0.1499999999999995
2015-07-24,0.33999999999999847
2015-07-27,0.7543859649122786
2015-07-28,1.0
2015-07-29,0.9010989010988983
2015-07-30,0.9081632653061199
2015-07-31,0.7714285714285701
2015-08-03,0.7499999999999987
2015-08-04,0.3424657534246554
2015-08-05,0.3521126760563375
2015-08-06,0.2236842105263151
2015-08-07,0.5510204081632639
2015-08-10,0.3189655172413781
2015-08-11,0.43877551020408156
2015-08-12,0.4479166666666656
2015-08-13,0.5652173913043476
2015-08-14,0.18987341772152275
2015-08-17,0.5166666666666714
2015-08-18,0.3378378378378413
2015-08-19,0.4567901234567938
2015-08-20,0.3888888888888939
2015-08-21,0.6923076923076943
2015-08-24,0.5000000000000034
2015-08-25,0.8842835042686095
2015-08-26,0.8771353482260212
2015-08-27,0.919695897317631
2015-08-28,0.7848563162343153
2015-08-31,0.8265576857240634
2015-09-01,0.6302137675005385
2015-09-02,0.6734309040649623
2015-09-07,0.1957293568675158
2015-09-08,0.19899958745874316
2015-09-09,0.18478260869565044
2015-09-10,0.30526315789473635
2015-09-11,0.10909090909090936
2015-09-14,0.4554455445544559
2015-09-15,0.7236842105263165
2015-09-16,0.7284768211920537
2015-09-17,0.5355191256830615
2015-09-18,0.6624203821656063
2015-09-21,0.4635761589403975
2015-09-22,0.044444444444443384
2015-09-23,0.06976744186046448
2015-09-24,0.10465116279069639
2015-09-25,0.03409090909090972
2015-09-28,0.04109589041095991
2015-09-29,0.290322580645166
2015-09-30,0.17142857142857232
2015-10-08,0.404255319148938
2015-10-09,0.6666666666666687
2015-10-12,0.8679245283018845
2015-10-13,0.6451612903225774
2015-10-14,0.6666666666666666
2015-10-15,0.41538461538461646
2015-10-16,0.09836065573770297
2015-10-19,0.12698412698412584
2015-10-20,0.3333333333333363
2015-10-21,0.6236559139784951
2015-10-22,0.7999999999999988
2015-10-23,1.0
2015-10-26,1.0
2015-10-27,0.9255319148936141
2015-10-28,0.5051546391752558
2015-10-29,0.42391304347826014
2015-10-30,0.02739726027397262
2015-11-02,0.0
2015-11-03,0.0
2015-11-04,0.4615384615384608
2015-11-05,0.5238095238095224
2015-11-06,0.6346153846153846
2015-11-09,0.8139534883720976
2015-11-10,0.6730769230769257
2015-11-11,0.10416666666667171
2015-11-12,0.15686274509804735
2015-11-13,0.1568627450980473
2015-11-16,0.4625000000000031
2015-11-17,0.6632653061224503
2015-11-18,0.9166666666666662
2015-11-19,0.9135802469135795
2015-11-20,1.0
2015-11-23,1.0
2015-11-24,0.7936507936507929
2015-11-25,0.8807339449541284
2015-11-26,0.8982176283877269
2015-11-27,0.8995146879218358
2015-11-30,0.5831946978641195
2015-12-01,0.5731142958851381
2015-12-02,0.20448337448127396
2015-12-03,0.06833706905753
2015-12-04,0.0
2015-12-07,0.11499952772267899
2015-12-08,0.2755550261320134
2015-12-09,0.44705882352940957
2015-12-10,0.6111111111111104
2015-12-11,0.8627450980392112
2015-12-14,0.6744186046511556
2015-12-15,0.26086956521739146
2015-12-16,0.22222222222222385
2015-12-17,0.0
2015-12-18,0.0
2015-12-21,0.0
2015-12-22,0.0
2015-12-23,0.07046484571706443
2015-12-24,0.10702605760101354
2015-12-25,0.10211116982461532
2015-12-28,0.20251542477456183
2015-12-29,0.1908403774766326
2015-12-30,0.011420140975901478
2015-12-31,0.29132718696396986
2016-01-04,0.7827659309140763
2016-01-05,0.7818181818181792
2016-01-06,0.8958333333333351
2016-01-07,0.9122807017543877
2016-01-08,0.9074074074074102
2016-01-11,0.22222222222222768
2016-01-12,0.4814814814814846
2016-01-13,0.5487804878048791
2016-01-14,0.4186046511627917
2016-01-15,0.370786516853931
2016-01-18,0.7031249999999982
2016-01-19,0.2769230769230744
2016-01-20,0.2985074626865668
2016-01-21,0.3818181818181809
2016-01-22,0.626666666666666
2016-01-25,0.4268292682926835
2016-01-26,0.5555555555555572
2016-01-27,0.369863013698631
2016-01-28,0.35135135135135265
2016-01-29,0.0
2016-02-01,0.15686274509803527
2016-02-02,0.26086956521739013
2016-02-03,0.5151515151515148
2016-02-04,0.631578947368421
2016-02-05,1.0
2016-02-15,0.8260869565217392
2016-02-16,0.8620689655172391
2016-02-17,0.8333333333333303
2016-02-18,0.6190476190476069
2016-02-19,0.2777777777777713
2016-02-22,0.3714285714285666
2016-02-23,0.09090909090909291
2016-02-24,0.3478260869565242
2016-02-25,0.43478260869566016
2016-02-26,0.8620689655172458
2016-02-29,0.7833333333333377
2016-03-01,0.929577464788733
2016-03-02,0.9218750000000004
2016-03-03,0.9206349206349203
2016-03-04,0.6222222222222201
2016-03-07,0.8378378378378384
2016-03-08,0.9205298013245038
2016-03-09,0.9220779220779228
2016-03-10,0.9294117647058832
2016-03-11,0.9461077844311386
2016-03-14,0.7798742138364786
2016-03-15,0.1573033707865186
2016-03-16,0.09947643979057617
2016-03-17,0.0
2016-03-18,0.056994818652848646
2016-03-21,0.06586826347305268
2016-03-22,0.26785714285713796
2016-03-23,0.5681818181818165
2016-03-24,1.0
2016-03-25,0.6808510638297858
2016-03-28,0.6808510638297867
2016-03-29,0.6511627906976749
2016-03-30,0.3913043478260878
2016-03-31,3.134441669398275e-15
2016-04-01,4.145551885333228e-15
2016-04-05,0.0
2016-04-06,0.0
2016-04-07,0.0
2016-04-08,0.0
2016-04-11,0.39473684210526055
2016-04-12,0.3386353821793561
2016-04-13,0.6914297480548891
2016-04-14,0.7553746252326751
2016-04-15,0.9051628912190816
2016-04-18,0.849539447336805
2016-04-19,0.9759876766944562
2016-04-20,0.8025596924322145
2016-04-21,0.8935729283123832
2016-04-22,0.9357372190664366
2016-04-25,0.9615384615384611
2016-04-26,0.892857142857142
2016-04-27,0.9337349397590358
2016-04-28,0.7534246575342457
2016-04-29,0.3466666666666669
2016-05-03,0.03496503496503564
2016-05-04,0.03289473684210588
2016-05-05,0.0
2016-05-06,0.031249999999998813
2016-05-09,0.20512820512820354
2016-05-10,0.27272727272727093
2016-05-11,0.4430379746835447
2016-05-12,0.8225806451612917
2016-05-13,0.6764705882352985
2016-05-16,0.5686274509803939
2016-05-17,0.6590909090909111
2016-05-18,0.5833333333333323
2016-05-19,0.46428571428571097
2016-05-20,0.5416666666666645
2016-05-23,0.7708333333333385
2016-05-24,0.8571428571428616
2016-05-25,0.6610169491525458
2016-05-26,0.4133333333333359
2016-05-27,0.4492753623188402
2016-05-30,0.05617977528089834
2016-05-31,0.0
2016-06-01,0.14285714285714324
2016-06-02,0.2499999999999997
2016-06-03,0.21951219512195158
2016-06-06,0.58139534883721
2016-06-07,0.6410256410256391
2016-06-08,0.29268292682926755
2016-06-13,0.325581395348836
2016-06-14,0.5263157894736874
2016-06-15,0.40625000000000444
2016-06-16,0.3823529411764784
2016-06-17,0.7600000000000094
2016-06-20,0.727272727272739
2016-06-21,0.4761904761904733
2016-06-22,0.6551724137930985
2016-06-23,0.8275862068965403
2016-06-24,0.8780487804877957
2016-06-27,0.7804878048780403
2016-06-28,0.9024390243902443
2016-06-29,0.6222222222222226
2016-06-30,0.6964285714285712
2016-07-01,0.403846153846156
2016-07-04,0.6400000000000001
2016-07-05,0.7731092436974786
2016-07-06,0.8923076923076927
2016-07-07,0.8264462809917364
2016-07-08,0.9406779661016953
2016-07-11,0.677419354838711
2016-07-12,0.2941176470588235
2016-07-13,0.09999999999999823
2016-07-14,0.2639999999999998
2016-07-15,0.1718750000000015
2016-07-18,0.4341085271317833
2016-07-19,0.6086956521739143
2016-07-20,0.6086956521739143
2016-07-21,0.4249999999999993
2016-07-22,0.5949367088607574
2016-07-25,0.17105263157894673
2016-07-26,0.18571428571428458
2016-07-27,0.4084507042253517
2016-07-28,0.36708860759493517
2016-07-29,0.4505494505494485
2016-08-01,0.6307692307692246
2016-08-02,0.6406249999999967
2016-08-03,0.4381507630865765
2016-08-04,0.6499746707193529
2016-08-05,0.017611001200019207
2016-08-08,0.2045129758774516
2016-08-09,0.19652028233226612
2016-08-10,0.20293821523277777
2016-08-11,0.18791917699215868
2016-08-12,0.7025564684664012
2016-08-15,0.31563973110931276
2016-08-16,0.30000000000000293
2016-08-17,0.3157894736842127
2016-08-18,0.3750000000000056
2016-08-19,0.16666666666666582
2016-08-22,0.67741935483871
2016-08-23,0.7499999999999946
2016-08-24,0.9166666666666651
2016-08-25,0.9428571428571408
2016-08-26,0.7380952380952354
2016-08-29,0.31914893617021245
2016-08-30,0.34782608695652445
2016-08-31,0.44444444444444403
2016-09-01,0.16666666666666916
2016-09-02,0.18181818181818502
2016-09-05,0.270270270270275
2016-09-06,0.3414634146341453
2016-09-07,0.10869565217391106
2016-09-08,0.32258064516128987
2016-09-09,0.30303030303030304
2016-09-12,0.6491228070175449
2016-09-13,0.542372881355934
2016-09-14,0.734693877551022
2016-09-19,0.6326530612244903
2016-09-20,0.7333333333333325
2016-09-21,0.1363636363636354
2016-09-22,0.3111111111111105
2016-09-23,0.35416666666666546
2016-09-26,0.3695652173913038
2016-09-27,0.4313725490196096
2016-09-28,0.949152542372882
2016-09-29,0.9464285714285722
2016-09-30,0.8518518518518567
2016-10-10,0.9038461538461586
2016-10-11,0.9074074074074113
2016-10-12,0.32608695652173897
2016-10-13,0.18867924528301622
2016-10-14,0.254901960784303
2016-10-17,0.4328358208955147
2016-10-18,0.29411764705881793
2016-10-19,0.40816326530611363
2016-10-20,0.7213114754098328
2016-10-21,0.6612903225806458
2016-10-24,0.36923076923076986
2016-10-25,0.5633802816901409
2016-10-26,0.7272727272727294
2016-10-27,0.47619047619047883
2016-10-28,0.5604395604395631
2016-10-31,0.764705882352943
2016-11-01,0.7297297297297312
2016-11-02,0.600000000000003
2016-11-03,0.9090909090909116
2016-11-04,0.9210526315789482
2016-11-07,0.8749999999999952
2016-11-08,0.6956521739130381
2016-11-09,0.38095238095237316
2016-11-10,0.6406249999999943
2016-11-11,0.5317360157380927
2016-11-14,0.797404829009386
2016-11-15,0.7926567426268099
2016-11-16,0.9527638745767699
2016-11-17,0.770489646377752
2016-11-18,0.6326694371241323
2016-11-21,0.043382751116243755
2016-11-22,0.15750640250578543
2016-11-23,0.3572792969459279
2016-11-24,0.4525547445255478
2016-11-25,0.6293706293706283
2016-11-28,0.9782608695652173
2016-11-29,0.9746835443037973
2016-11-30,0.8085106382978732
2016-12-01,0.8235294117647067
2016-12-02,0.3684210526315791
2016-12-05,0.5111111111111144
2016-12-06,0.38333333333333586
2016-12-07,0.32394366197183216
2016-12-08,0.1451612903225836
2016-12-09,0.40624999999999944
2016-12-12,0.3448275862068903
2016-12-13,0.47727272727271924
2016-12-14,0.724137931034483
2016-12-15,0.44680851063829613
2016-12-16,0.07692307692307149
2016-12-19,0.07692307692307782
2016-12-20,0.2835820895522431
2016-12-21,0.26027397260274177
2016-12-22,0.53030303030303
2016-12-23,0.80851063829787
2016-12-26,0.5737704918032783
2016-12-27,0.7173913043478244
2016-12-28,0.7951807228915663
2016-12-29,0.7874999999999999
2016-12-30,0.6976744186046481
2017-01-03,0.9249999999999979
2017-01-04,0.47407407407407315
2017-01-05,0.46043165467625824
2017-01-06,0.37499999999999994
2017-01-09,0.41984732824427545
2017-01-10,0.028571428571428432
2017-01-11,0.20430107526881716
2017-01-12,0.285714285714286
2017-01-13,0.2718446601941748
2017-01-16,0.2424242424242427
2017-01-17,0.7115384615384607
2017-01-18,0.372881355932202
2017-01-19,0.19117647058823367
2017-01-20,0.518072289156624
2017-01-23,0.46236559139784716
2017-01-24,0.31914893617021206
2017-01-25,0.4166666666666672
2017-01-26,0.6619718309859175
2017-02-03,0.25757575757575907
2017-02-06,0.2982456140350894
2017-02-07,0.3207547169811311
2017-02-08,0.45454545454545475
2017-02-09,0.22413793103448365
2017-02-10,0.5652173913043435
2017-02-13,0.804123711340205
2017-02-14,0.8764044943820224
2017-02-15,0.9059829059829058
2017-02-16,0.9846153846153848
2017-02-17,0.884615384615387
2017-02-20,0.7078651685393254
2017-02-21,0.7623762376237612
2017-02-22,0.32727272727272666
2017-02-23,0.24489795918367008
2017-02-24,0.41904761904761534
2017-02-27,0.372881355932202
2017-02-28,0.2803738317757004
2017-03-01,0.6250000000000009
2017-03-02,0.4320987654321011
2017-03-03,0.16853932584269654
2017-03-06,0.2173913043478257
2017-03-07,0.17045454545454455
2017-03-08,0.2474226804123722
2017-03-09,0.5045871559633006
2017-03-10,0.7045454545454538
2017-03-13,0.7924528301886778
2017-03-14,1.0
2017-03-15,0.8256880733944945
2017-03-16,0.47967479674796865
2017-03-17,0.4529914529914517
2017-03-20,0.28971962616822344
2017-03-21,0.010526315789470863
2017-03-22,0.21052631578947198
2017-03-23,0.5161290322580617
2017-03-24,0.42465753424657404
2017-03-27,0.5454545454545464
2017-03-28,0.8064516129032246
2017-03-29,0.34065934065934134
2017-03-30,0.22093023255814123
2017-03-31,0.285714285714292
2017-04-05,0.4387755102040839
2017-04-06,0.2871287128712908
2017-04-07,0.7272727272727322
2017-04-10,0.8023255813953527
2017-04-11,0.8957055214723942
2017-04-12,0.6593406593406602
2017-04-13,0.7228915662650589
2017-04-14,0.6805555555555535
2017-04-17,0.6760563380281673
2017-04-18,0.11851851851851833
2017-04-19,0.35087719298245523
2017-04-20,0.49305555555555686
2017-04-21,0.34117647058823697
2017-04-24,0.3160919540229894
2017-04-25,0.5288461538461545
2017-04-26,0.3104206635159824
2017-04-27,0.0
2017-04-28,0.18716194718421694
2017-05-02,0.17122689564837687
2017-05-03,0.14741260493672365
2017-05-04,0.5187204278954918
2017-05-05,0.7264272286534077
2017-05-08,0.5932072930196748
2017-05-09,0.6912407980369115
2017-05-10,0.8352941176470582
2017-05-11,0.36956521739130216
2017-05-12,0.1395348837209295
2017-05-15,0.25925925925925886
2017-05-16,0.2500000000000001
2017-05-17,0.14285714285714265
2017-05-18,0.38888888888889034
2017-05-19,0.6666666666666577
2017-05-22,0.17857142857142466
2017-05-23,0.5964912280701741
2017-05-24,0.7258064516129024
2017-05-25,0.7536231884057962
2017-05-26,0.8095238095238102
2017-05-31,1.0
2017-06-01,0.7716535433070858
2017-06-02,0.7190082644628097
2017-06-05,0.6525423728813547
2017-06-06,0.480314960629921
2017-06-07,0.0
2017-06-08,0.0
2017-06-09,0.0
2017-06-12,0.0
2017-06-13,0.0
2017-06-14,0.47368421052632087
2017-06-15,0.5526315789473766
2017-06-16,0.6666666666666702
2017-06-19,0.9354838709677382
2017-06-20,0.6744186046511624
2017-06-21,0.42307692307692135
2017-06-22,0.29629629629628557
2017-06-23,0.14705882352940863
2017-06-26,0.0
2017-06-27,0.0
2017-06-28,0.0
2017-06-29,0.16279069767441878
2017-06-30,0.27777777777777585
2017-07-03,0.31249999999999867
2017-07-04,0.6379310344827551
2017-07-05,0.8979591836734716
2017-07-06,0.7708333333333318
2017-07-07,0.8
2017-07-10,0.89830508474576
2017-07-11,0.846153846153844
2017-07-12,0.8333333333333299
2017-07-13,1.0
2017-07-14,1.0
2017-07-17,1.0
2017-07-18,0.5245901639344216
2017-07-19,0.40579710144927167
2017-07-20,0.39130434782608353
2017-07-21,0.17460317460317107
2017-07-24,0.0
2017-07-25,0.42372881355932296
2017-07-26,0.6271186440677992
2017-07-27,0.6666666666666695
2017-07-28,0.8382352941176522
2017-07-31,1.0
2017-08-01,0.6376811594202897
2017-08-02,0.5762711864406754
2017-08-03,0.5366488933738761
2017-08-04,0.3013403124752097
2017-08-07,0.30431967148384576
2017-08-08,0.6864895000929179
2017-08-09,0.6555001348072335
2017-08-10,0.7286747245124011
2017-08-11,0.9988420565076459
2017-08-14,0.5959509601080695
2017-08-15,0.5903969492113065
2017-08-16,0.5200000000000033
2017-08-17,0.494736842105268
2017-08-18,0.018348623853214906
2017-08-21,0.13414634146341925
2017-08-22,0.21978021978022025
2017-08-23,0.4778761061946889
2017-08-24,0.4608695652173887
2017-08-25,0.9577464788732384
2017-08-28,0.957142857142856
2017-08-29,0.9523809523809511
2017-08-30,0.4193548387096739
2017-08-31,0.5217391304347792
2017-09-01,0.29999999999999644
2017-09-04,0.5420560747663561
2017-09-05,0.47413793103448443
2017-09-06,0.6626506024096422
2017-09-07,0.7021276595744715
2017-09-08,0.8723404255319164
2017-09-11,0.3592233009708751
2017-09-12,0.37373737373737476
2017-09-13,0.4205607476635501
2017-09-14,0.19354838709677344
2017-09-15,0.06956521739130282
2017-09-18,0.18461538461538113
2017-09-19,0.31818181818181573
2017-09-20,0.17808219178082083
2017-09-21,0.5769230769230729
2017-09-22,0.6122448979591778
2017-09-25,0.4482758620689617
2017-09-26,0.2982456140350842
2017-09-27,0.4680851063829767
2017-09-28,0.34210526315789125
2017-09-29,0.3333333333333363
2017-10-09,0.8219178082191811
2017-10-10,0.8571428571428635
2017-10-11,0.8484848484848546
2017-10-12,0.5853658536585417
2017-10-13,0.6153846153846143
2017-10-16,0.018181818181818916
2017-10-17,0.24615384615384836
2017-10-18,0.24615384615384836
2017-10-19,0.4186046511627892
2017-10-20,0.4666666666666722
2017-10-23,0.656250000000002
2017-10-24,0.17142857142857448
2017-10-25,0.4727272727272686
2017-10-26,0.3287671232876704
2017-10-27,0.2692307692307664
2017-10-30,0.4712643678160909
2017-10-31,0.6455696202531661
2017-11-01,0.4225352112676094
2017-11-02,0.661290322580648
2017-11-03,0.7454545454545447
2017-11-06,0.3888888888888871
2017-11-07,0.31249999999999545
2017-11-08,0.30612244897958596
2017-11-09,0.10256410256410092
2017-11-10,0.0888888888888882
2017-11-13,0.1428571428571412
2017-11-14,0.0
2017-11-15,0.7283950617283963
2017-11-16,0.686046511627906
2017-11-17,0.7530864197530825
2017-11-20,0.8392857142857131
2017-11-21,0.9439252336448589
2017-11-22,0.4621714285714273
2017-11-23,0.5010876696246654
2017-11-24,0.5318759466398819
2017-11-27,0.21425537079742352
2017-11-28,0.12895895313477215
2017-11-29,0.22447926619529368
2017-11-30,0.5088171574501082
2017-12-01,0.46681994350654166
2017-12-04,0.46428851430812307
2017-12-05,0.5753424657534311
2017-12-06,0.7922077922077961
2017-12-07,0.8160919540229911
2017-12-08,0.7640449438202287
2017-12-11,0.9404761904761926
2017-12-12,0.935064935064937
2017-12-13,0.8833333333333332
2017-12-14,0.2399999999999945
2017-12-15,0.2432432432432363
2017-12-18,0.08749999999999615
2017-12-19,0.0
2017-12-20,0.0
2017-12-21,0.20987654320987698
2017-12-22,0.20987654320987797
2017-12-25,0.22972972972973177
2017-12-26,0.38297872340426176
2017-12-27,0.611111111111113
2017-12-28,0.1111111111111082
2017-12-29,0.1428571428571468
2018-01-02,0.4901960784313787
2018-01-03,0.4528301886792491
2018-01-04,0.4629629629629722
2018-01-05,0.918918918918918
2018-01-08,0.9249999999999977
2018-01-09,0.5294117647058698
2018-01-10,0.7399999999999936
2018-01-11,0.542372881355924
2018-01-12,0.37096774193547916
2018-01-15,0.5063291139240491
2018-01-16,0.6176470588235304
2018-01-17,0.4035087719298252
2018-01-18,0.5744680851063841
2018-01-19,0.8222222222222221
2018-01-22,0.4848484848484887
2018-01-23,0.4516129032258159
2018-01-24,0.8235294117647083
2018-01-25,0.8815789473684222
2018-01-26,0.8507462686567159
2018-01-29,0.9344262295081971
2018-01-30,0.9384615384615379
2018-01-31,0.47826086956521274
2018-02-01,0.06557377049179432
2018-02-02,0.16417910447760334
2018-02-05,0.18461538461537502
2018-02-06,0.2739726027397261
2018-02-07,0.43478260869565305
2018-02-08,0.8333333333333337
2018-02-09,0.6206896551724157
2018-02-12,0.5483870967741946
2018-02-13,0.13513513513512868
2018-02-14,0.4999999999999944
2018-02-22,0.366666666666665
2018-02-23,0.4385964912280701
2018-02-26,0.43859649122807154
2018-02-27,0.5102040816326586
2018-02-28,0.08571428571429365
2018-03-01,0.36363636363637214
2018-03-02,0.2142857142857154
2018-03-05,0.5081967213114751
2018-03-06,0.6666666666666677
2018-03-07,0.6896551724137907
2018-03-08,0.5166666666666642
2018-03-09,0.7301587301587271
2018-03-12,0.3870967741935491
2018-03-13,0.4411764705882335
2018-03-14,0.44776119402985
2018-03-15,0.4838709677419376
2018-03-16,0.2999999999999999
2018-03-19,0.5882352941176462
2018-03-20,0.16666666666666674
2018-03-21,0.3103448275862032
2018-03-22,0.5483870967741883
2018-03-23,0.7027027027027049
2018-03-26,0.8428571428571444
2018-03-27,0.9218749999999976
2018-03-28,0.9193548387096754
2018-03-29,0.9137931034482734
2018-03-30,0.8979591836734622
2018-04-02,0.1304347826086933
2018-04-03,0.3396226415094324
2018-04-04,0.26666666666666344
2018-04-09,0.22807017543859773
2018-04-10,0.2241379310344858
2018-04-11,0.41935483870968154
2018-04-12,0.028571428571433265
2018-04-13,0.2857142857142929
2018-04-16,0.5192307692307743
2018-04-17,0.45000000000000195
2018-04-18,0.5967741935483885
2018-04-19,0.8085106382978695
2018-04-20,0.833333333333332
2018-04-23,0.44262295081966785
2018-04-24,0.47368421052631005
2018-04-25,0.45454545454545314
2018-04-26,0.42105263157895306
2018-04-27,0.11267605633803074
2018-05-02,0.525
2018-05-03,0.47727272727272724
2018-05-04,0.33999088496286806
2018-05-07,0.3529201200539662
2018-05-08,0.5790877384941516
2018-05-09,0.15123720136518995
2018-05-10,0.24739902686024567
2018-05-11,0.3990229705851844
2018-05-14,0.43675417661098426
2018-05-15,0.2831114225648258
2018-05-16,0.9153187440532805
2018-05-17,0.9166666666666631
2018-05-18,0.9753086419753073
2018-05-21,0.9827586206896541
2018-05-22,1.0
2018-05-23,1.0
2018-05-24,1.0
2018-05-25,0.5642857142857165
2018-05-28,0.31746031746032033
2018-05-29,0.2419354838709694
2018-05-30,0.03703703703703903
2018-05-31,0.09565217391304247
2018-06-01,0.1803278688524558
2018-06-04,0.47916666666666163
2018-06-05,0.7258064516129004
2018-06-06,0.8771929824561395
2018-06-07,0.7799999999999994
2018-06-08,0.9466666666666662
2018-06-11,0.6781609195402301
2018-06-12,0.4625000000000004
2018-06-13,0.39024390243902285
2018-06-14,0.37209302325581145
2018-06-15,0.0
2018-06-19,0.421686746987949
2018-06-20,0.5217391304347788
2018-06-21,0.41379310344827436
2018-06-22,0.5520833333333346
2018-06-25,0.6091954022988498
2018-06-26,0.21686746987951883
2018-06-27,0.293478260869566
2018-06-28,0.43661971830985763
2018-06-29,0.215384615384613
2018-07-02,0.28813559322033855
2018-07-03,0.6071428571428626
2018-07-04,0.2258064516129117
2018-07-05,0.466666666666673
2018-07-06,0.5675675675675718
2018-07-09,0.6862745098039245
2018-07-10,0.6981132075471672
2018-07-11,0.9285714285714263
2018-07-12,0.8888888888888845
2018-07-13,0.727272727272732
2018-07-16,0.1794871794871651
2018-07-17,0.11363636363636039
2018-07-18,0.051724137931033316
2018-07-19,0.0
2018-07-20,0.2307692307692281
2018-07-23,0.3050847457627103
2018-07-24,0.4516129032258048
2018-07-25,0.7313432835820871
2018-07-26,0.8166666666666661
2018-07-27,0.6888888888888912
2018-07-30,0.87341772151899
2018-07-31,0.7763157894736858
2018-08-01,0.7424242424242444
2018-08-02,0.8412698412698416
2018-08-03,0.9176470588235283
2018-08-06,0.6451612903225784
2018-08-07,0.8333333333333329
2018-08-08,0.8000000000000022
2018-08-09,0.8222222222222255
2018-08-10,0.5157894736842142
2018-08-13,0.5764705882352966
2018-08-14,0.1971830985915547
2018-08-15,0.16867469879518387
2018-08-16,0.42975206611569783
2018-08-17,0.5416666666666593
2018-08-20,0.6020408163265251
2018-08-21,0.6941176470588173
2018-08-22,0.8333333333333319
2018-08-23,0.13684210526316065
2018-08-24,0.4253731343283606
2018-08-27,0.37313432835820975
2018-08-28,0.3787878787878794
2018-08-29,0.3235294117647054
2018-08-30,0.7195121951219471
2018-08-31,0.24590163934425904
2018-09-03,0.23809523809523617
2018-09-04,0.40845070422534596
2018-09-05,0.5223880597014869
2018-09-06,0.3962264150943295
2018-09-07,0.7804878048780453
2018-09-10,1.0
2018-09-11,1.0
2018-09-12,1.0
2018-09-13,0.9532163742690092
2018-09-14,0.8216216216216278
2018-09-17,0.5496183206106946
2018-09-18,0.09923664122137812
2018-09-19,0.0
2018-09-20,0.09523809523809616
2018-09-21,0.10714285714285739
2018-09-25,0.09090909090909095
2018-09-26,0.17567567567567904
2018-09-27,0.3214285714285772
2018-09-28,0.1807228915662713
2018-10-08,0.4062500000000024
2018-10-09,0.8472222222222207
2018-10-10,0.8000000000000004
2018-10-11,0.7419354838709656
2018-10-12,0.7666666666666657
2018-10-15,0.5000000000000022
2018-10-16,0.0
2018-10-17,0.0
2018-10-18,0.0
2018-10-19,0.03571428571429104
2018-10-22,0.03448275862069512
2018-10-23,0.040000000000006426
2018-10-24,0.23333333333332318
2018-10-25,0.21212121212120177
2018-10-26,0.21212121212119714
2018-10-29,0.6458333333333249
2018-10-30,0.9189189189189126
2018-10-31,0.9423076923076901
2018-11-01,0.9423076923077012
2018-11-02,0.9677419354838761
2018-11-05,0.846153846153853
2018-11-06,0.7974683544303892
2018-11-07,0.5454545454545482
2018-11-08,0.518518518518514
2018-11-09,0.0
2018-11-12,0.3214285714285714
2018-11-13,0.4503816793893122
2018-11-14,0.688235294117647
2018-11-15,0.6882352941176494
2018-11-16,0.948148148148149
2018-11-19,0.8070175438596491
2018-11-20,0.6634615384615372
2018-11-21,0.22000000000000147
2018-11-22,0.31914893617021317
2018-11-23,0.6144449725258666
2018-11-26,0.7501754314596907
2018-11-27,0.9456705643493654
2018-11-28,0.7832646928305057
2018-11-29,0.7835175004082513
2018-11-30,0.296241849223029
2018-12-03,0.6079266822091799
2018-12-04,0.4646989141164816
2018-12-05,0.483966812999266
2018-12-06,0.5657894736842082
2018-12-07,0.7295081967213078
2018-12-10,0.2262773722627745
2018-12-11,0.4625000000000025
2018-12-12,0.4021739130434807
2018-12-13,0.24083769633508056
2018-12-14,0.21938775510204278
2018-12-17,0.34126984126984405
2018-12-18,0.0
2018-12-19,0.2912621359223322
2018-12-20,0.41095890410958985
2018-12-21,0.4109589041095887
2018-12-24,0.34482758620689674
2018-12-25,0.7058823529411764
2018-12-26,0.4038461538461546
2018-12-27,0.6322580645161291
2018-12-28,0.6363636363636368
2019-01-02,0.7483870967741927
2019-01-03,0.4596273291925441
2019-01-04,0.6745562130177503
2019-01-07,0.3431952662721891
2019-01-08,0.369696969696969
2019-01-09,0.2925170068027219
2019-01-10,0.35537190082644665
2019-01-11,0.025641025641024415
2019-01-14,0.09374999999999538
2019-01-15,0.04918032786885003
2019-01-16,0.042253521126758585
2019-01-17,0.1320754716981133
2019-01-18,0.8591549295774665
2019-01-21,0.9107142857142868
2019-01-22,0.9180327868852471
2019-01-23,0.9411764705882353
2019-01-24,0.9465648854961831
2019-01-25,0.8974358974358986
2019-01-28,0.37142857142857477
2019-01-29,0.48235294117647254
2019-01-30,0.5978260869565245
2019-01-31,0.4588235294117681
2019-02-01,0.3861386138613877
2019-02-11,0.6176470588235297
2019-02-12,0.2236842105263175
2019-02-13,0.47787610619468757
2019-02-14,0.5967741935483842
2019-02-15,0.6944444444444432
2019-02-18,0.7401574803149601
2019-02-19,1.0
2019-02-20,0.4824561403508774
2019-02-21,0.45871559633027736
2019-02-22,0.32236842105263364
2019-02-25,0.2045454545454552
2019-02-26,0.17322834645669608
2019-02-27,0.3611111111111169
2019-02-28,0.11000000000000293
2019-03-01,0.6917808219178071
2019-03-04,0.6084337349397586
2019-03-05,0.5280898876404467
2019-03-06,0.48387096774193256
2019-03-07,0.7103825136611986
2019-03-08,0.2531645569620237
2019-03-11,0.2941176470588227
2019-03-12,0.4253731343283609
2019-03-13,0.5075757575757598
2019-03-14,0.23275862068965925
2019-03-15,0.5094339622641592
2019-03-18,0.5737704918032822
2019-03-19,0.31034482758620446
2019-03-20,0.3220338983050859
2019-03-21,0.4042553191489357
2019-03-22,0.35849056603773033
2019-03-25,0.2156862745098044
2019-03-26,0.22916666666666452
2019-03-27,0.0
2019-03-28,0.0
2019-03-29,0.5161290322580626
2019-04-01,0.4571428571428527
2019-04-02,0.6823529411764677
2019-04-03,0.7468354430379737
2019-04-04,0.8082191780821871
2019-04-08,0.3253012048192789
2019-04-09,0.49397590361445964
2019-04-10,0.168539325842699
2019-04-11,0.13861386138613796
2019-04-12,0.2090909090909098
2019-04-15,0.4303797468354424
2019-04-16,0.24390243902439093
2019-04-17,0.43396226415094163
2019-04-18,0.6964285714285752
2019-04-19,0.7343750000000019
2019-04-22,0.7901234567901257
2019-04-23,1.0
2019-04-24,0.9846153846153805
2019-04-25,0.9843749999999957
2019-04-26,0.6969696969696993
2019-04-29,0.295081967213116
2019-04-30,0.25862068965517077
2019-05-06,0.40665697380595034
2019-05-07,0.16812882179606703
2019-05-08,0.2288052994298565
2019-05-09,0.34707121455952933
2019-05-10,0.5620573755386044
2019-05-13,0.4215606792705713
2019-05-14,0.9685552377700016
2019-05-15,0.9692015825149889
2019-05-16,0.9814468190139284
2019-05-17,0.9775280898876444
2019-05-20,1.0
2019-05-21,0.23655913978494497
2019-05-22,0.27551020408163196
2019-05-23,0.4892086330935251
2019-05-24,0.5234899328859063
2019-05-27,0.5448717948717964
2019-05-28,1.0
2019-05-29,0.8297872340425562
2019-05-30,0.698113207547176
2019-05-31,0.636363636363642
2019-06-03,0.2333333333333378
2019-06-04,0.2580645161290257
2019-06-05,0.6315789473684096
2019-06-06,0.257142857142846
2019-06-10,0.09677419354838214
2019-06-11,0.2999999999999985
2019-06-12,0.4367816091954028
2019-06-13,0.6171875000000004
2019-06-14,0.6319999999999997
2019-06-17,0.8229166666666652
2019-06-18,0.5663716814159281
2019-06-19,0.454545454545453
2019-06-20,0.0
2019-06-21,0.0
2019-06-24,0.0
2019-06-25,0.04166666666666027
2019-06-26,0.039999999999994096
2019-06-27,0.02127659574467715
2019-06-28,0.02040816326530265
2019-07-01,0.548076923076922
2019-07-02,0.538461538461537
2019-07-03,0.5714285714285701
2019-07-04,0.8000000000000005
2019-07-05,0.9655172413792997
2019-07-08,6.02618530441609e-15
2019-07-09,5.165301689499587e-15
2019-07-10,0.0
2019-07-11,0.052631578947371686
2019-07-12,0.1587301587301627
2019-07-15,0.22222222222222635
2019-07-16,0.4716981132075455
2019-07-17,0.7333333333333333
2019-07-18,0.7538461538461516
2019-07-19,0.7460317460317445
2019-07-22,1.0
2019-07-23,0.6911764705882364
2019-07-24,0.44444444444444414
2019-07-25,0.31250000000000416
2019-07-26,0.25
2019-07-29,0.0
2019-07-30,0.039215686274510116
2019-07-31,0.20454545454545642
2019-08-01,0.39534883720930125
2019-08-02,0.7422680412371169
2019-08-05,1.0
2019-08-06,1.0
2019-08-07,0.8425196850393674
2019-08-08,0.8387096774193528
2019-08-09,0.4224137931034463
2019-08-12,0.046728971962620505
2019-08-13,0.12820512820513144
2019-08-14,0.3333333333333376
2019-08-15,0.2975206611570264
2019-08-16,0.4044943820224733
2019-08-19,0.7272727272727267
2019-08-20,0.5066666666666678
2019-08-21,0.5888888888888858
2019-08-22,0.588888888888887
2019-08-23,0.7105263157894721
2019-08-26,0.5915492957746461
2019-08-27,0.8913043478260878
2019-08-28,0.3831775700934611
2019-08-29,0.49193548387097163
2019-08-30,0.5153846153846222
2019-09-02,0.5403225806451678
2019-09-03,0.2547169811320833
2019-09-04,0.6166666666666692
2019-09-05,0.2741935483871005
2019-09-06,0.1515151515151453
2019-09-09,0.1666666666666604
2019-09-10,0.19298245614034487
2019-09-11,0.017543859649122865
2019-09-12,0.025641025641025907
2019-09-16,0.4489795918367421
2019-09-17,0.5909090909090945
2019-09-18,0.8666666666666685
2019-09-19,0.8504672897196228
2019-09-20,0.8584905660377343
2019-09-23,0.6249999999999949
2019-09-24,0.3999999999999984
2019-09-25,0.0
2019-09-26,0.14728682170542728
2019-09-27,0.15079365079365123
2019-09-30,0.34959349593496314
2019-10-08,0.5319148936170224
2019-10-09,0.9999999999999959
2019-10-10,0.9999999999999946
2019-10-11,0.8695652173913125
2019-10-14,0.5517241379310316
2019-10-15,0.6285714285714286
2019-10-16,0.5135135135135083
2019-10-17,0.21666666666666734
2019-10-18,0.33870967741935165
2019-10-21,0.3684210526315767
2019-10-22,0.12121212121211908
2019-10-23,0.11764705882352731
2019-10-24,0.29545454545454547
2019-10-25,0.09803921568627819
2019-10-28,0.07246376811594539
2019-10-29,0.3225806451612933
2019-10-30,0.36363636363636614
2019-10-31,0.4067796610169499
2019-11-01,0.600000000000001
2019-11-04,0.999999999999995
2019-11-05,0.5208333333333335
2019-11-06,0.500000000000004
2019-11-07,0.5098039215686276
2019-11-08,0.34482758620689313
2019-11-11,0.5189873417721522
2019-11-12,0.7887323943661965
2019-11-13,0.8115942028985458
2019-11-14,0.5679012345678995
2019-11-15,0.7441860465116273
2019-11-18,0.5156249999999988
2019-11-19,0.27692307692307716
2019-11-20,0.4337349397590389
2019-11-21,0.6527777777777803
2019-11-22,0.5614035087719323
2019-11-25,0.47058823529411875
2019-11-26,0.6491228070175449
2019-11-27,0.47499999999999754
2019-11-28,0.18657646430478567
2019-11-29,0.3599943969743681
2019-12-02,0.609497094770584
2019-12-03,0.4885386819484261
2019-12-04,0.4267834793491916
2019-12-05,0.6891377379619352
2019-12-06,0.19366666666666388
2019-12-09,0.4440358538267108
2019-12-10,0.6696965028501005
2019-12-11,0.6562499999999981
2019-12-12,0.659793814432988
2019-12-13,0.8904109589041065
2019-12-16,0.677419354838704
2019-12-17,0.11666666666666288
2019-12-18,0.19642857142856834
2019-12-19,0.1346153846153837
2019-12-20,0.18181818181818338
2019-12-23,0.16949152542372978
2019-12-24,0.4285714285714261
2019-12-25,0.2285714285714276
2019-12-26,0.11320754716981025
2019-12-27,0.3188405797101387
2019-12-30,0.37931034482758286
2019-12-31,0.5862068965517276
2020-01-02,0.7159090909090955
2020-01-03,0.9450549450549486
2020-01-06,0.9479166666666705
2020-01-07,1.0
2020-01-08,1.0
2020-01-09,1.0
2020-01-10,0.9109589041095886
2020-01-13,0.6835443037974666
2020-01-14,0.6478873239436616
2020-01-15,0.31092436974790216
2020-01-16,0.007575757575759153
2020-01-17,0.06349206349206307
2020-01-20,0.07999999999999935
2020-01-21,0.06306306306306084
2020-01-22,0.06140350877192737
2020-01-23,0.49122807017543724
2020-02-03,0.47747747747747904
2020-02-04,0.6412213740458033
2020-02-05,0.7244094488188978
2020-02-06,1.0
2020-02-07,0.5903614457831367
2020-02-10,0.5056179775280912
2020-02-11,0.2
2020-02-12,0.09375000000000204
2020-02-13,0.0
2020-02-14,0.10638297872340562
2020-02-17,0.11111111111111271
2020-02-18,0.08474576271186543
2020-02-19,0.1875000000000025
2020-02-20,0.3061224489795946
2020-02-21,0.1612903225806465
2020-02-24,0.2542372881355904
2020-02-25,0.7049180327868811
2020-02-26,0.7313432835820848
2020-02-27,0.7692307692307648
2020-02-28,1.0
2020-03-02,1.0
2020-03-03,1.0
2020-03-04,0.8120805369127521
2020-03-05,0.6858974358974383
2020-03-06,0.5140845070422555
2020-03-09,0.06097560975609928
2020-03-10,0.0
2020-03-11,0.34703196347031945
2020-03-12,0.4403669724770626
2020-03-13,0.6165413533834586
2020-03-16,0.9294605809128635
2020-03-17,1.0
2020-03-18,0.7772020725388604
2020-03-19,0.7783505154639185
2020-03-20,0.4715909090909095
2020-03-23,0.19327731092437142
2020-03-24,0.2066115702479313
2020-03-25,0.24752475247524539
2020-03-26,0.04878048780487168
2020-03-27,0.09756097560974532
2020-03-30,0.0624999999999923
2020-03-31,0.04761904761905278
2020-04-01,0.06818181818182419
2020-04-02,0.4347826086956544
2020-04-03,0.655172413793101
2020-04-07,0.9420289855072393
2020-04-08,0.7948717948717898
2020-04-09,0.7294117647058835
2020-04-10,0.36082474226803984
2020-04-13,0.09638554216867419
2020-04-14,0.0
2020-04-15,0.30526315789473635
2020-04-16,0.5703124999999999
2020-04-17,0.8222222222222232
2020-04-20,0.755102040816326
2020-04-21,0.8711656441717782
2020-04-22,0.6975308641975307
2020-04-23,0.5749999999999976
2020-04-24,0.5952380952380923
2020-04-27,0.7692307692307672
2020-04-28,0.2622950819672128
2020-04-29,0.3333333333333321
2020-04-30,0.27118644067796743
2020-05-06,0.25862068965517426
2020-05-07,0.042372881355932354
2020-05-08,0.08604080917768668
2020-05-11,0.07560018467220743
2020-05-12,0.10662542731564356
2020-05-13,0.01636993667104292
2020-05-14,0.04118442807754818
2020-05-15,0.021758119590242462
2020-05-18,0.29117671939767903
2020-05-19,0.29388661202185595
2020-05-20,0.15653720723391726
2020-05-21,0.1406249999999988
2020-05-22,0.42424242424242253
2020-05-25,0.5529411764705877
2020-05-26,0.6071428571428582
2020-05-27,0.6800000000000002
2020-05-28,0.771428571428574
2020-05-29,0.5000000000000059
2020-06-01,0.14000000000000684
2020-06-02,0.05084745762711904
2020-06-03,0.13043478260869257
2020-06-04,0.285714285714284
2020-06-05,0.36363636363635626
2020-06-08,0.2424242424242378
2020-06-09,0.37288135593219907
2020-06-10,0.3064516129032249
2020-06-11,0.14000000000000137
2020-06-12,0.36842105263158387
2020-06-15,0.8500000000000056
2020-06-16,0.9047619047619075
2020-06-17,1.0
2020-06-18,0.7108433734939767
2020-06-19,0.5172413793103451
2020-06-22,0.3333333333333318
2020-06-23,0.03260869565217397
2020-06-24,0.02197802197801919
2020-06-29,0.252873563218388
2020-06-30,0.48913043478260665
2020-07-01,0.7641509433962257
2020-07-02,0.8709677419354838
2020-07-03,0.8811881188118816
2020-07-06,0.8620689655172418
2020-07-07,0.6933333333333329
2020-07-08,0.25806451612903375
2020-07-09,0.4516129032258075
2020-07-10,0.5999999999999991
2020-07-13,0.5
2020-07-14,0.6458333333333341
2020-07-15,0.8764044943820233
2020-07-16,0.8705882352941187
2020-07-17,0.431578947368421
2020-07-20,0.5567010309278343
2020-07-21,0.5326086956521733
2020-07-22,0.36263736263736274
2020-07-23,0.2450980392156864
2020-07-24,0.63440860215054
2020-07-27,0.46938775510204245
2020-07-28,0.3863636363636385
2020-07-29,0.546511627906977
2020-07-30,0.7014925373134328
2020-07-31,0.24999999999999778
2020-08-03,0.48780487804877953
2020-08-04,0.23255813953488266
2020-08-05,0.08433734939759037
2020-08-06,0.2897196261682245
2020-08-07,0.2924528301886791
2020-08-10,0.23529411764705863
2020-08-11,0.6868686868686843
2020-08-12,0.7920792079207901
2020-08-13,0.5656565656565619
2020-08-14,0.6222222222222191
2020-08-17,0.655555555555553
2020-08-18,0.17857142857142907
2020-08-19,0.03125000000000022
2020-08-20,0.21978021978021856
2020-08-21,0.34736842105263127
2020-08-24,0.27272727272727243
2020-08-25,0.39999999999999836
2020-08-26,0.5084745762711854
2020-08-27,0.22413793103448507
2020-08-28,0.0
2020-08-31,0.20408163265306248
2020-09-01,0.4461538461538478
2020-09-02,0.48333333333333706
2020-09-03,0.7916666666666687
2020-09-04,0.9638554216867488
2020-09-07,0.9670329670329686
2020-09-08,0.7752808988764055
2020-09-09,0.8617886178861788
2020-09-10,0.6093749999999989
2020-09-11,0.44354838709677435
2020-09-14,0.3083333333333347
2020-09-15,0.4406779661016968
2020-09-16,0.15789473684210595
2020-09-17,0.3648648648648704
2020-09-18,0.4500000000000031
2020-09-21,0.6041666666666633
2020-09-22,0.6935483870967696
2020-09-23,0.9019607843137217
2020-09-24,0.8780487804877986
2020-09-25,1.0
2020-09-28,0.8030303030302991
2020-09-29,0.34285714285714153
2020-09-30,0.23076923076922728
2020-10-09,0.20212765957446682
2020-10-12,0.0
2020-10-13,5.693392538614313e-15
2020-10-14,9.930335823164442e-15
2020-10-15,0.29629629629631177
2020-10-16,0.7254901960784376
2020-10-19,0.840909090909085
2020-10-20,0.8444444444444367
2020-10-21,0.8695652173912988
2020-10-22,0.8965517241379268
2020-10-23,0.3285714285714311
2020-10-26,0.46052631578947567
2020-10-27,0.46753246753247013
2020-10-28,0.5729166666666676
2020-10-29,0.41176470588235103
2020-10-30,0.8815789473684187
2020-11-02,0.8799999999999981
2020-11-03,0.8860759493670864
2020-11-04,0.597560975609752
2020-11-05,0.6447368421052574
2020-11-06,0.42553191489360864
2020-11-09,0.17647058823528575
2020-11-10,0.19230769230769804
2020-11-11,0.2702702702702803
2020-11-12,0.2380952380952495
2020-11-13,0.10294117647059746
2020-11-16,0.36111111111112215
2020-11-17,0.38666666666667104
2020-11-18,0.5432098765432151
2020-11-19,0.6463414634146384
2020-11-20,1.0
2020-11-23,1.0
2020-11-24,1.0
2020-11-25,1.0
2020-11-26,0.8157894736842023
2020-11-27,0.8590668664200282
2020-11-30,0.6177762142753149
2020-12-01,0.4619606135648244
2020-12-02,0.17095591726652812
2020-12-03,0.4144129955451571
2020-12-04,0.43054785728872075
2020-12-07,0.5604446685470283
2020-12-08,0.7427780994659964
2020-12-09,1.0
2020-12-10,0.7346938775510174
2020-12-11,0.4186046511627911
2020-12-14,0.4791666666666623
2020-12-15,0.3658536585365845
2020-12-16,0.2343749999999967
2020-12-17,0.24193548387096597
2020-12-18,0.23076923076922773
2020-12-21,0.25373134328358343
2020-12-22,0.3797468354430393
2020-12-23,0.7291666666666663
2020-12-24,0.804597701149424
2020-12-25,0.8433734939759056
2020-12-28,0.5047619047619059
2020-12-29,0.38834951456310746
2020-12-30,0.0
2020-12-31,0.0
2021-01-04,0.34188034188034094
2021-01-05,0.4878048780487794
2021-01-06,0.6219512195121958
2021-01-07,0.8873239436619723
2021-01-08,0.9466666666666655
2021-01-11,0.9333333333333321
2021-01-12,1.0
2021-01-13,0.8395061728395047
2021-01-14,0.7466666666666635
2021-01-15,0.7323943661971811
2021-01-18,0.2934782608695639
2021-01-19,0.04347826086956665
2021-01-20,0.07407407407407246
2021-01-21,0.06451612903225672
2021-01-22,0.06451612903225419
2021-01-25,0.11538461538461028
2021-01-26,0.13636363636362736
2021-01-27,0.20833333333333126
2021-01-28,0.2857142857142811
2021-01-29,0.14634146341463422
2021-02-01,0.23076923076922595
2021-02-02,0.5161290322580712
2021-02-03,0.2500000000000085
2021-02-04,0.4318181818181921
2021-02-05,0.4042553191489467
2021-02-08,0.34782608695653267
2021-02-09,0.4230769230769276
2021-02-10,0.6250000000000013
2021-02-18,0.44444444444444287
2021-02-19,0.8888888888888852
2021-02-22,0.9218749999999987
2021-02-23,0.9444444444444433
2021-02-24,0.9438202247191
2021-02-25,1.0
2021-02-26,0.9320388349514556
2021-03-01,0.9489051094890508
2021-03-02,0.8125000000000009
2021-03-03,0.8372093023255823
2021-03-04,0.46666666666667134
2021-03-05,0.6200000000000038
2021-03-08,0.4745762711864432
2021-03-09,0.5233644859813122
2021-03-10,0.5277777777777805
2021-03-11,0.8260869565217372
2021-03-12,0.22727272727272638
2021-03-15,0.18691588785046614
2021-03-16,0.16528925619834542
2021-03-17,0.0
2021-03-18,0.0
2021-03-19,0.57142857142857
2021-03-22,0.6153846153846143
2021-03-23,0.6241134751773035
2021-03-24,0.7039999999999994
2021-03-25,0.7348484848484835
2021-03-26,0.07826086956521516
2021-03-29,0.18421052631578816
2021-03-30,0.20388349514563087
2021-03-31,0.18918918918918812
2021-04-01,0.22413793103448562
2021-04-02,0.5652173913043503
2021-04-06,0.26923076923077444
2021-04-07,0.451612903225806
2021-04-08,0.6415094339622666
2021-04-09,0.3773584905660382
2021-04-12,0.3703703703703724
2021-04-13,0.555555555555554
2021-04-14,0.5151515151515185
2021-04-15,0.644444444444443
2021-04-16,0.9459459459459411
2021-04-19,0.7291666666666604
2021-04-20,0.5833333333333315
2021-04-21,0.3999999999999944
2021-04-22,0.21739130434782492
2021-04-23,0.06896551724138131
2021-04-26,0.22641509433962784
2021-04-27,0.5972222222222235
2021-04-28,0.6142857142857173
2021-04-29,0.4193548387096807
2021-04-30,0.5813953488372124
2021-05-06,0.4827586206896569
2021-05-07,0.14285714285714274
2021-05-10,0.29629629629629545
2021-05-11,0.6341463414634126
2021-05-12,0.714285714285713
2021-05-13,0.814159292035397
2021-05-14,1.0
2021-05-17,1.0
2021-05-18,1.0
2021-05-19,0.8580645161290336
2021-05-20,0.7733333333333342
2021-05-21,0.32034673229896293
2021-05-24,0.07882143192268065
2021-05-25,0.0
2021-05-26,0.0
2021-05-27,0.18330992321714193
2021-05-28,0.41115192523130634
2021-05-31,0.5752763379753876
2021-06-01,0.7605547723058276
2021-06-02,0.9635330570569604
2021-06-03,0.49999999999999883
2021-06-04,0.23076923076923223
2021-06-07,0.40178571428571563
2021-06-08,0.2931034482758629
2021-06-09,0.22222222222222215
2021-06-10,0.5444444444444444
2021-06-11,0.8282828282828288
2021-06-15,0.6105263157894768
2021-06-16,0.6590909090909146
2021-06-17,0.6373626373626432
2021-06-18,0.6071428571428642
2021-06-21,0.22500000000000342
2021-06-22,0.5227272727272746
2021-06-23,0.70940170940171
2021-06-24,0.7155172413793094
2021-06-25,0.6915887850467262
2021-06-28,0.9523809523809509
2021-06-29,0.5714285714285672
2021-06-30,0.15306122448978965
2021-07-01,0.2946428571428533
2021-07-02,0.16326530612244902
2021-07-05,0.1398601398601406
2021-07-06,0.32307692307692565
2021-07-07,0.6965517241379344
2021-07-08,0.6788321167883238
2021-07-09,1.0
2021-07-12,0.9100000000000027
2021-07-13,0.6764705882352945
2021-07-14,0.09803921568627161
2021-07-15,0.3698630136986305
2021-07-16,0.3396226415094342
2021-07-19,0.3999999999999992
2021-07-20,0.5200000000000001
2021-07-21,0.8761904761904761
2021-07-22,0.2992125984251975
2021-07-23,0.3333333333333356
2021-07-26,0.24561403508772212
2021-07-27,0.13861386138614026
2021-07-28,0.0645161290322609
2021-07-29,0.2608695652173994
2021-07-30,0.3461538461538365
2021-08-02,0.8108108108108101
2021-08-03,0.8846153846153882
2021-08-04,0.800000000000002
2021-08-05,0.9166666666666649
2021-08-06,0.9354838709677411
2021-08-09,0.9569892473118271
2021-08-10,0.7087378640776685
2021-08-11,0.6636363636363622
2021-08-12,0.6671572437286056
2021-08-13,0.489677978111959
2021-08-16,0.04335545608890387
2021-08-17,0.05502556367411845
2021-08-18,0.09657280909926877
2021-08-19,0.31276529998210784
2021-08-20,0.4099212598425153
2021-08-23,0.740277284038384
2021-08-24,0.772793101178326
2021-08-25,0.7636363636363603
2021-08-26,0.13235294117647248
2021-08-27,0.44339622641509646
2021-08-30,0.42342342342342687
2021-08-31,0.33600000000000096
2021-09-01,0.32031250000000033
2021-09-02,0.5980392156862744
2021-09-03,0.2020202020202022
2021-09-06,0.41346153846153816
2021-09-07,0.5116279069767438
2021-09-08,0.5
2021-09-09,0.4054054054054082
2021-09-10,0.789473684210526
2021-09-13,0.18918918918919458
2021-09-14,0.5161290322580674
2021-09-15,0.5000000000000038
2021-09-16,0.3513513513513506
2021-09-17,0.5353535353535366
2021-09-22,0.7272727272727271
2021-09-23,0.4523809523809545
2021-09-24,0.6960000000000008
2021-09-27,0.8503401360544235
2021-09-28,0.7259259259259263
2021-09-29,0.7549668874172193
2021-09-30,0.9025974025974017
2021-10-08,0.7627118644067787
2021-10-11,0.5252525252525234
2021-10-12,0.655913978494622
2021-10-13,0.5616438356164363
2021-10-14,0.2191780821917802
2021-10-15,0.19753086419752935
2021-10-18,0.36986301369862923
2021-10-19,0.28125000000000017
2021-10-20,0.1864406779661039
2021-10-21,0.6891891891891928
2021-10-22,0.9682539682539777
2021-10-25,0.6944444444444543
2021-10-26,0.6097560975609858
2021-10-27,0.43478260869565316
2021-10-28,0.12048192771084519
2021-10-29,0.0
2021-11-01,0.24468085106382953
2021-11-02,0.3146067415730291
2021-11-03,0.5438596491228075
2021-11-04,0.8064516129032278
2021-11-05,1.0
2021-11-08,0.94827586206896
2021-11-09,0.9512195121951171
2021-11-10,0.9558823529411719
2021-11-11,0.6771653543307057
2021-11-12,0.3111111111111124
2021-11-15,0.2978723404255362
2021-11-16,0.18181818181818152
2021-11-17,0.0
2021-11-18,0.12244897959184077
2021-11-19,0.10714285714286155
2021-11-22,0.1153846153846198
2021-11-23,0.09230769230769473
2021-11-24,0.08187280921382287
2021-11-25,0.0
2021-11-26,0.35920880761335594
2021-11-29,0.4678427678341995
2021-11-30,0.666478827886007
2021-12-01,0.761988034974685
2021-12-02,0.999999999999997
2021-12-03,0.7946640592261455
2021-12-06,0.4631291898647874
2021-12-07,0.1791044776119414
2021-12-08,0.15584415584415806
2021-12-09,0.0
2021-12-10,0.0
2021-12-13,0.2266666666666661
2021-12-14,0.17894736842105213
2021-12-15,0.22727272727272652
2021-12-16,0.5656565656565681
2021-12-17,0.636363636363639
2021-12-20,0.5416666666666722
2021-12-21,0.9589041095890439
2021-12-22,0.9610389610389637
2021-12-23,0.5277777777777786
2021-12-24,0.40425531914893714
2021-12-27,0.34234234234234245
2021-12-28,0.1797752808988748
2021-12-29,0.10344827586206787
2021-12-30,0.15254237288135386
2021-12-31,0.5517241379310289
2022-01-04,0.8367346938775447
2022-01-05,0.4923076923076879
2022-01-06,0.6111111111111066
2022-01-07,0.6376811594202895
2022-01-10,0.4791666666666673
2022-01-11,0.40476190476191076
2022-01-12,1.0
2022-01-13,0.7368421052631671
2022-01-14,0.8214285714285735
2022-01-17,0.6774193548387187
2022-01-18,0.8484848484848514
2022-01-19,0.8648648648648667
2022-01-20,0.9411764705882376
2022-01-21,0.9404761904761926
2022-01-24,1.0
2022-01-25,0.5934959349593465
2022-01-26,0.47457627118643797
2022-01-27,0.3225806451612871
2022-01-28,0.2559999999999997
2022-02-07,0.0
2022-02-08,0.08474576271186551
2022-02-09,0.3225806451612917
2022-02-10,0.6153846153846136
2022-02-11,0.8135593220338972
2022-02-14,1.0
2022-02-15,1.0
2022-02-16,0.8764044943820268
2022-02-17,0.8865979381443356
2022-02-18,0.729166666666669
2022-02-21,0.45283018867924835
2022-02-22,0.5166666666666725
2022-02-23,0.45925925925926264
2022-02-24,0.4065040650406512
2022-02-25,0.6352201257861649
2022-02-28,0.8266666666666675
2022-03-01,0.7815126050420177
2022-03-02,1.0
2022-03-03,1.0
2022-03-04,1.0
2022-03-07,1.0
2022-03-08,1.0
2022-03-09,1.0
2022-03-10,1.0
2022-03-11,1.0
2022-03-14,0.9247058823529413
2022-03-15,0.7962962962962958
2022-03-16,0.7830985915492946
2022-03-17,0.21399176954732346
2022-03-18,0.03194103194103045
2022-03-21,0.032704402515721744
2022-03-22,0.03002309468822031
2022-03-23,0.0
2022-03-24,0.0
2022-03-25,0.23210412147505388
2022-03-28,0.2830626450116002
2022-03-29,0.4121621621621615
2022-03-30,0.6923076923076922
2022-03-31,0.9302949061662196
2022-04-01,0.7570977917981077
2022-04-06,0.7818696883852697
2022-04-07,0.8822170900692847
2022-04-08,0.6269662921348332
2022-04-11,0.34354485776805344
2022-04-12,0.35201793721973174
2022-04-13,0.22993492407809168
2022-04-14,0.0
2022-04-15,0.13677130044843128
2022-04-18,0.4038004750593824
2022-04-19,0.3881278538812784
2022-04-20,0.48730964467005006
2022-04-21,0.7942238267148007
2022-04-22,0.5501730103806208
2022-04-25,0.2590673575129514
2022-04-26,0.7152317880794696
2022-04-27,0.6554054054054047
2022-04-28,0.6918429003021149
2022-04-29,0.8893129770992362
2022-05-05,0.80068728522337
2022-05-06,0.2851063829787272
2022-05-09,0.4127855322635303
2022-05-10,0.39316770300161474
2022-05-11,0.5578046743180914
2022-05-12,0.6384777853209606
2022-05-13,0.987802287829595
2022-05-16,0.8799924139374273
2022-05-17,0.4535020047814334
2022-05-18,0.010554956452782633
2022-05-19,0.047347994109626146
2022-05-20,0.047808764940244344
2022-05-23,0.036585365853662594
2022-05-24,0.040540540540544866
2022-05-25,0.2978723404255332
2022-05-26,0.19463087248322208
2022-05-27,0.22580645161289936
2022-05-30,0.5384615384615353
2022-05-31,0.7058823529411755
2022-06-01,0.6575342465753422
2022-06-02,1.0
2022-06-06,0.7745098039215662
2022-06-07,0.38709677419354344
2022-06-08,0.3708609271523125
2022-06-09,0.17258883248730525
2022-06-10,0.0994475138121538
2022-06-13,0.33898305084745733
2022-06-14,0.4615384615384593
2022-06-15,0.7222222222222185
2022-06-16,0.8161434977578467
2022-06-17,0.8359999999999997
2022-06-20,0.8848314606741567
2022-06-21,0.9205702647657849
2022-06-22,0.8473684210526348
2022-06-23,0.9539951573849901
2022-06-24,0.9512820512820536
2022-06-27,0.6656716417910492
2022-06-28,0.27652733118971257
2022-06-29,0.2155388471177947
2022-06-30,0.04229607250755348
2022-07-01,0.08645533141210132
2022-07-04,0.0964630225080358
2022-07-05,0.14084507042253105
2022-07-06,0.7540453074433662
2022-07-07,0.7749999999999998
2022-07-08,0.5575447570332503
2022-07-11,0.7025641025641037
2022-07-12,0.7383419689119197
2022-07-13,0.2798634812286726
2022-07-14,0.23103448275862234
2022-07-15,0.5946843853820594
2022-07-18,0.6484149855907773
2022-07-19,0.6755319148936159
2022-07-20,0.8327868852458982
2022-07-21,0.7604790419161633
2022-07-22,0.5612648221343853
2022-07-25,0.13559322033898297
2022-07-26,0.0
2022-07-27,0.0
2022-07-28,0.26332288401254045
2022-07-29,0.24852071005917106
2022-08-01,0.4307692307692285
2022-08-02,0.4455019844186365
2022-08-03,0.6094733771915581
2022-08-04,0.44196893303153023
2022-08-05,0.54698213512021
2022-08-08,0.7334242236452576
2022-08-09,0.8723693187271588
2022-08-10,0.5678488380013458
2022-08-11,0.5127638307324417
2022-08-12,0.49344859500674265
2022-08-15,0.1107382550335542
2022-08-16,0.0
2022-08-17,0.07539682539682395
2022-08-18,0.055555555555554345
2022-08-19,0.39669421487603246
2022-08-22,0.6383561643835616
2022-08-23,0.7963800904977362
2022-08-24,0.7995545657015579
2022-08-25,1.0
2022-08-26,0.7799999999999971
2022-08-29,0.7770270270270231
2022-08-30,0.3546325878594229
2022-08-31,0.29411764705882004
2022-09-01,0.1205211726384332
2022-09-02,0.12131147540983353
2022-09-05,0.0
2022-09-06,0.03465346534653477
2022-09-07,0.08962264150944313
2022-09-08,0.12666666666667897
2022-09-09,0.17272727272728852
2022-09-13,0.6216216216216286
2022-09-14,0.7454545454545487
2022-09-15,0.39999999999999625
2022-09-16,0.39772727272727104
2022-09-19,0.4374999999999945
2022-09-20,0.3571428571428535
2022-09-21,0.05511811023621963
2022-09-22,0.6640624999999961
2022-09-23,0.7361111111111055
2022-09-26,0.7681159420289874
2022-09-27,0.7681159420289874
2022-09-28,0.7114093959731558
2022-09-29,0.3589743589743613
2022-09-30,0.07526881720430158
2022-10-10,0.09677419354838267
2022-10-11,0.0186915887850424
2022-10-12,0.02777777777777129
2022-10-13,0.014925373134324828
2022-10-14,0.2781954887218033
2022-10-17,0.40740740740741127
2022-10-18,0.45517241379310897
2022-10-19,0.6237113402061899
2022-10-20,0.9777777777777807
2022-10-21,0.7877094972066989
2022-10-24,0.7382550335570354
2022-10-25,0.6626506024096251
2022-10-26,0.35256410256409715
2022-10-27,0.02884615384615767
2022-10-28,0.6171428571428585
2022-10-31,0.5294117647058881
2022-11-01,0.727272727272733
2022-11-02,0.8867924528301908
2022-11-03,0.7995028529461615
2022-11-04,0.5284213182907993
2022-11-07,0.6510004222059739
2022-11-08,0.30578114137647394
2022-11-09,0.20970012005989294
2022-11-10,0.4535996011393814
2022-11-11,0.669697077785999
2022-11-14,0.5820653296977432
2022-11-15,0.9354473634252839
2022-11-16,0.6216216216216215
2022-11-17,0.22929936305732251
2022-11-18,0.055248618784531606
2022-11-21,0.3880597014925363
2022-11-22,0.34181818181818
2022-11-23,0.4453781512605019
2022-11-24,0.6598984771573586
2022-11-25,0.9050279329608932
2022-11-28,0.7157894736842142
2022-11-29,0.8717948717948768
2022-11-30,0.8984771573604098
2022-12-01,0.8795543510990695
2022-12-02,0.9020807833537345
2022-12-05,0.6829132690882144
2022-12-06,0.7811740631794345
2022-12-07,0.7455383700178466
2022-12-08,0.700449775112444
2022-12-09,0.2956130483689537
2022-12-12,0.2785668857324566
2022-12-13,0.02762430939226771
2022-12-14,0.0
2022-12-15,0.07438016528925635
2022-12-16,0.1285714285714292
2022-12-19,0.396396396396398
2022-12-20,0.2650602409638571
2022-12-21,0.44628099173553853
2022-12-22,0.2500000000000001
2022-12-23,0.23529411764705843
2022-12-26,0.06578947368420858
2022-12-27,0.38888888888888934
2022-12-28,0.32231404958677884
2022-12-29,0.5340909090909134
2022-12-30,0.6842105263157926
2023-01-03,0.9473684210526312
2023-01-04,0.9242424242424239
2023-01-05,1.0
2023-01-06,0.8970588235294039
2023-01-09,0.7166666666666524
2023-01-10,0.6046511627906782
2023-01-11,0.19277108433734072
2023-01-12,0.37962962962962
2023-01-13,0.35652173913042673
2023-01-16,0.42857142857142494
2023-01-17,0.344827586206897
2023-01-18,0.8000000000000015
2023-01-19,0.6068376068376151
2023-01-20,0.7217391304347927
2023-01-30,0.8367346938775553
2023-01-31,0.7592592592592619
2023-02-01,0.5524861878453015
2023-02-02,0.6432748538011648
2023-02-03,0.7288888888888845
2023-02-06,0.4871794871794865
2023-02-07,0.6190476190476191
2023-02-08,0.6554621848739576
2023-02-09,0.6666666666666728
2023-02-10,0.19047619047619055
2023-02-13,0.1221374045801499
2023-02-14,0.31547619047618786
2023-02-15,0.353333333333329
2023-02-16,0.3310344827586223
2023-02-17,0.3720930232558127
2023-02-20,0.8192771084337301
2023-02-21,0.31182795698925314
2023-02-22,0.26363636363636844
2023-02-23,0.1550387596899232
2023-02-24,0.1315789473684225
2023-02-27,0.0
2023-02-28,0.0
2023-03-01,0.08547008547008692
2023-03-02,0.39230769230769097
2023-03-03,0.601769911504422
2023-03-06,0.7999999999999984
2023-03-07,1.0
2023-03-08,0.9568345323740954
2023-03-09,0.5257142857142862
2023-03-10,0.5202312138728327
2023-03-13,0.377142857142857
2023-03-14,0.1679389312977022
2023-03-15,0.40804597701149137
2023-03-16,0.8231292517006784
2023-03-17,0.7412587412587421
2023-03-20,0.9312500000000025
2023-03-21,0.7208121827411198
2023-03-22,0.46039603960396097
2023-03-23,0.24571428571428555
2023-03-24,0.24022346368714964
2023-03-27,0.0
2023-03-28,0.2738095238095247
2023-03-29,0.3739837398373993
2023-03-30,0.3739837398373926
2023-03-31,0.3593749999999955
2023-04-03,0.758139534883716
2023-04-04,0.5246636771300406
2023-04-06,0.5688888888888859
2023-04-07,0.6213592233009712
2023-04-10,0.636815920398012
2023-04-11,0.055837563451778774
2023-04-12,0.23699421965318254
2023-04-13,0.17341040462427862
2023-04-14,0.16216216216216253
2023-04-17,0.2178770949720641
2023-04-18,0.49999999999998845
2023-04-19,0.11688311688310879
2023-04-20,0.366666666666656
2023-04-21,0.7945890720982839
2023-04-24,0.829420583712077
2023-04-25,0.9003519515215169
2023-04-26,1.0
2023-04-27,1.0
2023-04-28,0.7017809020921905
2023-05-04,0.5598160810329343
2023-05-05,0.24597993493339934
2023-05-08,0.2814870085492759
2023-05-09,0.1509934926858493
2023-05-10,0.19546421566012764
2023-05-11,0.20647002854424099
2023-05-12,0.4111577942480063
2023-05-15,0.35612069904961813
2023-05-16,0.6815834543477344
2023-05-17,0.8998526118331661
2023-05-18,1.0
2023-05-19,1.0
2023-05-22,1.0
2023-05-23,1.0
2023-05-24,0.8857142857142855
2023-05-25,0.7520661157024859
2023-05-26,0.7986577181208077
2023-05-29,0.2211981566820294
2023-05-30,0.1627906976744135
2023-05-31,0.16509433962263687
2023-06-01,0.16746411483253143
2023-06-02,0.005714285714291012
2023-06-05,0.023255813953509646
2023-06-06,0.01538461538462987
2023-06-07,0.298507462686575
2023-06-08,0.19417475728155434
2023-06-09,0.19417475728154437
2023-06-12,0.4629001898180487
2023-06-13,0.6360329926688147
2023-06-14,0.5299219565436191
2023-06-15,0.910305089261931
2023-06-16,0.9282406722052213
2023-06-19,0.5999572019592085
2023-06-20,0.3829146846558139
2023-06-21,0.285972576499454
2023-06-26,0.4537896798696168
2023-06-27,0.23979591836734443
2023-06-28,0.2292682926829251
2023-06-29,0.32663316582914037
2023-06-30,0.4071856287425117
2023-07-03,0.16535433070865957
2023-07-04,0.4477611940298527
2023-07-05,0.6976744186046412
2023-07-06,0.25531914893616836
2023-07-07,0.5270270270270211
2023-07-10,0.45348837209301796
2023-07-11,0.34090909090908844
2023-07-12,0.49019607843137386
2023-07-13,0.6341463414634199
2023-07-14,0.27848101265823116
2023-07-17,0.27500000000000135
2023-07-18,0.37333333333333535
2023-07-19,0.1212121212121271
2023-07-20,0.1944444444444427
2023-07-21,0.4561403508771994
2023-07-24,0.41935483870968543
2023-07-25,0.54430379746836
2023-07-26,0.6951219512195106
2023-07-27,0.7222222222222252
2023-07-28,0.5578947368421077
2023-07-31,0.830000000000002
2023-08-01,0.631578947368423
2023-08-02,0.6428571428571523
2023-08-03,0.5977011494252912
2023-08-04,0.7954545454545459
2023-08-07,0.5063291139240511
2023-08-08,0.5479452054794516
2023-08-09,0.29870129870128853
2023-08-10,0.17821782178217566
2023-08-11,0.0
2023-08-14,0.0
2023-08-15,0.3436481778338877
2023-08-16,0.342178538428884
2023-08-17,0.6463371942332239
2023-08-18,0.8161940195779953
2023-08-21,0.8300746512920903
2023-08-22,0.4545340190952596
2023-08-23,0.5242868440896774
2023-08-24,0.09803921568626678
2023-08-25,0.0
2023-08-28,0.0
2023-08-29,0.3437500000000011
2023-08-30,0.41428571428570626
2023-08-31,0.40277777777777385
2023-09-01,0.5853658536585318
2023-09-04,0.6125000000000007
2023-09-05,0.7651515151515172
2023-09-06,0.7720588235294152
2023-09-07,1.0
2023-09-08,0.9159663865546224
2023-09-11,0.8709677419354864
2023-09-12,0.2518518518518558
2023-09-13,0.2785714285714246
2023-09-14,0.11940298507461984
2023-09-15,0.4782608695652157
2023-09-18,0.5696202531645551
2023-09-19,0.9034090909090897
2023-09-20,0.8827160493827167
2023-09-21,0.9883040935672528
2023-09-22,0.48314606741572624
2023-09-25,0.29239766081871127
2023-09-26,0.1733333333333308
2023-09-27,0.2823529411764701
2023-09-28,0.12571428571428786
2023-10-09,0.6272189349112491
2023-10-10,0.7885370926739069
2023-10-11,0.7214786805313763
2023-10-12,0.5276894118683081
2023-10-13,0.6732025028441441
2023-10-16,0.28282683681677173
2023-10-17,0.15151167808404092
2023-10-18,0.20971551145104114
2023-10-19,0.3047323743201344
2023-10-20,0.09204877211059652
2023-10-23,0.5757575757575836
2023-10-24,0.8666666666666717
2023-10-25,0.6400000000000036
2023-10-26,0.7464788732394351
2023-10-27,0.8878504672897153
2023-10-30,0.4513888888888844
2023-10-31,0.41558441558441594
2023-11-01,0.5894736842105289
2023-11-02,0.4687500000000014
2023-11-03,0.23414634146341518
2023-11-06,0.48571428571428876
2023-11-07,0.6030150753768823
2023-11-08,0.5352941176470559
2023-11-09,0.6357615894039705
2023-11-10,0.9600000000000118
2023-11-13,0.6555555555555589
2023-11-14,0.33333333333333903
2023-11-15,0.05376344086021747
2023-11-16,0.0
2023-11-17,0.40347355052542133
2023-11-20,0.5510222385465252
2023-11-21,0.611216387788736
2023-11-22,0.8301301642656213
2023-11-23,0.8950447335621239
2023-11-24,0.4712715315520597
2023-11-27,0.3747868668144087
2023-11-28,0.3664987949125161
2023-11-29,0.44144090787948415
2023-11-30,0.07438016528925556
2023-12-01,0.3219813677052422
2023-12-04,0.5943906846444268
2023-12-05,0.6223516925433159
2023-12-06,0.5935600008675335
2023-12-07,0.9824815278450891
2023-12-08,0.982334615573943
2023-12-11,0.3445671494298572
2023-12-12,0.341982078373679
2023-12-13,0.2871990205414273
2023-12-14,0.20430107526881985
2023-12-15,0.0
2023-12-18,0.36144578313253595
2023-12-19,0.41379310344827935
2023-12-20,0.6043956043956059
2023-12-21,0.5140186915887877
2023-12-22,0.7790697674418564
2023-12-25,0.5606060606060448
2023-12-26,0.37804878048779755
2023-12-27,0.4456521739130366
2023-12-28,0.599999999999999
2023-12-29,0.6097560975609798
2024-01-02,0.7884615384615455
2024-01-03,1.0
2024-01-04,0.7500000000000024
2024-01-05,0.7372262773722615
2024-01-08,0.5649350649350602
2024-01-09,0.3021978021977988
2024-01-10,0.0
2024-01-11,0.0
2024-01-12,0.0
2024-01-15,0.0
2024-01-16,0.0
2024-01-17,0.0
2024-01-18,0.24000000000000743
2024-01-19,0.2666666666666726
2024-01-22,0.2000000000000044
2024-01-23,0.288135593220349
2024-01-24,0.5500000000000101
2024-01-25,0.312500000000016
2024-01-26,0.2631578947368604
2024-01-29,0.4951929467015441
2024-01-30,0.562912382998285
2024-01-31,0.8206516606327697
2024-02-01,0.6849950401713212
2024-02-02,0.8179994888718485
2024-02-05,0.7504616347608338
2024-02-06,0.5827812751628801
2024-02-07,0.1928736891251342
2024-02-08,0.20207136910725815
2024-02-19,0.0
2024-02-20,0.2016806722689019
2024-02-21,0.4461538461538356
2024-02-22,0.6987951807228688
2024-02-23,0.8243243243243101
2024-02-26,0.8133333333333426
2024-02-27,0.521126760563397
2024-02-28,0.0555555555555911
2024-02-29,0.21538461538463283
2024-03-01,0.23880597014924784
2024-03-04,0.5487804878048749
2024-03-05,0.6923076923076975
2024-03-06,0.7377049180327927
2024-03-07,0.6666666666666726
2024-03-08,0.6170212765957518
2024-03-11,0.0
2024-03-12,0.0
2024-03-13,0.0
2024-03-14,0.0
2024-03-15,0.19148936170211553
2024-03-18,0.16981132075470792
2024-03-19,0.28070175438595224
2024-03-20,0.37499999999998557
2024-03-21,0.6792452830188641
2024-03-22,0.5625000000000091
2024-03-25,0.7941176470588329
2024-03-26,0.8250000000000154
2024-03-27,0.8444444444444598
2024-03-28,0.5227272727272948
2024-03-29,0.6136363636363726
2024-04-01,0.7307692307692374
2024-04-02,0.5681818181818108
2024-04-03,0.5957446808510561
2024-04-08,0.9038461538461434
2024-04-09,0.7543859649122584
2024-04-10,0.6666666666666605
2024-04-11,0.7272727272727274
2024-04-12,0.6249999999999951
2024-04-15,0.692307692307685
2024-04-16,0.8181818181818501
2024-04-17,0.9024390243902507
2024-04-18,0.9333333333333428
2024-04-19,0.7735849056603739
2024-04-22,0.2727272727272712
2024-04-23,0.3833333333333288
2024-04-24,0.2549019607843121
2024-04-25,0.17391304347825862
2024-04-26,0.19047619047619563
2024-04-29,0.47058823529417526
2024-04-30,0.4000000000000806
2024-05-06,0.517419230830914
2024-05-07,0.23324981406736162
2024-05-08,0.19952316539119996
2024-05-09,0.16430071868530918
2024-05-10,0.03663170924075515
2024-05-13,0.0
2024-05-14,0.03171498190569991
2024-05-15,0.03525207740519969
2024-05-16,0.1417093283966814
2024-05-17,0.41935483870968493
2024-05-20,0.903846153846156
2024-05-21,0.912280701754389
2024-05-22,1.0
2024-05-23,1.0
2024-05-24,0.9436619718309713
2024-05-27,0.45205479452054625
2024-05-28,0.6491228070175351
2024-05-29,0.7435897435897384
2024-05-30,0.6049382716049314
2024-05-31,0.6774193548387064
2024-06-03,0.8769230769230734
2024-06-04,0.8092105263157865
2024-06-05,0.5104895104895034
2024-06-06,0.6827586206896522
2024-06-07,0.6016949152542367
2024-06-11,0.29885057471264814
2024-06-12,0.20967741935484138
2024-06-13,0.34482758620690396
2024-06-14,0.05000000000000349
2024-06-17,0.040000000000002756
2024-06-18,0.04000000000000274
2024-06-19,0.2058823529411793
2024-06-20,0.1315789473684192
2024-06-21,0.22950819672130818
2024-06-24,0.4222222222222275
2024-06-25,0.4130434782608701
2024-06-26,0.32500000000001084
2024-06-27,0.5312500000000019
2024-06-28,0.3023255813953541
2024-07-01,0.2682926829268171
2024-07-02,0.3666666666666497
2024-07-03,0.13999999999998616
2024-07-04,0.05769230769230358
2024-07-05,0.2272727272727253
2024-07-08,0.38181818181818045
2024-07-09,0.4230769230769202
2024-07-10,0.8965517241379299
2024-07-11,1.0
2024-07-12,1.0
2024-07-15,1.0
2024-07-16,1.0
2024-07-17,0.685185185185186
2024-07-18,0.7166666666666638
2024-07-19,0.7068965517241435
2024-07-22,0.5319148936170165
2024-07-23,0.4038461538461607
2024-07-24,0.5833333333333475
2024-07-25,0.18181818181820905
2024-07-26,0.4285714285714267
2024-07-29,0.3802816901408494
2024-07-30,0.6022727272727304
2024-07-31,0.711864406779664
2024-08-01,0.8785046728971965
2024-08-02,0.7493610193839637
2024-08-05,0.9305214279995778
2024-08-06,0.9303829493144389
2024-08-07,0.9063616926218964
2024-08-08,0.9281705742314853
2024-08-09,0.8600706593549885
2024-08-12,0.5211694067927521
2024-08-13,0.3423866567239689
2024-08-14,0.2643625338066202
2024-08-15,0.0
2024-08-16,0.17910447761194037
2024-08-19,0.22222222222222482
2024-08-20,0.3125000000000036
2024-08-21,0.7727272727272869
2024-08-22,0.8943661971831032
2024-08-23,0.74637681159421
2024-08-26,0.8837209302325604
2024-08-27,0.7411167512690374
2024-08-28,0.4521802304671198
2024-08-29,0.26083101486327204
2024-08-30,0.3653270477312889
2024-09-02,0.1291136218657417
2024-09-03,0.18824923717291853
2024-09-04,0.437732550139092
2024-09-05,0.8785485888238659
2024-09-06,0.8385183470644024
2024-09-09,0.9883288857560056
2024-09-10,0.9951923076923083
2024-09-11,0.9948186528497416
2024-09-12,0.9948717948717956
2024-09-13,0.932692307692307
2024-09-18,0.846153846153846
2024-09-19,0.2941176470588253
2024-09-20,0.2814371257485011
2024-09-23,0.03314917127071839
2024-09-24,0.3000000000000017
2024-09-25,0.32547169811321075
2024-09-26,0.5433070866141788
2024-09-27,0.39873417721519067
2024-09-30,0.8206278026905782
2024-10-08,0.7820029618399854
2024-10-09,0.6898453994415246
2024-10-10,0.6503826329583798
2024-10-11,0.7925510492769045
2024-10-14,0.18562764725081338
2024-10-15,0.05070280458184289
2024-10-16,0.12186831707007013
2024-10-17,0.20682235503471144
2024-10-18,0.1809833017327808
2024-10-21,0.5842696629213442
2024-10-22,0.5098039215686236
2024-10-23,0.62686567164179
2024-10-24,0.5267175572519076
2024-10-25,0.47101449275362534
2024-10-28,0.44696969696969724
2024-10-29,0.7500000000000009
2024-10-30,0.24752475247524328
2024-10-31,0.26998308539705457
2024-11-01,0.2245185024886344
2024-11-04,0.05613291553010558
2024-11-05,0.008407540735127516
2024-11-06,0.1728833116976773
2024-11-07,0.4340668296658516
2024-11-08,0.5684197143704697
2024-11-11,1.0
2024-11-12,0.9641479788601596
2024-11-13,0.7466666666666663
2024-11-14,0.36428571428571016
2024-11-15,0.4026845637583889
2024-11-18,0.3862068965517271
2024-11-19,0.5144508670520278
2024-11-20,0.6054421768707494
2024-11-21,0.8317757009345865
2024-11-22,0.45669291338583673
2024-11-25,0.23741007194245276
2024-11-26,0.0
2024-11-27,0.0
2024-11-28,0.04201680672268953
2024-11-29,0.45217391304347443
2024-12-02,0.8343949044585947
2024-12-03,0.9097222222222201
2024-12-04,0.941812412701452
2024-12-05,0.94742487693777
2024-12-06,0.7503258906463911
2024-12-09,0.23378206343617086
2024-12-10,0.4266970581742004
2024-12-11,0.3706879195150568
2024-12-12,0.2625434931639734
2024-12-13,0.2760588091287426
2024-12-16,0.5791814001487189
2024-12-17,0.07339449541284358
2024-12-18,0.06956521739130538
2024-12-19,0.1545454545454614
2024-12-20,0.3271028037383257
2024-12-23,0.3271028037383257
2024-12-24,0.6481481481481656
2024-12-25,0.8235294117647031
2024-12-26,0.42307692307691597
2024-12-27,0.4303797468354373
2024-12-30,0.42028594259550384
2024-12-31,0.6300392805457892
