date,FCT_Cr_Atr_Dfive
2013-10-09,
2013-10-10,
2013-10-11,
2013-10-14,
2013-10-15,
2013-10-16,
2013-10-17,
2013-10-18,
2013-10-21,
2013-10-22,
2013-10-23,0.20990990990990988
2013-10-24,0.07824353863957836
2013-10-25,0.28356210244392366
2013-10-28,0.4162033898305083
2013-10-29,0.16740437031169936
2013-10-30,0.2719082719082719
2013-10-31,-0.06787890327494298
2013-11-01,-0.07997450230459935
2013-11-04,-0.6739095509679491
2013-11-05,0.046079881656804475
2013-11-06,-0.3944618599791013
2013-11-07,0.12106962380685009
2013-11-08,-0.2425273139558854
2013-11-11,0.1260036817985978
2013-11-12,-0.2183411214953269
2013-11-13,0.2233963663329625
2013-11-14,-0.1687373815809909
2013-11-15,0.21216486594637862
2013-11-18,0.17252066115702483
2013-11-19,0.14159380966736995
2013-11-20,-0.0001143902997025846
2013-11-21,0.022060470324748158
2013-11-22,-0.012566844919786262
2013-11-25,-0.0012626262626262638
2013-11-26,0.2629315223542728
2013-11-27,0.0802707930367505
2013-11-28,0.13429027113237638
2013-11-29,-0.051298701298701246
2013-12-02,-0.12908496732026142
2013-12-03,-0.41654135338345855
2013-12-04,-0.17424242424242425
2013-12-05,-0.09090909090909104
2013-12-06,0.2160714285714287
2013-12-09,0.22265221878224967
2013-12-10,0.02835332606324964
2013-12-11,0.040229885057471285
2013-12-12,0.09336609336609353
2013-12-13,-0.11970338983050866
2013-12-16,-0.22055137844611525
2013-12-17,0.14869185098192733
2013-12-18,0.0513679110857794
2013-12-19,-0.161423718800768
2013-12-20,-0.2950693374422187
2013-12-23,-0.06974789915966387
2013-12-24,-0.15747570542091086
2013-12-25,0.038610537190082644
2013-12-26,0.48642035723024224
2013-12-27,0.3885630498533724
2013-12-30,0.15969498910675378
2013-12-31,0.1869240348692402
2014-01-02,-0.04687499999999997
2014-01-03,-0.5504528638856997
2014-01-06,-0.273535220539829
2014-01-07,0.05044699872286103
2014-01-08,0.14066471163245345
2014-01-09,0.0714285714285715
2014-01-10,0.21239316239316225
2014-01-13,0.1043083900226759
2014-01-14,-0.05296551724137953
2014-01-15,-0.2436711540089745
2014-01-16,0.32201405152224827
2014-01-17,-0.08529411764705888
2014-01-20,0.020131629887727594
2014-01-21,-0.058168674698795185
2014-01-22,-0.05496954390135195
2014-01-23,-0.8587204007285976
2014-01-24,-0.06860198624904497
2014-01-27,-0.08465889006716172
2014-01-28,-0.004706325301204871
2014-01-29,0.22548716362511612
2014-01-30,1.0160024154589369
2014-02-07,0.16931666464376754
2014-02-10,0.16895499618611742
2014-02-11,0.04687500000000011
2014-02-12,0.2048524590163933
2014-02-13,-0.38904799097457243
2014-02-14,0.7232392330667696
2014-02-17,-0.10491901602834251
2014-02-18,0.005722721824921778
2014-02-19,-0.4700133638492096
2014-02-20,-0.29582208053988845
2014-02-21,-1.3830898244955763
2014-02-24,-0.13316513239581323
2014-02-25,-0.04695983522698484
2014-02-26,0.5963789552470631
2014-02-27,0.053263080892126516
2014-02-28,0.5384300306811435
2014-03-03,0.1754912254387249
2014-03-04,0.07402399864796372
2014-03-05,-0.803635432667695
2014-03-06,0.06883416017009043
2014-03-07,0.16575609756097856
2014-03-10,0.2518159806295354
2014-03-11,0.07832422586520765
2014-03-12,0.37973137973137744
2014-03-13,-0.06202588130299018
2014-03-14,-0.1417560975609783
2014-03-17,-0.5088547815820466
2014-03-18,-0.32387706855791365
2014-03-19,-0.1330561330561301
2014-03-20,0.07407407407407492
2014-03-21,0.017074626865666916
2014-03-24,0.13223140495868002
2014-03-25,0.36276595744680956
2014-03-26,0.09459459459459775
2014-03-27,-0.028985507246373943
2014-03-28,1.0746268656716287
2014-03-31,0.46772068511198267
2014-04-01,-0.17631578947369037
2014-04-02,0.016216216216213074
2014-04-03,0.13536848596977874
2014-04-04,-1.4250861079219095
2014-04-08,-0.6192358366271355
2014-04-09,0.006315789473688122
2014-04-10,-0.13866519580805087
2014-04-11,-0.30405739732805653
2014-04-14,0.7277034559643193
2014-04-15,0.07221147646678899
2014-04-16,0.1610256410256395
2014-04-17,0.17862875487273167
2014-04-18,0.20831271647698985
2014-04-21,-0.37284515636918014
2014-04-22,0.18085106382979116
2014-04-23,-0.2568151147098527
2014-04-24,0.003344034242908099
2014-04-25,0.011833612240024842
2014-04-28,-0.22024291497975815
2014-04-29,-0.08206686930091103
2014-04-30,0.23886639676112675
2014-05-05,-0.10061969993476602
2014-05-06,-0.07961476725522224
2014-05-07,0.4428904428904455
2014-05-08,0.1589285714285737
2014-05-09,-0.26100795755967354
2014-05-12,-0.05223744292237291
2014-05-13,-0.031092436974791
2014-05-14,-0.5830889540566921
2014-05-15,-0.3439102564102679
2014-05-16,0.31034482758621357
2014-05-19,0.1521568627451001
2014-05-20,0.1437908496732009
2014-05-21,0.6341256366723117
2014-05-22,0.33208498884395704
2014-05-23,-0.27352412313823704
2014-05-26,-0.026027932904888022
2014-05-27,0.24126999536184301
2014-05-28,-0.1629677550515371
2014-05-29,-0.0756747324336926
2014-05-30,0.12927934411928166
2014-06-03,-0.046494226643860076
2014-06-04,-0.4912699953618359
2014-06-05,-0.41053496727149974
2014-06-06,-0.1999999999999937
2014-06-09,-0.09066901408448368
2014-06-10,-0.18630136986301365
2014-06-11,0.31944444444443293
2014-06-12,0.3473818646232354
2014-06-13,1.1285714285713873
2014-06-16,0.09953703703701589
2014-06-17,0.199999999999995
2014-06-18,-0.26785714285713413
2014-06-19,0.046296296296302254
2014-06-20,-1.3708791208790807
2014-06-23,0.2043422733078073
2014-06-24,0.2777777777777667
2014-06-25,0.22981366459627356
2014-06-26,-0.10333333333332614
2014-06-27,0.4831240188382937
2014-06-30,-0.4178498985801399
2014-07-01,-0.23015873015871297
2014-07-02,0.11758893280632025
2014-07-03,0.07660377358489076
2014-07-04,0.10204081632653708
2014-07-07,0.2702205882353005
2014-07-08,-0.11904761904762712
2014-07-09,-0.3122377622377568
2014-07-10,-0.10832791151593521
2014-07-11,-0.3246753246753222
2014-07-14,-0.24930555555555894
2014-07-15,-0.11278195488720738
2014-07-16,0.04317617866004862
2014-07-17,-0.051724137931009835
2014-07-18,0.10489510489511363
2014-07-21,0.48888888888888854
2014-07-22,0.2779605263157652
2014-07-23,0.06451612903225777
2014-07-24,0.27487684729059925
2014-07-25,0.22326454033769777
2014-07-28,-0.3758865248226965
2014-07-29,-0.09374999999998442
2014-07-30,0.06666666666666925
2014-07-31,-0.17142857142855258
2014-08-01,-0.08384146341464108
2014-08-04,0.06216103462662423
2014-08-05,0.09615384615384368
2014-08-06,0.12631578947367983
2014-08-07,-0.014705882352943152
2014-08-08,-0.15205223880596244
2014-08-11,-0.08518161362906117
2014-08-12,0.07928475033739008
2014-08-13,-0.25268394867765887
2014-08-14,0.046451914098974895
2014-08-15,0.28955223880596825
2014-08-18,0.052753257671289286
2014-08-19,-0.1364775575301931
2014-08-20,-0.015298507462693303
2014-08-21,-0.05877305877305891
2014-08-22,-0.36666666666666486
2014-08-25,0.09615384615385021
2014-08-26,-0.26973026973027386
2014-08-27,-0.004999999999997257
2014-08-28,0.005287896592241815
2014-08-29,0.3444444444444522
2014-09-01,-0.215408805031447
2014-09-02,0.1872909698996679
2014-09-03,0.26181818181818234
2014-09-04,-0.01672240802674347
2014-09-05,0.08222222222222011
2014-09-09,0.4177897574123889
2014-09-10,0.12989801395598907
2014-09-11,0.624999999999989
2014-09-12,0.7239961296564928
2014-09-15,-0.3644776119403052
2014-09-16,-0.16069052145572255
2014-09-17,-0.1213366327467609
2014-09-18,-1.062443291256097
2014-09-19,-0.8768760988350992
2014-09-22,0.9596500257334001
2014-09-23,-0.24026539994628793
2014-09-24,0.005505114954453737
2014-09-25,0.33787619168900773
2014-09-26,0.015341507640135033
2014-09-29,-1.0784733846668844
2014-09-30,0.2964916356877333
2014-10-08,0.8812636165577349
2014-10-09,-0.013679653679652334
2014-10-10,0.18936898395721938
2014-10-13,0.08082075979198994
2014-10-14,-0.22432692307692303
2014-10-15,-1.3084434917232333
2014-10-16,-0.3940152155536779
2014-10-17,-0.15371986115020173
2014-10-20,-0.051397339938613784
2014-10-21,-0.1847711781889003
2014-10-22,0.6041326234779353
2014-10-23,0.33972950126796286
2014-10-24,-0.014578700271810019
2014-10-27,0.26054421768707536
2014-10-28,0.2747231012658194
2014-10-29,-0.34157083435282065
2014-10-30,0.39312169312169215
2014-10-31,0.3522979985174289
2014-11-03,0.05421245421245434
2014-11-04,-0.06648284313724928
2014-11-05,0.30402985074626976
2014-11-06,-0.6506506506506454
2014-11-07,-0.3640350877193078
2014-11-10,-0.2494505494505535
2014-11-11,-0.16072002571520705
2014-11-12,-0.330000000000013
2014-11-13,0.8586278586278535
2014-11-14,1.293650793650823
2014-11-17,0.8823027718550192
2014-11-18,0.3420299965120348
2014-11-19,0.5276923076923191
2014-11-20,-0.6181857358327938
2014-11-21,-1.2533886213661738
2014-11-24,-0.9241493497144557
2014-11-25,-0.23146956952004227
2014-11-26,-0.7076923076923097
2014-11-27,0.03752334267040172
2014-11-28,0.3680152326370556
2014-12-01,0.2460936821065447
2014-12-02,-0.055860698843048784
2014-12-03,1.1471264367816103
2014-12-04,-0.005116959064326871
2014-12-05,0.001200763342410649
2014-12-08,-0.11937747516153746
2014-12-09,0.24659588263899962
2014-12-10,-0.9101959811461178
2014-12-11,-0.03059330781751431
2014-12-12,-0.5950021850115481
2014-12-15,-0.20423713181184852
2014-12-16,-0.38588857019370515
2014-12-17,-0.35750488258937185
2014-12-18,0.5171170769176833
2014-12-19,0.10750983235027545
2014-12-22,0.24793893129770983
2014-12-23,0.2649208282582215
2014-12-24,1.8304335818834567
2014-12-25,-0.436860739575137
2014-12-26,0.24468085106382853
2014-12-29,0.3672316384180805
2014-12-30,0.5206611570247917
2014-12-31,-1.4973591549295764
2015-01-05,-0.3267599314789144
2015-01-06,0.5288888888888885
2015-01-07,-0.45444094074366254
2015-01-08,-0.6416802653050463
2015-01-09,0.36865942028985477
2015-01-12,0.5143628044401589
2015-01-13,-0.6523755716976049
2015-01-14,0.2778170371322111
2015-01-15,0.1186989226654057
2015-01-16,-0.2323222109875287
2015-01-19,-0.37471430289907365
2015-01-20,-0.008381449059415971
2015-01-21,-0.4057976082243503
2015-01-22,-0.24364755632063492
2015-01-23,-0.11996020395473364
2015-01-26,0.15300442757748162
2015-01-27,0.15038665038665006
2015-01-28,0.16670502493287265
2015-01-29,0.16953462091637556
2015-01-30,0.212502304997235
2015-02-02,-0.1776116214484062
2015-02-03,0.1036188860616347
2015-02-04,0.09610389610389544
2015-02-05,0.14136818595417316
2015-02-06,-0.07796467619848617
2015-02-09,-0.03210663089949167
2015-02-10,-0.31910710154984806
2015-02-11,-0.2646001796945173
2015-02-12,-0.12517602879048506
2015-02-13,0.5237648530331473
2015-02-16,0.36283282409428375
2015-02-17,0.37682581207760746
2015-02-25,0.6255177174413223
2015-02-26,0.2463881500026054
2015-02-27,-0.5528729178364239
2015-03-02,-0.12405711206896622
2015-03-03,-0.05258338783518418
2015-03-04,-0.5375688434303671
2015-03-05,-0.108369408369407
2015-03-06,0.1619133619284126
2015-03-09,-0.05854476880877656
2015-03-10,-0.22295173961840703
2015-03-11,0.0880766266651981
2015-03-12,-0.2485962831158572
2015-03-13,-0.2764774420010912
2015-03-16,-0.09944361469907634
2015-03-17,-0.012892416225749881
2015-03-18,0.04736588780957452
2015-03-19,0.2536210531087819
2015-03-20,0.13319868720020203
2015-03-23,0.13315234955723446
2015-03-24,0.2556302521008415
2015-03-25,0.08076923076922778
2015-03-26,-0.10638745343108086
2015-03-27,0.19198635976129586
2015-03-30,-0.10423503672448609
2015-03-31,-0.22741596638655526
2015-04-01,-0.20368434154841708
2015-04-02,0.18842007049554277
2015-04-03,-0.008135083401694887
2015-04-07,0.05070294308174445
2015-04-08,0.23452380952380797
2015-04-09,0.2211979951631564
2015-04-10,-0.17463908640379186
2015-04-13,-0.21600037362226845
2015-04-14,0.06149704784425649
2015-04-15,-0.2558615819209006
2015-04-16,-0.08959880117158281
2015-04-17,-0.09800276988118733
2015-04-20,0.12920792079207905
2015-04-21,-0.06925243215565839
2015-04-22,0.10169491525423466
2015-04-23,0.009002045919527127
2015-04-24,0.10388512282236294
2015-04-27,-0.12480314960629953
2015-04-28,-0.051925025329279714
2015-04-29,0.06818181818181962
2015-04-30,-0.173032555754935
2015-05-04,-0.011078431372550388
2015-05-05,0.013889444022541962
2015-05-06,0.036802760207014375
2015-05-07,-0.03484848484848528
2015-05-08,0.3102264927934134
2015-05-11,0.10296296296296778
2015-05-12,0.05240306728588642
2015-05-13,-0.007307736921469972
2015-05-14,-0.14444444444444385
2015-05-15,-0.34629032258064724
2015-05-18,-0.143177686889347
2015-05-19,0.19032882011605293
2015-05-20,0.18268641230014637
2015-05-21,0.04891015417331105
2015-05-22,0.2819387755102048
2015-05-25,0.013354258810101431
2015-05-26,-0.201235657546337
2015-05-27,-0.22260907409422342
2015-05-28,0.05150576977202386
2015-05-29,-0.15639823496966457
2015-06-01,0.04186046511627956
2015-06-02,-0.10127217944425773
2015-06-03,-0.056957048351156545
2015-06-04,0.24172367213139012
2015-06-05,0.04940428234513476
2015-06-08,-0.11314996538159482
2015-06-09,-0.031656820752220205
2015-06-10,0.3081375510168086
2015-06-11,-0.4532507071878373
2015-06-12,0.27896274013953576
2015-06-15,0.11314996538159482
2015-06-16,0.2649292573815847
2015-06-17,-0.2959706959706966
2015-06-18,0.26951951951952124
2015-06-19,-0.4301978856058549
2015-06-23,0.03846153846153743
2015-06-24,-0.11258278145694942
2015-06-25,0.11904761904761922
2015-06-26,-0.09914914914915174
2015-06-29,0.09097782258064256
2015-06-30,0.34809308338720213
2015-07-01,-0.060606060606064265
2015-07-02,0.05161290322580625
2015-07-03,0.1684162690297677
2015-07-06,0.36152129120879467
2015-07-07,-0.4716610048274633
2015-07-08,0.3489781536293194
2015-07-09,0.6415278909980207
2015-07-10,-0.09950684788153921
2015-07-13,-0.3394268205588974
2015-07-14,0.043256162714407013
2015-07-15,-0.3987169206094633
2015-07-16,-1.1892648252315783
2015-07-17,-0.1093652616040672
2015-07-20,-0.05912660341825683
2015-07-21,-0.04675737467239258
2015-07-22,0.16590038314176145
2015-07-23,0.5027029783761725
2015-07-24,0.144595274007038
2015-07-27,0.26883531599817434
2015-07-28,0.339944493332431
2015-07-29,-0.09401709401709477
2015-07-30,0.02897660818713431
2015-07-31,-0.11666526410277911
2015-08-03,-0.0835090318536664
2015-08-04,-0.3534645579701904
2015-08-05,0.0052861830113029515
2015-08-06,-0.0992810457516344
2015-08-07,0.25809495989034403
2015-08-10,-0.2314904233059721
2015-08-11,0.1332157424760242
2015-08-12,0.008049727309532365
2015-08-13,0.1101172427733998
2015-08-14,-0.3119438784721321
2015-08-17,0.24289424679016178
2015-08-18,-0.13365218546565805
2015-08-19,0.09369705671213306
2015-08-20,-0.04639175257731931
2015-08-21,0.2091356918943115
2015-08-24,-0.13350312191915895
2015-08-25,0.30654508889803045
2015-08-26,-0.03673241923648993
2015-08-27,0.1602576837891694
2015-08-28,-0.14283305203350216
2015-08-31,0.03110717848127709
2015-09-01,-0.23859637094931369
2015-09-02,0.03589007433039909
2015-09-07,-0.32070544498320025
2015-09-08,-0.005853816653366081
2015-09-09,-0.034159342743208906
2015-09-10,0.09402132520944527
2015-09-11,-0.21726179394571188
2015-09-14,0.3472609480072165
2015-09-15,0.3540740740740754
2015-09-16,0.015026954177897595
2015-09-17,-0.22176756421029492
2015-09-18,0.17596442834204726
2015-09-21,-0.30698486063293073
2015-09-22,-0.5304426377597131
2015-09-23,0.05125113739763451
2015-09-24,0.15611162361623532
2015-09-25,-0.07674618347047787
2015-09-28,0.03407895858795704
2015-09-29,0.2776246023329808
2015-09-30,-0.06771939136588963
2015-10-08,0.10114051094890532
2015-10-09,0.19031446540880556
2015-10-12,0.12118043453003124
2015-10-13,-0.1282240235814306
2015-10-14,0.01774691358024885
2015-10-15,-0.20954019247756658
2015-10-16,-0.26230215827338277
2015-10-19,0.03048605119355772
2015-10-20,0.17705345501955957
2015-10-21,0.29846983133367855
2015-10-22,0.17020523708421592
2015-10-23,0.31703900037864485
2015-10-26,-0.05676319780457778
2015-10-27,-0.12287537789721502
2015-10-28,-0.4522903184874999
2015-10-29,-0.08317986494781952
2015-10-30,-0.29700956937799106
2015-11-02,-0.07843082585178246
2015-11-03,0.023764964501087043
2015-11-04,0.39016413673947825
2015-11-05,0.044669763937719195
2015-11-06,0.06316658202133113
2015-11-09,0.08124816014130364
2015-11-10,-0.050668543279381306
2015-11-11,-0.3640160374206457
2015-11-12,0.026432806324111824
2015-11-13,-0.00950496585971438
2015-11-16,0.214649465286027
2015-11-17,0.2241379310344802
2015-11-18,0.21976107516176954
2015-11-19,-0.029055183946489423
2015-11-20,0.09126513954713085
2015-11-23,-0.10809555408095523
2015-11-24,-0.21951219512194972
2015-11-25,0.18770254883069185
2015-11-26,0.060228100820885117
2015-11-27,-0.008602705473647755
2015-11-30,-0.2777142917259408
2015-12-01,-0.0050150675914682405
2015-12-02,-0.47788192804234786
2015-12-03,-0.17208707517985983
2015-12-04,-0.16473314114419002
2015-12-07,0.25757168923039786
2015-12-08,0.19476535795151304
2015-12-09,0.2027768789445343
2015-12-10,0.12969396195202748
2015-12-11,0.12026515151515013
2015-12-14,-0.13488132094943334
2015-12-15,-0.15329820452770992
2015-12-16,-0.023821989528795037
2015-12-17,-0.18430484814186052
2015-12-18,0.0035201149425305254
2015-12-21,-0.10204678362573003
2015-12-22,-0.06188532993035897
2015-12-23,0.08761133715810984
2015-12-24,0.1085366765253037
2015-12-25,-0.018962618989346404
2015-12-28,0.1408925126677803
2015-12-29,-0.021721227446691582
2015-12-30,-0.03761133715811062
2015-12-31,0.0990656626559801
2016-01-04,0.3504205742222547
2016-01-05,-0.002003623778891684
2016-01-06,0.06688741721854424
2016-01-07,0.06164383561643844
2016-01-08,-0.03620071684587308
2016-01-11,-0.5587386186986439
2016-01-12,0.22314049586776832
2016-01-13,0.0736531233219953
2016-01-14,-0.14605942003202302
2016-01-15,-0.06190803019904184
2016-01-18,0.32306610407876224
2016-01-19,-0.41361668634395965
2016-01-20,0.026686350215763557
2016-01-21,0.09228960016361588
2016-01-22,0.24567819148936282
2016-01-25,-0.21226551226551155
2016-01-26,0.12380952380952463
2016-01-27,-0.2100840336134457
2016-01-28,-0.026392534266549337
2016-01-29,-0.33520047169811346
2016-02-01,0.21033314511575
2016-02-02,0.10666666666666827
2016-02-03,0.19093406593406592
2016-02-04,0.08273870200475705
2016-02-05,0.15793754066362947
2016-02-15,-0.12056996711727909
2016-02-16,0.04695652173912624
2016-02-17,-0.048076923076923066
2016-02-18,-0.09622018348624034
2016-02-19,-0.17462239954402853
2016-02-22,0.06273965897038508
2016-02-23,-0.16242821985233324
2016-02-24,0.13265306122448997
2016-02-25,0.06803603603604011
2016-02-26,0.4096298957959019
2016-02-29,-0.06360897221292308
2016-03-01,0.21118598382749174
2016-03-02,-0.09491721216788737
2016-03-03,-0.017854217854222906
2016-03-04,-0.3322981366459609
2016-03-07,0.252431476569409
2016-03-08,0.36954887218045096
2016-03-09,-0.006267317588070087
2016-03-10,0.04622496147920126
2016-03-11,0.04276615104640581
2016-03-14,-0.3031946195880641
2016-03-15,-0.9174495378230523
2016-03-16,-0.1656148729319478
2016-03-17,-0.1982095965624252
2016-03-18,0.11809331469110643
2016-03-21,0.08524590163934455
2016-03-22,0.4420371261969708
2016-03-23,0.20661010957935827
2016-03-24,0.25542443852302965
2016-03-25,-0.1797923400920744
2016-03-28,8.510735658631135e-16
2016-03-29,-0.02985074626865577
2016-03-30,-0.15855648334773104
2016-03-31,-0.21582452017234638
2016-04-01,0.05036144578313434
2016-04-05,-1.9220078029075293e-15
2016-04-06,-0.058333333333332675
2016-04-07,0.05069448514329231
2016-04-08,-0.015888844568540256
2016-04-11,0.19463917525772856
2016-04-12,-0.0562091999392737
2016-04-13,0.3890527606868535
2016-04-14,0.08186101453139505
2016-04-15,0.13449360863466397
2016-04-18,-0.16584472306101877
2016-04-19,0.21443704804054187
2016-04-20,-0.36897079347373996
2016-04-21,0.20921903373892015
2016-04-22,0.23804157339862822
2016-04-25,0.17966432916529632
2016-04-26,-0.19197017938961092
2016-04-27,0.05412438199323534
2016-04-28,-0.3338068181818199
2016-04-29,-0.47261293043945085
2016-05-03,-0.34013260110449706
2016-05-04,-0.06988461171683859
2016-05-05,-0.2066244609597224
2016-05-06,0.11383928571428494
2016-05-09,0.34120397428404525
2016-05-10,0.10460064901078257
2016-05-11,0.17552236784178543
2016-05-12,0.2883124206964628
2016-05-13,-0.09682539682539454
2016-05-16,-0.11920016323199702
2016-05-17,0.04368135786621002
2016-05-18,-0.0539313529803156
2016-05-19,-0.05050215208034417
2016-05-20,0.021785268414481862
2016-05-23,0.1402124640991082
2016-05-24,0.04877252352539542
2016-05-25,-0.08232050749985209
2016-05-26,-0.17404295051353957
2016-05-27,0.033265236636020434
2016-05-30,-0.43253458850378235
2016-05-31,-0.08470274455820341
2016-06-01,0.181473552760683
2016-06-02,0.16730670762928823
2016-06-03,-0.07921071176885046
2016-06-06,0.33980983877635557
2016-06-07,0.035322033898304045
2016-06-08,-0.24006793678925026
2016-06-13,0.025097980102502276
2016-06-14,0.1379028967768304
2016-06-15,-0.06765536723163942
2016-06-16,-0.018016806722686685
2016-06-17,0.17558239861950134
2016-06-20,-0.03208722741433021
2016-06-21,-0.0929541595925367
2016-06-22,0.08396358543417334
2016-06-23,0.0810793067226876
2016-06-24,0.0827067669172919
2016-06-27,-0.05982339955849879
2016-06-28,0.07433618608734327
2016-06-29,-0.16115656789031418
2016-06-30,0.07604541366906448
2016-07-01,-0.22566092650982228
2016-07-04,0.21797942792729244
2016-07-05,0.2576530612244887
2016-07-06,0.1961253941304888
2016-07-07,-0.14415355682259107
2016-07-08,0.13733112765370709
2016-07-11,-0.32618323925314663
2016-07-12,-0.4992138364779886
2016-07-13,-0.19988479262672942
2016-07-14,0.1728364928267307
2016-07-15,-0.1270085470085448
2016-07-18,0.345874001774621
2016-07-19,0.1716497339138854
2016-07-20,0.009498480243161245
2016-07-21,-0.20159431788129695
2016-07-22,0.1597546012269923
2016-07-25,-0.3873164878599642
2016-07-26,0.029000884173296788
2016-07-27,0.19089834515366527
2016-07-28,-0.054696531791909225
2016-07-29,0.09630173680117511
2016-08-01,0.14619624387588315
2016-08-02,0.006896551724140579
2016-08-03,-0.167024603443729
2016-08-04,0.1197235303508032
2016-08-05,-0.48485655991579746
2016-08-08,0.15629322054678538
2016-08-09,-0.024140738981444792
2016-08-10,-0.0014635568477112532
2016-08-11,-0.015919182524714363
2016-08-12,0.4140633797823682
2016-08-15,-0.24540071983392633
2016-08-16,-0.020904306063600823
2016-08-17,0.010207237859572178
2016-08-18,0.038398622470945706
2016-08-19,-0.08603238866397236
2016-08-22,0.2699910152740371
2016-08-23,0.028651602422092522
2016-08-24,0.05550314465409142
2016-08-25,0.0859995090418096
2016-08-26,-0.08589743589743477
2016-08-29,-0.31761006289308324
2016-08-30,0.025917252146762756
2016-08-31,0.0765723270440236
2016-09-01,-0.2896155228171024
2016-09-02,0.024561403508773234
2016-09-05,0.1336996336996345
2016-09-06,0.04729437229436893
2016-09-07,-0.23544329478595954
2016-09-08,0.23720418271876703
2016-09-09,-0.02932330827067576
2016-09-12,0.3791208791208765
2016-09-13,-0.12348484848484642
2016-09-14,0.1913539609392131
2016-09-19,-0.11231074708364408
2016-09-20,0.09204712812960053
2016-09-21,-0.6087801087801052
2016-09-22,0.17625570776255617
2016-09-23,0.045603426555806674
2016-09-26,0.014928698752229012
2016-09-27,0.061734384475441384
2016-09-28,0.6321914800175628
2016-09-29,-0.06990650141335006
2016-09-30,-0.12458769201771447
2016-10-10,0.04202741702741671
2016-10-11,-0.011486799444190468
2016-10-12,-0.5607416879795358
2016-10-13,-0.14877344877344983
2016-10-14,0.06878018382924966
2016-10-17,0.1603803237466593
2016-10-18,-0.15561190444414386
2016-10-19,0.12636165577341696
2016-10-20,0.3467146714671483
2016-10-21,-0.06261224489795289
2016-10-24,-0.3336060878815148
2016-10-25,0.2431616042960228
2016-10-26,0.2699430199430236
2016-10-27,-0.3794677340074438
2016-10-28,0.12290909090909186
2016-10-31,0.27134986225895363
2016-11-01,-0.12416926624169522
2016-11-02,-0.20512820512820543
2016-11-03,0.12197642196233174
2016-11-04,0.01719901719901247
2016-11-07,-0.10606060606060716
2016-11-08,-0.058636819244903875
2016-11-09,-0.11875000000000238
2016-11-10,0.19717251420788115
2016-11-11,-0.10137561752590281
2016-11-14,0.3854130301972448
2016-11-15,0.0041764517493588955
2016-11-16,0.1358124188771614
2016-11-17,-0.24661831080545826
2016-11-18,-0.09508590423682034
2016-11-21,-0.618893206408698
2016-11-22,0.09492643583124144
2016-11-23,0.1914937308554601
2016-11-24,0.11356113387707018
2016-11-25,0.2069974814512267
2016-11-28,0.22590441863569652
2016-11-29,-0.07471264367816127
2016-11-30,-0.235273706984528
2016-12-01,0.010654173173694347
2016-12-02,-0.17440614958099598
2016-12-05,0.04300882844190043
2016-12-06,-0.05703422053231963
2016-12-07,-0.04586308790938287
2016-12-08,-0.0766410912190966
2016-12-09,0.13131763733994187
2016-12-12,-0.023036376651267877
2016-12-13,0.06111585318538054
2016-12-14,0.06038552321007238
2016-12-15,-0.07291107532653347
2016-12-16,-0.17555555555555485
2016-12-19,0.0027548209366406746
2016-12-20,0.075520357396691
2016-12-21,-0.029279532426662848
2016-12-22,0.1715732826843932
2016-12-23,0.1133928571428582
2016-12-26,-0.09004138299292552
2016-12-27,0.1442075337597718
2016-12-28,0.04147465437788131
2016-12-29,-0.026339419335528552
2016-12-30,-0.046726190476192656
2017-01-03,0.2702921666919854
2017-01-04,-0.4225274725274727
2017-01-05,-0.015999999999999848
2017-01-06,-0.09123406409161325
2017-01-09,0.05028248587570719
2017-01-10,-0.4454022988505766
2017-01-11,0.2820512820512827
2017-01-12,0.06215384615384652
2017-01-13,-0.03287900526064137
2017-01-16,-0.016949152542372833
2017-01-17,0.3187830687830695
2017-01-18,-0.19224422442244354
2017-01-19,-0.14615384615384686
2017-01-20,0.25871459694989074
2017-01-23,-0.052083333333333426
2017-01-24,-0.14570614570614365
2017-01-25,0.10891089108910977
2017-01-26,0.20119047619047598
2017-02-03,-0.3203203203203182
2017-02-06,0.045833333333332886
2017-02-07,0.014029995162067946
2017-02-08,0.08724832214765173
2017-02-09,-0.15674603174603197
2017-02-10,0.22010245539657122
2017-02-13,0.31950301204819687
2017-02-14,0.053718769834401874
2017-02-15,0.10256649266716318
2017-02-16,0.14115866839602365
2017-02-17,-0.13156230234028948
2017-02-20,-0.35460639550684436
2017-02-21,0.06407627271091827
2017-02-22,-0.37568842076277004
2017-02-23,-0.03994101238384738
2017-02-24,0.1339312266203368
2017-02-27,-0.05503215871002582
2017-02-28,-0.06823529411764588
2017-03-01,0.2534411735155222
2017-03-02,-0.12583087682792682
2017-03-03,-0.21577661151396227
2017-03-06,0.07533291058972658
2017-03-07,-0.10494623655914082
2017-03-08,0.07877389584706784
2017-03-09,0.24506239339258162
2017-03-10,0.16040383729211355
2017-03-13,0.11839776432230904
2017-03-14,0.2392473118279585
2017-03-15,-0.21468678715564252
2017-03-16,-0.338638790766448
2017-03-17,-0.027290573123375572
2017-03-20,-0.15315908623173463
2017-03-21,-0.2096376926744009
2017-03-22,0.17104802644371075
2017-03-23,0.2325687031569379
2017-03-24,-0.060228452751816784
2017-03-27,0.08032375740994274
2017-03-28,0.15565559667193068
2017-03-29,-0.31794933947400433
2017-03-30,-0.09882352941176437
2017-03-31,0.07341269841270193
2017-04-05,0.12753697970416078
2017-04-06,-0.15328006217666773
2017-04-07,0.4096910812157462
2017-04-10,0.0632558139534875
2017-04-11,0.34577922077921663
2017-04-12,-0.30204678362573056
2017-04-13,0.08237284761620134
2017-04-14,-0.1432633420822407
2017-04-17,-0.012019858897307759
2017-04-18,-0.6340067340067324
2017-04-19,0.2718274111675123
2017-04-20,0.14419306184012337
2017-04-21,-0.20594300712410898
2017-04-24,-0.04409980482143944
2017-04-25,0.2558072635742542
2017-04-26,-0.21968202191287278
2017-04-27,-0.23794697993156305
2017-04-28,0.22130037717657497
2017-05-02,-0.037875359058580575
2017-05-03,-0.06709633168824963
2017-05-04,0.33811435100510023
2017-05-05,0.21285873279218903
2017-05-08,-0.13226617194518675
2017-05-09,0.08581458570826155
2017-05-10,0.12621389392991
2017-05-11,-0.4487905459469438
2017-05-12,-0.210991629306828
2017-05-15,0.12533034853713854
2017-05-16,-0.002575376884421875
2017-05-17,-0.08159149248258162
2017-05-18,0.22776157491797272
2017-05-19,0.08951907505742897
2017-05-22,-0.1608684717914321
2017-05-23,0.20580985915493083
2017-05-24,0.1006208520659395
2017-05-25,0.03511705685618739
2017-05-26,0.08876353498022517
2017-05-31,0.39174201326100083
2017-06-01,-0.3253209292656323
2017-06-02,-0.0842449720536951
2017-06-05,-0.08388369106586004
2017-06-06,-0.19116987897803622
2017-06-07,-0.6173054587688744
2017-06-08,0.08527193967591946
2017-06-09,-0.01637588001224327
2017-06-12,-0.047387211944171184
2017-06-13,0.09202898550724509
2017-06-14,0.4793716411740401
2017-06-15,0.043797953964196126
2017-06-16,0.05861977084998385
2017-06-19,0.11213434452870788
2017-06-20,-0.07857142857142767
2017-06-21,-0.16006116987383745
2017-06-22,-0.052361853832444794
2017-06-23,-0.09970773381294713
2017-06-26,-0.11148245404631045
2017-06-27,0.08606378331149178
2017-06-28,-0.14062935115566969
2017-06-29,0.10638998682477005
2017-06-30,0.10842803030302894
2017-07-03,0.027251578597541536
2017-07-04,0.2875248273905194
2017-07-05,0.20459976105137806
2017-07-06,-0.12188848323929802
2017-07-07,0.049696969696972806
2017-07-10,0.11568627450980223
2017-07-11,-0.22973940435280352
2017-07-12,-0.02996154667806251
2017-07-13,0.0522531396207844
2017-07-14,0.02256410256409877
2017-07-17,-0.0027131782945747918
2017-07-18,-0.2070810564663037
2017-07-19,-0.10441214414724219
2017-07-20,-0.01349386642435215
2017-07-21,-0.17348608837970478
2017-07-24,-0.14792295402094308
2017-07-25,0.36680327868852214
2017-07-26,0.16068069861173287
2017-07-27,0.038889387279088784
2017-07-28,0.163514578408196
2017-07-31,0.15176607581834156
2017-08-01,-0.3406084656084627
2017-08-02,-0.07056349873843744
2017-08-03,-0.03208241534118544
2017-08-04,-0.1373021734707981
2017-08-07,0.009148634787281396
2017-08-08,0.1447743769685641
2017-08-09,-0.012621397581039088
2017-08-10,0.0337548346558487
2017-08-11,0.2879528241214501
2017-08-14,-0.23346698408720504
2017-08-15,-0.007344605518173308
2017-08-16,-0.06111218590864001
2017-08-17,-0.02805507219830739
2017-08-18,-0.5638954171562882
2017-08-21,0.22852173913043383
2017-08-22,0.06947222649638168
2017-08-23,0.2976495726495707
2017-08-24,-0.022318413458588125
2017-08-25,0.4063664596273295
2017-08-28,-0.029894736842106216
2017-08-29,-0.05947535052012591
2017-08-30,-0.40029021558872213
2017-08-31,0.07637774210807881
2017-09-01,-0.17560192616372294
2017-09-04,0.23567251461988625
2017-09-05,-0.0731225296442678
2017-09-06,0.16417910447761344
2017-09-07,0.048168498168498365
2017-09-08,0.16396171452351144
2017-09-11,-0.5105363984674349
2017-09-12,0.013027194268034108
2017-09-13,0.04705882352940949
2017-09-14,-0.3211754537597214
2017-09-15,-0.12407407407407517
2017-09-18,0.26283380865957884
2017-09-19,0.11063725088165349
2017-09-20,-0.14979854955680885
2017-09-21,0.3432541384338269
2017-09-22,0.02297297297297217
2017-09-25,-0.1203529657477029
2017-09-26,-0.12676213294701247
2017-09-27,0.14339013253146607
2017-09-28,-0.06727099236641398
2017-09-29,-0.009737678855320848
2017-10-09,0.44905640373197747
2017-10-10,0.032978814649628915
2017-10-11,-0.03487005968325826
2017-10-12,-0.20043103448275623
2017-10-13,0.03009803921568052
2017-10-16,-0.5198524514575534
2017-10-17,0.1480898876404505
2017-10-18,0.001362510322047943
2017-10-19,0.15211543164587707
2017-10-20,0.027645687645692113
2017-10-23,0.08573135974992979
2017-10-24,-0.25333333333333496
2017-10-25,0.17234432234431826
2017-10-26,-0.15911193339500196
2017-10-27,-0.08877563114851272
2017-10-30,0.25716064757160567
2017-10-31,0.21025641025641087
2017-11-01,-0.27234432234431666
2017-11-02,0.23154170946022629
2017-11-03,0.06055023335789432
2017-11-06,-0.3205043132050414
2017-11-07,-0.04302477183833217
2017-11-08,-0.02189695550351456
2017-11-09,-0.09587343248760155
2017-11-10,-0.05817418393606599
2017-11-13,0.11868613138685855
2017-11-14,-0.1563472846765827
2017-11-15,0.8008006099885658
2017-11-16,-0.03212005108557065
2017-11-17,0.07980904995629354
2017-11-20,0.2540425531914932
2017-11-21,0.16267886464930986
2017-11-22,-0.9229270139476983
2017-11-23,0.049070295994049204
2017-11-24,0.040588486018416976
2017-11-27,-0.3345230042395422
2017-11-28,-0.049547492471118976
2017-11-29,0.1289668332550412
2017-11-30,0.1939219175765885
2017-12-01,-0.03484274703912919
2017-12-04,-0.004782706846683582
2017-12-05,0.11225878388423463
2017-12-06,0.23458033573141285
2017-12-07,0.005487688490165815
2017-12-08,-0.04464403210948732
2017-12-11,0.16053953980428098
2017-12-12,-0.06960784313725597
2017-12-13,-0.13588325652841785
2017-12-14,-0.4396587312508591
2017-12-15,0.0002673796791419873
2017-12-18,-0.16086644402134823
2017-12-19,-0.2277777777777768
2017-12-20,-0.12009375496583269
2017-12-21,0.40087497121805304
2017-12-22,-0.009655880842318772
2017-12-25,0.017870763866188355
2017-12-26,0.20405982905983092
2017-12-27,0.16740558292281904
2017-12-28,-0.4068489417749095
2017-12-29,0.0459464978558328
2018-01-02,0.31390977443609036
2018-01-03,-0.03874159820761945
2018-01-04,0.011904761904766963
2018-01-05,0.3242463958060217
2018-01-08,0.023039526527153693
2018-01-09,-0.3363599677159023
2018-01-10,0.21007859454461436
2018-01-11,-0.1629032258064533
2018-01-12,-0.19480519480518949
2018-01-15,0.1791979949874711
2018-01-16,0.12697621421450223
2018-01-17,-0.2470680834317202
2018-01-18,0.1483014558949476
2018-01-19,0.19456099456099502
2018-01-22,-0.2851518560179968
2018-01-23,-0.016806722689073267
2018-01-24,0.3034038380725601
2018-01-25,0.16323190689780576
2018-01-26,-0.09118437118437347
2018-01-29,0.05362476242193953
2018-01-30,0.02339181286549028
2018-01-31,-0.42014527845036465
2018-02-01,-0.34548328383944915
2018-02-02,0.06309133489461376
2018-02-05,0.024993317294839813
2018-02-06,0.06891587944220082
2018-02-07,0.14764587525151024
2018-02-08,0.1833494972181095
2018-02-09,-0.09963057030708738
2018-02-12,-0.02981076151390809
2018-02-13,-0.22764603817235943
2018-02-14,0.22651561543172183
2018-02-22,-0.11678832116788133
2018-02-23,0.06606304493628624
2018-02-26,-0.0011969904240752144
2018-02-27,0.05597326649958585
2018-02-28,-0.2602698650674663
2018-03-01,0.16362530413625265
2018-03-02,-0.12637362637362914
2018-03-05,0.2327796234772955
2018-03-06,0.15023122109736428
2018-03-07,0.024847870182553466
2018-03-08,-0.16794871794871877
2018-03-09,0.2286145227321702
2018-03-12,-0.3662402274342552
2018-03-13,0.06187722109957282
2018-03-14,0.0050551470588246425
2018-03-15,0.03583489681050951
2018-03-16,-0.15169144580909494
2018-03-19,0.20057606703325415
2018-03-20,-0.22518033762177342
2018-03-21,0.07609953703703538
2018-03-22,0.1202090592334481
2018-03-23,0.10064102564102981
2018-03-26,0.25071399428804697
2018-03-27,0.062496855029435264
2018-03-28,-0.024691358024689112
2018-03-29,-0.04703832752613402
2018-03-30,-0.0750000000000032
2018-04-02,-0.502906976744188
2018-04-03,0.12016568367025542
2018-04-04,-0.0744146445295893
2018-04-09,-0.01703730272596624
2018-04-10,-0.007299270072989673
2018-04-11,0.149509803921569
2018-04-12,-0.2152255639097731
2018-04-13,0.14242610837438568
2018-04-16,0.14140738940204062
2018-04-17,-0.05744893136585797
2018-04-18,0.1357466063348402
2018-04-19,0.13214285714285193
2018-04-20,0.03311803444782427
2018-04-23,-0.30799599936832234
2018-04-24,0.02686941356005966
2018-04-25,-0.01393095093882099
2018-04-26,-0.02936507936507388
2018-04-27,-0.34074790457769644
2018-05-02,0.49256900212314325
2018-05-03,-0.057709447415330226
2018-05-04,-0.2256155484651295
2018-05-07,0.025736200045115166
2018-05-08,0.33411266190817024
2018-05-09,-0.6043307086614205
2018-05-10,0.15988037879418854
2018-05-11,0.20563417516904792
2018-05-14,0.03772313557916706
2018-05-15,-0.12664191483346182
2018-05-16,0.35180545613617087
2018-05-17,-0.008217377144929365
2018-05-18,0.4968122561613863
2018-05-21,0.18290081763242014
2018-05-22,0.06675033700553365
2018-05-23,0.0357838474430377
2018-05-24,-0.04001050932702627
2018-05-25,-0.7809297282171467
2018-05-28,-0.35434626436781647
2018-05-29,-0.0948525484242805
2018-05-30,-0.1794850100121289
2018-05-31,0.057761246327590755
2018-06-01,0.1973567193675872
2018-06-04,0.20863970588235428
2018-06-05,0.18123752495010167
2018-06-06,0.08963104967544697
2018-06-07,-0.09465883668903771
2018-06-08,0.21396276595744657
2018-06-11,-0.18752228163992946
2018-06-12,-0.20986394557823157
2018-06-13,-0.0654120010636114
2018-06-14,-0.025143678160920988
2018-06-15,-0.27864650089720433
2018-06-19,0.34557739557739414
2018-06-20,0.08199509311921453
2018-06-21,-0.09719553206821854
2018-06-22,0.15289525048796596
2018-06-25,0.057297371303393456
2018-06-26,-0.42211522900145504
2018-06-27,0.06806493089038908
2018-06-28,0.163266825491362
2018-06-29,-0.18025157232704464
2018-07-02,0.07271909744931523
2018-07-03,0.1856287425149728
2018-07-04,-0.16507870753935405
2018-07-05,0.11213762344695896
2018-07-06,0.05292517006802655
2018-07-09,0.09647282174260743
2018-07-10,0.012422360248441257
2018-07-11,0.10381923442495435
2018-07-12,-0.12135306553911307
2018-07-13,-0.03316326530611986
2018-07-16,-0.2627096436058738
2018-07-17,-0.06389294848373608
2018-07-18,-0.1363009464022419
2018-07-19,-0.1420756234915519
2018-07-20,0.23538961038960413
2018-07-23,0.11046605386228153
2018-07-24,0.1399661634565309
2018-07-25,0.29476271506900853
2018-07-26,0.07528269419862384
2018-07-27,-0.20371599203715476
2018-07-30,0.3177701237402748
2018-07-31,-0.1291932496398441
2018-08-01,-0.1040650406504064
2018-08-02,0.07133838383838222
2018-08-03,0.16078669910786592
2018-08-06,-0.35675282125955726
2018-08-07,0.2249082007343943
2018-08-08,-0.07111111111110961
2018-08-09,0.03977272727273018
2018-08-10,-0.2649393090569554
2018-08-13,0.04913227016885451
2018-08-14,-0.28765880217785744
2018-08-15,-0.06698412698413068
2018-08-16,0.24519230769230244
2018-08-17,0.10342598577892544
2018-08-20,0.0564458689458706
2018-08-21,0.06757383640018541
2018-08-22,0.09933554817276072
2018-08-23,-0.6199095022624393
2018-08-24,0.31209811859966763
2018-08-27,-0.06812169312169555
2018-08-28,0.0041284077158514065
2018-08-29,-0.08255178548735728
2018-08-30,0.3989223968822739
2018-08-31,-0.41181410974244304
2018-09-03,-0.018831168831167595
2018-09-04,0.12148962148961934
2018-09-05,0.08993892639022928
2018-09-06,-0.08102338413032212
2018-09-07,0.1844873181872853
2018-09-10,0.4800773694390758
2018-09-11,0.13040566398775713
2018-09-12,0.004461234034900001
2018-09-13,-0.029211229946521044
2018-09-14,-0.13744809747464373
2018-09-17,-0.5102224686395488
2018-09-18,-0.430113666542733
2018-09-19,-0.05777336969997886
2018-09-20,0.07857528332433787
2018-09-21,0.027475117862752717
2018-09-25,-0.1253551083545301
2018-09-26,0.2157447596321995
2018-09-27,0.0984777881329651
2018-09-28,-0.11355650985750776
2018-10-08,0.18341930729550557
2018-10-09,0.3194983984188684
2018-10-10,-0.02371756655175234
2018-10-11,-0.0850259801606078
2018-10-12,0.01722623462814838
2018-10-15,-0.17387073230070593
2018-10-16,-0.1990049751243797
2018-10-17,0.012472738856623068
2018-10-18,0.004566210045662805
2018-10-19,0.046778909164232184
2018-10-22,-0.010902815907128521
2018-10-23,0.009092468691028172
2018-10-24,0.042964480874313406
2018-10-25,-0.018072289156627005
2018-10-26,0.0006404638306467952
2018-10-29,0.19552179128348166
2018-10-30,0.09641721692344886
2018-10-31,0.07244764397906558
2018-11-01,0.003921345760403051
2018-11-02,0.19482196847388839
2018-11-05,-0.1821980371198091
2018-11-06,-0.03248637242834168
2018-11-07,-0.18977957675217139
2018-11-08,-0.017812526923413174
2018-11-09,-0.41793806987451254
2018-11-12,0.2527240435846981
2018-11-13,0.13039031175844823
2018-11-14,0.3376097105508893
2018-11-15,0.007228487987481973
2018-11-16,0.25683620453923967
2018-11-19,-0.2691322782418894
2018-11-20,-0.1616555037856741
2018-11-21,-0.2732217932217939
2018-11-22,0.04042125684195915
2018-11-23,0.14160142110345134
2018-11-26,0.05242990472889346
2018-11-27,0.10849432726222394
2018-11-28,-0.043903690612269924
2018-11-29,-0.002246998281686046
2018-11-30,-0.2937013915264038
2018-12-03,0.22205712585569812
2018-12-04,-0.12339613438005609
2018-12-05,0.015869445186719087
2018-12-06,0.08446282167398092
2018-12-07,0.12179903808657244
2018-12-10,-0.4525061338941453
2018-12-11,0.2389254329616149
2018-12-12,-0.08544159975761215
2018-12-13,-0.2379020979020982
2018-12-14,-0.04676344245296945
2018-12-17,0.21579115804873594
2018-12-18,-0.3085824493731938
2018-12-19,0.29841138605090733
2018-12-20,0.11584541062801756
2018-12-21,-0.0023946580704592157
2018-12-24,-0.07313611235619281
2018-12-25,0.3696410767696921
2018-12-26,-0.31561024688491623
2018-12-27,0.3236198300136902
2018-12-28,0.010797376033900036
2019-01-02,0.16390005242005665
2019-01-03,-0.4262645135459771
2019-01-04,0.34029347874274063
2019-01-07,-0.5271075170644706
2019-01-08,0.04459605804634966
2019-01-09,-0.07627118644067603
2019-01-10,0.07498674064705514
2019-01-11,-0.4047010730710283
2019-01-14,0.2498644986449834
2019-01-15,-0.015789473684209698
2019-01-16,-0.0724637681159412
2019-01-17,0.14523963730570186
2019-01-18,0.6196172248803838
2019-01-21,0.21433691756272394
2019-01-22,0.043478260869566396
2019-01-23,0.04329710144927448
2019-01-24,0.03741952789699455
2019-01-25,-0.4131069733479371
2019-01-28,-0.3817204301075253
2019-01-29,0.07444626743232097
2019-01-30,0.0882383966244733
2019-01-31,-0.10452610160217475
2019-02-01,-0.0662318696272707
2019-02-11,0.15849462365591374
2019-02-12,-0.2626613704071505
2019-02-13,0.20246673158065243
2019-02-14,0.11715738671330882
2019-02-15,0.07400733238053936
2019-02-18,0.06906367041198577
2019-02-19,0.18625933345474344
2019-02-20,-0.45755175057500397
2019-02-21,-0.019317341933748372
2019-02-22,-0.17496562417717376
2019-02-25,-0.09178667510682252
2019-02-26,-0.008347135899242464
2019-02-27,0.2143619128897566
2019-02-28,-0.2556771647680749
2019-03-01,0.6739995217703152
2019-03-04,-0.07239471525559743
2019-03-05,-0.11009843237331729
2019-03-06,-0.07098020280058026
2019-03-07,0.3788788788788784
2019-03-08,-0.7566995460893822
2019-03-11,0.08178438661710155
2019-03-12,0.16592831252517615
2019-03-13,0.10070850202429102
2019-03-14,-0.2952769283044502
2019-03-15,0.24359697164948543
2019-03-18,0.04166666666666396
2019-03-19,-0.15900523560209573
2019-03-20,0.011062861869314891
2019-03-21,0.04917803753550803
2019-03-22,-0.03293396489273151
2019-03-25,-0.07556497175141022
2019-03-26,0.00567251461988004
2019-03-27,-0.1028897849462386
2019-03-28,0.02169801930924773
2019-03-29,0.2609303180731797
2019-04-01,-0.0443139854180504
2019-04-02,0.22190324295587863
2019-04-03,0.04898560209424372
2019-04-04,0.03921568627450862
2019-04-08,-0.43643707482993455
2019-04-09,0.1715456238361293
2019-04-10,-0.3526977087952721
2019-04-11,-0.10372045057909353
2019-04-12,0.07563025210084325
2019-04-15,0.30468750000000056
2019-04-16,-0.21563549160671439
2019-04-17,0.21971211515393754
2019-04-18,0.22648484848485495
2019-04-19,0.044937123785681654
2019-04-22,0.09127768987341965
2019-04-23,0.13843119053144662
2019-04-24,-0.029881169225431894
2019-04-25,-0.04821276595745093
2019-04-26,-0.21416343499982288
2019-04-29,-0.30221518987342055
2019-04-30,-0.016129032258065865
2019-05-06,0.0909143623364398
2019-05-07,-0.22972819473024342
2019-05-08,0.09907452677218709
2019-05-09,0.11658208845254152
2019-05-10,0.13939664140288383
2019-05-13,-0.09738806292778389
2019-05-14,0.6201790559257863
2019-05-15,0.006667281328966218
2019-05-16,0.020417911547459602
2019-05-17,-0.13149150306296278
2019-05-20,0.0666666666666636
2019-05-21,-0.7341786156841923
2019-05-22,0.028258291416186465
2019-05-23,0.2015922330097089
2019-05-24,0.040094861660079466
2019-05-27,0.025250710971413168
2019-05-28,0.2674740893506911
2019-05-29,-0.09674206857305409
2019-05-30,-0.20239820315896268
2019-05-31,-0.036929889298894084
2019-06-03,-0.10570011701120052
2019-06-04,0.003957067799524551
2019-06-05,0.07120791664484911
2019-06-06,-0.08079109944781593
2019-06-10,-0.12918034692157837
2019-06-11,0.09251173096976097
2019-06-12,0.07200727124567158
2019-06-13,0.15954871617532598
2019-06-14,0.01679178906901628
2019-06-17,0.11462591566298064
2019-06-18,-0.17885239760239788
2019-06-19,-0.09918294731986961
2019-06-20,-0.19851499019332913
2019-06-21,0.007537790816119529
2019-06-24,-0.0008260242700949176
2019-06-25,0.11621711621711513
2019-06-26,-0.006177029595437738
2019-06-27,-0.0997974197675682
2019-06-28,-0.020389075944630457
2019-07-01,0.307013047530287
2019-07-02,-0.008478381922365491
2019-07-03,0.025862068965517567
2019-07-04,0.1238938053097355
2019-07-05,0.06148989898989583
2019-07-08,-0.44496211692864207
2019-07-09,-0.029996963870051248
2019-07-10,-0.060606060606062995
2019-07-11,0.01612903225806569
2019-07-12,0.04120370370370577
2019-07-15,0.060626761164716034
2019-07-16,0.11747967479674631
2019-07-17,0.15804195804196053
2019-07-18,0.021254145312026233
2019-07-19,-0.014514514514513646
2019-07-22,0.1477119482154109
2019-07-23,-0.17011019283746537
2019-07-24,-0.16078431372549173
2019-07-25,-0.08086143843965665
2019-07-26,-0.027573027573030717
2019-07-29,-0.19298284845367647
2019-07-30,0.09840476648087654
2019-07-31,0.10357830134706496
2019-08-01,0.08767715589718823
2019-08-02,0.29605579605579974
2019-08-05,0.307231422151948
2019-08-06,-0.011627906976744293
2019-08-07,-0.1096743295019174
2019-08-08,-0.02554217860971134
2019-08-09,-0.46316646316646587
2019-08-12,-0.33519512548962604
2019-08-13,0.05235602094240897
2019-08-14,0.19879767827529388
2019-08-15,-0.03187257544875009
2019-08-16,0.10519688644688674
2019-08-19,0.21228352457975405
2019-08-20,-0.13832887162114277
2019-08-21,0.07361706319885394
2019-08-22,0.0008701800184921296
2019-08-23,0.07113095238095307
2019-08-26,-0.08646191109611173
2019-08-27,0.2569130216189057
2019-08-28,-0.40734985907349597
2019-08-29,0.10408879827840153
2019-08-30,0.025245098039219094
2019-09-02,0.02496401050046527
2019-09-03,-0.2611041053664017
2019-09-04,0.24942460708883746
2019-09-05,-0.18657070547295368
2019-09-06,-0.08179271708684045
2019-09-09,0.009106758281201987
2019-09-10,0.02516393442623123
2019-09-11,-0.09852098087391878
2019-09-12,0.07222871615040066
2019-09-16,0.17376823561794957
2019-09-17,0.08775837952649586
2019-09-18,0.31028301886792214
2019-09-19,0.0080213903743286
2019-09-20,0.010694108151736147
2019-09-23,-0.22982101817675576
2019-09-24,-0.25494566731679785
2019-09-25,-0.48184215865287094
2019-09-26,0.17925736235595657
2019-09-27,0.011904761904759809
2019-09-30,0.25750205792113146
2019-10-08,0.19999999999999837
2019-10-09,0.2521841397849496
2019-10-10,-0.10303358613218105
2019-10-11,-0.0298507462686536
2019-10-14,-0.1849657588788088
2019-10-15,0.03131109833237623
2019-10-16,-0.04050062189054969
2019-10-17,-0.17872841444269852
2019-10-18,0.0777549378854207
2019-10-21,0.024468864468865405
2019-10-22,-0.1963165662280169
2019-10-23,-0.021481994003492762
2019-10-24,0.18268140589569354
2019-10-25,-0.14857533255636265
2019-10-28,-0.13782515991470914
2019-10-29,0.25874657742622376
2019-10-30,0.04635761589403866
2019-10-31,0.03504521963824187
2019-11-01,0.1441494018091626
2019-11-04,0.2186981757877254
2019-11-05,-0.28092959671906825
2019-11-06,-0.015267175572516101
2019-11-07,0.007751937984492821
2019-11-08,-0.13700344072568163
2019-11-11,0.17658730158730326
2019-11-12,0.24489205062453173
2019-11-13,0.015267175572516582
2019-11-14,-0.20542635658914377
2019-11-15,0.21352517985611574
2019-11-18,-0.29960317460317465
2019-11-19,-0.19617033209149354
2019-11-20,0.1258741258741282
2019-11-21,0.19622995811064542
2019-11-22,-0.10255813953488448
2019-11-25,-0.0607142857142864
2019-11-26,0.1328869953337392
2019-11-27,-0.13212412587412833
2019-11-28,-0.15560513605463597
2019-11-29,0.08328929518161757
2019-12-02,0.13684138665501447
2019-12-03,-0.05796140127657219
2019-12-04,-0.033945702225631064
2019-12-05,0.12176491330886449
2019-12-06,-0.26739782231339837
2019-12-09,0.16144432763070038
2019-12-10,0.2621898232469254
2019-12-11,-0.0035201447689042695
2019-12-12,-0.00019704433497491625
2019-12-13,0.17219152854511774
2019-12-16,-0.2499340659340667
2019-12-17,-0.4306041335453067
2019-12-18,0.0729129272865076
2019-12-19,-0.020101317122592728
2019-12-20,0.022447166093575922
2019-12-23,-0.04290947148090139
2019-12-24,0.2093848226313426
2019-12-25,-0.11190384720926431
2019-12-26,-0.17811882339262836
2019-12-27,0.16810640340051589
2019-12-30,0.06785993085759282
2019-12-31,0.249690089384752
2020-01-02,0.16378784799837565
2020-01-03,0.30768442622950815
2020-01-06,-0.059466409514618596
2020-01-07,0.12271437578814112
2020-01-08,-0.0205128205128281
2020-01-09,0.047490347490346835
2020-01-10,-0.18488924050633015
2020-01-13,-0.2587242330790477
2020-01-14,-0.07797137073452505
2020-01-15,-0.3642946317103584
2020-01-16,-0.33708206686930364
2020-01-17,0.07877364910847845
2020-01-20,0.0651173925682717
2020-01-21,-0.06969346443030659
2020-01-22,-0.08603216567526147
2020-01-23,0.5714736012608388
2020-02-03,-0.015895278167364493
2020-02-04,0.2218884356741279
2020-02-05,0.10246374629936111
2020-02-06,0.23231407100285195
2020-02-07,-0.508885709744079
2020-02-10,-0.0719903867161921
2020-02-11,-0.2283856805133398
2020-02-12,-0.04782911539354388
2020-02-13,-0.12928886091881758
2020-02-14,0.17776988053907677
2020-02-17,0.0008685402320247199
2020-02-18,-0.1053391053391053
2020-02-19,0.06598693502824884
2020-02-20,0.12507936507936496
2020-02-21,-0.16228191636665787
2020-02-24,0.09104938271604646
2020-02-25,0.3928311688311643
2020-02-26,0.030279820261436052
2020-02-27,0.062115127175367074
2020-02-28,0.3193236714975857
2020-03-02,0.2527258566978235
2020-03-03,-0.18789891696750455
2020-03-04,-0.182528295871193
2020-03-05,-0.16541843047866872
2020-03-06,-0.27292250233426874
2020-03-09,-0.6843007802452213
2020-03-10,-0.1639206319046715
2020-03-11,0.7527333894028571
2020-03-12,0.18524774774774455
2020-03-13,0.4047883304265132
2020-03-16,0.6041939711664484
2020-03-17,0.13370190181335606
2020-03-18,-0.7809034079451476
2020-03-19,-0.033932552954289416
2020-03-20,-0.47700471698113495
2020-03-23,-0.22539682539682535
2020-03-24,0.009098920467060899
2020-03-25,0.0408601454435609
2020-03-26,-0.07829862984140709
2020-03-27,0.11966463414634265
2020-03-30,-0.0985935302391002
2020-03-31,-0.0007632639295631245
2020-04-01,0.06617925992343639
2020-04-02,0.13663594470046206
2020-04-03,0.15050941648656896
2020-04-07,0.1400076716532415
2020-04-08,-0.05833565653749799
2020-04-09,-0.0236161035226428
2020-04-10,-0.2851979345955278
2020-04-13,-0.17582881253767324
2020-04-14,-0.045531456698969124
2020-04-15,0.19360218314129812
2020-04-16,0.23961710934805242
2020-04-17,0.1603718243761578
2020-04-20,-0.016453447050462616
2020-04-21,0.29053207012063603
2020-04-22,-0.23837342497136352
2020-04-23,-0.2042780581553444
2020-04-24,0.0208160851567115
2020-04-27,0.16397464731139
2020-04-28,-0.46457809167422454
2020-04-29,0.08110678772157337
2020-04-30,-0.08714900594383805
2020-05-06,-0.002916381863750015
2020-05-07,-0.20002321801718354
2020-05-08,0.18873875757856176
2020-05-11,-0.040212246706436805
2020-05-12,0.07020301806185393
2020-05-13,-0.01805318062986894
2020-05-14,0.107536171755903
2020-05-15,-0.0781680133327379
2020-05-18,0.0932204785270183
2020-05-19,-0.00012383254149351056
2020-05-20,-0.1267445503747577
2020-05-21,-0.038073212319605344
2020-05-22,0.19046840958605626
2020-05-25,0.10292201749488272
2020-05-26,0.04247164126196547
2020-05-27,0.050754519314356705
2020-05-28,0.059577966566184096
2020-05-29,-0.20311085972850504
2020-06-01,-0.19047619047619108
2020-06-02,-0.09025638414339437
2020-06-03,0.09025533290238993
2020-06-04,0.0613892454714022
2020-06-05,0.053302675585280804
2020-06-08,-0.12716348309568778
2020-06-09,0.11263953095050352
2020-06-10,-0.05707282913165078
2020-06-11,-0.0692206707244298
2020-06-12,0.1326380728554685
2020-06-15,0.24973843900397869
2020-06-16,0.12489795918367194
2020-06-17,0.05392156862745026
2020-06-18,-0.12274475007394352
2020-06-19,-0.19295525033230193
2020-06-22,-0.21358024691358263
2020-06-23,-0.3405394605394596
2020-06-24,0.002243270189429509
2020-06-29,0.2826086956521745
2020-06-30,0.26264637002341984
2020-07-01,0.354192229038855
2020-07-02,0.1145236672874864
2020-07-03,0.036526783286507505
2020-07-06,-0.13620981387478936
2020-07-07,-0.21847290640394185
2020-07-08,-0.34065056237218694
2020-07-09,0.1313074246974515
2020-07-10,0.12884450616007131
2020-07-13,-0.08185872195075558
2020-07-14,0.13793103448275884
2020-07-15,0.19251893939393927
2020-07-16,-0.037107612075017185
2020-07-17,-0.3585499501856719
2020-07-20,0.11607848607430124
2020-07-21,-0.027669076009391794
2020-07-22,-0.13909895414320167
2020-07-23,-0.12394569844967447
2020-07-24,0.35331284153005627
2020-07-27,-0.14432263461453831
2020-07-28,-0.06569015097052444
2020-07-29,0.12947847753243236
2020-07-30,0.09004739336492851
2020-07-31,-0.26384132420091344
2020-08-03,0.114646017699115
2020-08-04,-0.21743775548123284
2020-08-05,-0.12560679611650394
2020-08-06,0.1599999999999993
2020-08-07,-0.01669028499448956
2020-08-10,-0.05423076923076939
2020-08-11,0.5146348394430189
2020-08-12,0.12341370558375636
2020-08-13,-0.2652631578947371
2020-08-14,0.055319933616080036
2020-08-17,0.03608470181503934
2020-08-18,-0.4975264507276157
2020-08-19,-0.22874587341592523
2020-08-20,0.24812030075187888
2020-08-21,0.14371657754010744
2020-08-24,-0.13765930171178586
2020-08-25,0.1870439880224349
2020-08-26,0.10533216783216841
2020-08-27,-0.276190476190472
2020-08-28,-0.21097285067873356
2020-08-31,0.2295010213014292
2020-09-01,0.2091752731626999
2020-09-02,0.037706611570249786
2020-09-03,0.37062146892655146
2020-09-04,0.2729188619599563
2020-09-07,-0.0021867764342690804
2020-09-08,-0.2771836007130117
2020-09-09,0.24244044725328023
2020-09-10,-0.3967084254482934
2020-09-11,-0.26672964887419026
2020-09-14,-0.19683145638480337
2020-09-15,0.19729206963249482
2020-09-16,-0.30739064856711984
2020-09-17,0.24392733210859652
2020-09-18,0.07672786983131527
2020-09-21,0.10374539943710391
2020-09-22,0.08567000140904442
2020-09-23,0.10641025641025842
2020-09-24,-0.07357808050489116
2020-09-25,0.1351702351702361
2020-09-28,-0.07714830898802424
2020-09-29,-0.36482784924239575
2020-09-30,-0.1685654008438844
2020-10-09,-0.04824239458445349
2020-10-12,-0.2034778965011494
2020-10-13,0.06372549019608334
2020-10-14,0.16415417945477417
2020-10-15,0.22146395156852094
2020-10-16,0.27308579055939713
2020-10-19,0.06130150958791889
2020-10-20,0.006849315068488611
2020-10-21,0.022226131832045106
2020-10-22,0.06466297052815995
2020-10-23,-0.478375908019432
2020-10-26,0.13322368421052594
2020-10-27,0.007436399217221694
2020-10-28,0.13428188176678887
2020-10-29,-0.18944291184584558
2020-10-30,0.4503957580880621
2020-11-02,-0.03461021505376057
2020-11-03,0.01617113850616255
2020-11-04,-0.26611392492888347
2020-11-05,0.03845494739006658
2020-11-06,-0.19074675324675242
2020-11-09,-0.14293866762780072
2020-11-10,0.012226074037395424
2020-11-11,0.06559502203785594
2020-11-12,-0.0326229395130673
2020-11-13,-0.20535714285713869
2020-11-16,0.23579888268156385
2020-11-17,0.026761517615170656
2020-11-18,0.1500341763499651
2020-11-19,0.10263715391920353
2020-11-20,0.19954764336786207
2020-11-23,-0.12977777777777982
2020-11-24,-0.06944444444444262
2020-11-25,0.03846696781479188
2020-11-26,-0.08674726083632978
2020-11-27,0.056432087374489875
2020-11-30,-0.10069819005728335
2020-12-01,-0.10622893950623939
2020-12-02,-0.255498018545368
2020-12-03,0.21438185212336566
2020-12-04,0.021884196375304116
2020-12-07,0.1241380682916847
2020-12-08,0.1411634373228322
2020-12-09,0.11962845332797879
2020-12-10,-0.2357413498319645
2020-12-11,-0.14312366737739932
2020-12-14,0.02509261652450926
2020-12-15,-0.0393397841602049
2020-12-16,-0.10176991150442614
2020-12-17,0.000665128556880619
2020-12-18,-0.02455357142857327
2020-12-21,0.025290480758983117
2020-12-22,0.0714155956219633
2020-12-23,0.29500662648027065
2020-12-24,0.04609002612632356
2020-12-25,0.03322704081632827
2020-12-28,-0.262711864406781
2020-12-29,-0.12342056568860735
2020-12-30,-0.3182367149758456
2020-12-31,-0.016747554504991102
2021-01-04,0.2996750292473658
2021-01-05,0.14636209813874754
2021-01-06,0.11340507506310787
2021-01-07,0.18382352941176522
2021-01-08,0.06188175753392964
2021-01-11,-0.1431699272065498
2021-01-12,0.11267404643956504
2021-01-13,-0.1047889362999109
2021-01-14,-0.08198955257778869
2021-01-15,-0.02122676035719344
2021-01-18,-0.29059546970539224
2021-01-19,-0.2013742172481368
2021-01-20,0.05843241551939801
2021-01-21,-0.07157081893923939
2021-01-22,0.007445537273645251
2021-01-25,0.15057923593916067
2021-01-26,0.02128544109087281
2021-01-27,0.02782324058920018
2021-01-28,0.06387264457439806
2021-01-29,-0.08695008146941115
2021-02-01,0.04881725417439435
2021-02-02,0.13438596491228827
2021-02-03,-0.13400293973542313
2021-02-04,0.09424447922100708
2021-02-05,-0.022398447715863565
2021-02-08,-0.03490091688849525
2021-02-09,0.04892156862744804
2021-02-10,0.11567562946180295
2021-02-18,-0.09627501853224804
2021-02-19,0.35820155876920173
2021-02-22,0.03053553437185235
2021-02-23,0.1096749226006175
2021-02-24,-0.011400603733770578
2021-02-25,0.2580029619503297
2021-02-26,-0.29684382586957037
2021-03-01,0.1180151902658314
2021-03-02,-0.24999159239952742
2021-03-03,0.05481152604752439
2021-03-04,-0.3603283508943856
2021-03-05,0.15928043687760932
2021-03-08,-0.15008361204013537
2021-03-09,0.03495644753410886
2021-03-10,0.002244323182537214
2021-03-11,0.122874446773815
2021-03-12,-0.30954545454545285
2021-03-15,-0.07488344988345041
2021-03-16,-0.06106134636265098
2021-03-17,-0.16892848713712488
2021-03-18,0.0023456790123469323
2021-03-19,0.6194444444444436
2021-03-22,0.04545454545454593
2021-03-23,0.015888278388278117
2021-03-24,0.07600723050717922
2021-03-25,0.04585657370517803
2021-03-26,-0.7175213675213679
2021-03-29,0.10894660894660986
2021-03-30,0.035044557432619874
2021-03-31,-0.04901034903396109
2021-04-01,0.041066503217900445
2021-04-02,0.26797488226059596
2021-04-06,-0.15579975579975505
2021-04-07,0.09899654271017491
2021-04-08,0.10755574454514231
2021-04-09,-0.1479890667707936
2021-04-12,-0.005826920932306118
2021-04-13,0.09230769230768973
2021-04-14,-0.018322564534754664
2021-04-15,0.06233638743455276
2021-04-16,0.0996374184191427
2021-04-19,-0.049256223436551984
2021-04-20,-0.059113300492609176
2021-04-21,-0.11836510369963436
2021-04-22,-0.07152777777777525
2021-04-23,-0.1263975155279493
2021-04-26,0.10837795626952434
2021-04-27,0.23727422003284027
2021-04-28,0.013689184012260117
2021-04-29,-0.15997732426303773
2021-04-30,0.1629148443529707
2021-05-06,-0.09819277108433855
2021-05-07,-0.3009679370840898
2021-05-10,0.1305691056910556
2021-05-11,0.30953424314510825
2021-05-12,0.112921713807739
2021-05-13,0.12555555555555536
2021-05-14,0.4120632158909675
2021-05-17,0.022307692307693902
2021-05-18,-0.13709706017943774
2021-05-19,-0.23946298517066808
2021-05-20,-0.1112698412698415
2021-05-21,-0.4855352413652808
2021-05-24,-0.27275136235895
2021-05-25,-0.1303325434322385
2021-05-26,-0.0323293219925823
2021-05-27,0.2187639061736334
2021-05-28,0.31255811278561446
2021-05-31,0.1512770033845889
2021-06-01,0.14206396461708798
2021-06-02,0.13410441660422412
2021-06-03,-0.3497162871260142
2021-06-04,-0.22790697674418536
2021-06-07,0.1381544502617815
2021-06-08,-0.11618094397017034
2021-06-09,-0.05032258064516163
2021-06-10,0.2929292929292925
2021-06-11,0.2596099697570137
2021-06-15,-0.2037794502617783
2021-06-16,0.03586913677572049
2021-06-17,-0.01192982456140306
2021-06-18,-0.04554513747338784
2021-06-21,-0.26831401298773816
2021-06-22,0.21020047169811004
2021-06-23,0.18806497175141076
2021-06-24,0.0074893913484060624
2021-06-25,-0.04775045582220686
2021-06-28,0.14160854595214867
2021-06-29,-0.25360324947588964
2021-06-30,-0.3280797101449272
2021-07-01,0.1005648351268729
2021-07-02,-0.22679963208597162
2021-07-05,-0.01034763399604666
2021-07-06,0.24044669669669777
2021-07-07,0.4589371980676333
2021-07-08,-0.04853041695147153
2021-07-09,0.19383259911894057
2021-07-12,-0.04353765740080631
2021-07-13,-0.2088065593683584
2021-07-14,-0.5278225084988375
2021-07-15,0.25588427590716056
2021-07-16,-0.054621848739495917
2021-07-19,0.07705314009661687
2021-07-20,0.14946210853454595
2021-07-21,0.29902325350785874
2021-07-22,-0.5824516448999832
2021-07-23,0.05462184873949728
2021-07-26,-0.09792038027332166
2021-07-27,-0.06522418559923285
2021-07-28,-0.022133990507484158
2021-07-29,0.2560063510633862
2021-07-30,0.017045454545451123
2021-08-02,0.17079437158306887
2021-08-03,0.0856497175141262
2021-08-04,-0.05260942760942824
2021-08-05,0.051834957495333046
2021-08-06,0.0616582491582517
2021-08-09,0.10585752991104398
2021-08-10,-0.17122807017543945
2021-08-11,-0.02395252395252398
2021-08-12,0.0019530550732174828
2021-08-13,-0.16786948089091613
2021-08-16,-0.4589282316707678
2021-08-17,0.08702437342573972
2021-08-18,0.0603624162729602
2021-08-19,0.15950688925093895
2021-08-20,0.10305466607609956
2021-08-23,0.1763915354119241
2021-08-24,0.028475541409895062
2021-08-25,-0.0131520373090259
2021-08-26,-0.39730900092792953
2021-08-27,0.23309906291834223
2021-08-30,-0.027595791145521423
2021-08-31,-0.12480094518929753
2021-09-01,-0.028268748257597603
2021-09-02,0.3374630597863155
2021-09-03,-0.4512890270760467
2021-09-06,0.24236192714453542
2021-09-07,0.10637705374547482
2021-09-08,-0.01135430916552628
2021-09-09,-0.08433734939758811
2021-09-10,0.192673168292072
2021-09-13,-0.2848171701112875
2021-09-14,0.16982772245930203
2021-09-15,-0.0110932905640196
2021-09-16,-0.13253012048193136
2021-09-17,0.1916279069767466
2021-09-22,0.19155865736124814
2021-09-23,-0.29269695227141823
2021-09-24,0.3411577343858172
2021-09-27,0.2731297282151864
2021-09-28,-0.2392885375494092
2021-09-29,0.051298485495894226
2021-09-30,0.21136089923725188
2021-10-08,-0.3400083090984616
2021-10-11,-0.2453362438082441
2021-10-12,0.09417225847963973
2021-10-13,-0.08722814968684087
2021-10-14,-0.18558049855391726
2021-10-15,-0.039509763190695324
2021-10-18,0.11683767179682158
2021-10-19,-0.034883720930232245
2021-10-20,-0.03458542930123719
2021-10-21,0.26001724722042585
2021-10-22,0.12043843243008359
2021-10-25,-0.11793202518491297
2021-10-26,-0.03745318352059816
2021-10-27,-0.12781856959120053
2021-10-28,-0.2048124073440551
2021-10-29,-0.1202132325652015
2021-11-01,0.1870333499253361
2021-11-02,0.060284233748907026
2021-11-03,0.1495796275708772
2021-11-04,0.22986863515498013
2021-11-05,0.2981342897541109
2021-11-08,-0.13558402084238255
2021-11-09,0.014320652558070756
2021-11-10,0.034368336886991445
2021-11-11,-0.2935476988340425
2021-11-12,-0.2804778364239331
2021-11-15,-0.01566122301787368
2021-11-16,-0.05820433436532671
2021-11-17,-0.06926657037393638
2021-11-18,0.12169312169312252
2021-11-19,-0.03390272673653465
2021-11-22,0.00999392261462572
2021-11-23,-0.0564983888292184
2021-11-24,-0.041699949628147596
2021-11-25,-0.1340376484459359
2021-11-26,0.2882457881237807
2021-11-29,0.09017117512448924
2021-11-30,0.18605067364080863
2021-12-01,0.06320532597223248
2021-12-02,0.15585524690587027
2021-12-03,-0.23683841413576373
2021-12-06,-0.18023738088966468
2021-12-07,-0.14999342916625313
2021-12-08,-0.043290043290041345
2021-12-09,-0.15691779238365983
2021-12-10,-0.017375481661195777
2021-12-13,0.2068667630986828
2021-12-14,-0.1085062240663906
2021-12-15,0.06093710211357212
2021-12-16,0.32121465749484013
2021-12-17,0.05675715262181476
2021-12-20,-0.09772709273778343
2021-12-21,0.3004854368932049
2021-12-22,0.011888806155372876
2021-12-23,-0.33514166587700656
2021-12-24,-0.10310667834759711
2021-12-27,-0.09040717736370008
2021-12-28,-0.09785385794583651
2021-12-29,-0.05731364275668039
2021-12-30,0.10990632318501033
2021-12-31,0.2463969865705849
2022-01-04,0.14139194139194125
2022-01-05,-0.17518059855521126
2022-01-06,0.09481688392302894
2022-01-07,0.017142857142860284
2022-01-10,-0.12324972604407584
2022-01-11,-0.030609804703067147
2022-01-12,0.16846738695478305
2022-01-13,-0.09142935004769019
2022-01-14,0.04499999999999816
2022-01-17,-0.03439464916455681
2022-01-18,0.17073046835314176
2022-01-19,0.024329566537356677
2022-01-20,0.08616630567850132
2022-01-21,-0.015909090909092146
2022-01-24,0.13699764992307112
2022-01-25,-0.3450046685340797
2022-01-26,-0.1155309527522208
2022-01-27,-0.14873258351519184
2022-01-28,-0.06805194805194496
2022-02-07,-0.16262375449654468
2022-02-08,0.18242684119461416
2022-02-09,0.11472746331236788
2022-02-10,0.1389045736871782
2022-02-11,0.10480466036021514
2022-02-14,0.1344916344916332
2022-02-15,0.07594744564942292
2022-02-16,-0.10504314994605957
2022-02-17,0.015166042011684686
2022-02-18,-0.11301343271993322
2022-02-21,-0.19055264599818916
2022-02-22,0.05533742170162151
2022-02-23,-0.04746838715014066
2022-02-24,-0.03923952949980371
2022-02-25,0.22005116725295873
2022-02-28,0.1720845494954124
2022-03-01,-0.1251712517125182
2022-03-02,0.15148814528333568
2022-03-03,0.023849573471105705
2022-03-04,-0.15882983368395934
2022-03-07,0.035142639736211234
2022-03-08,0.1630618192974382
2022-03-09,-0.0051521598372020055
2022-03-10,0.27885437446565703
2022-03-11,0.06669381936666287
2022-03-14,-0.13839823737092086
2022-03-15,-0.24657140140996617
2022-03-16,-0.04687545017142676
2022-03-17,-0.5905040707093476
2022-03-18,-0.2609632795864064
2022-03-21,-0.009230660743248006
2022-03-22,-0.11886234514372235
2022-03-23,-0.11224836490274283
2022-03-24,0.1539083663355785
2022-03-25,0.351692296945858
2022-03-28,0.0665321057799632
2022-03-29,0.13770908223637887
2022-03-30,0.23891047783534786
2022-03-31,0.2542553450754983
2022-04-01,-0.22544261294261206
2022-04-06,0.03652714402445912
2022-04-07,0.1470218590862026
2022-04-08,-0.25247515593614467
2022-04-11,-0.29140054626081485
2022-04-12,0.004092942247555589
2022-04-13,-0.14366115309411812
2022-04-14,-0.3205026455026453
2022-04-15,0.22012740437333056
2022-04-18,0.32126696832579044
2022-04-19,-0.029181553743934295
2022-04-20,0.11974670334882749
2022-04-21,0.24914965986394494
2022-04-22,-0.21294870035128444
2022-04-25,-0.1983853863958467
2022-04-26,0.34338807565571583
2022-04-27,-0.05328366362174117
2022-04-28,0.040160537222602176
2022-04-29,0.10699713892691502
2022-05-05,-0.02942333077938398
2022-05-06,-0.4013175115609461
2022-05-09,0.07765359839413019
2022-05-10,-0.0064296633563497435
2022-05-11,0.11874950129175223
2022-05-12,0.05256316748909402
2022-05-13,0.13428261359872093
2022-05-16,-0.07859014524803118
2022-05-17,-0.18905967205219293
2022-05-18,-0.275874501862684
2022-05-19,0.015267862740262584
2022-05-20,0.0027036877711433247
2022-05-23,-0.1213455540662037
2022-05-24,-0.004864690974430527
2022-05-25,0.2663176774524606
2022-05-26,-0.15040202049265547
2022-05-27,0.024390243902436062
2022-05-30,0.33687767886580966
2022-05-31,0.13931071744703533
2022-06-01,-0.07811830055739223
2022-06-02,0.17315563541978493
2022-06-06,-0.09387664873627538
2022-06-07,-0.2739898989899008
2022-06-08,-0.00582420737459504
2022-06-09,-0.154091488457727
2022-06-10,-0.02115663726694095
2022-06-13,0.15072431585898421
2022-06-14,0.07596763701414855
2022-06-15,0.21928383029520054
2022-06-16,0.06149231061325403
2022-06-17,0.037374899554388274
2022-06-20,0.13482048313543754
2022-06-21,0.16804360384583433
2022-06-22,-0.2529808066038603
2022-06-23,0.13247833813177579
2022-06-24,-0.04341352594040858
2022-06-27,-0.30574016850966723
2022-06-28,-0.28416917614503634
2022-06-29,-0.10917290061657428
2022-06-30,-0.08123464105826336
2022-07-01,0.02798142717497418
2022-07-04,0.013681774349083672
2022-07-05,0.09805836818548637
2022-07-06,0.4281705589810796
2022-07-07,0.022550968575388488
2022-07-08,-0.15438988095237902
2022-07-11,0.14644025157232649
2022-07-12,0.034570991092731734
2022-07-13,-0.4270202383152316
2022-07-14,-0.032983553505447134
2022-07-15,0.2640745656370637
2022-07-18,0.0492780582868273
2022-07-19,0.02900275172629506
2022-07-20,0.08837479634185502
2022-07-21,-0.02697449036426469
2022-07-22,-0.18526820036666644
2022-07-25,-0.2827987175601735
2022-07-26,-0.08252412036209601
2022-07-27,-0.0030777045914403556
2022-07-28,0.16664327737896134
2022-07-29,-0.03161395046043901
2022-08-01,0.16167788315683945
2022-08-02,0.007517662283498906
2022-08-03,0.08930018150613539
2022-08-04,-0.08667233226177518
2022-08-05,0.032953766576935245
2022-08-08,0.10200131546424082
2022-08-09,0.07661335695736193
2022-08-10,-0.1405395296737258
2022-08-11,-0.03703900794441043
2022-08-12,-0.010658671424750327
2022-08-15,-0.33383494252355955
2022-08-16,-0.12338352879801531
2022-08-17,0.13280866358098709
2022-08-18,-0.1789264413518897
2022-08-19,0.4621219028707864
2022-08-22,0.3032020219106667
2022-08-23,0.26964057222211874
2022-08-24,-0.004403651430216295
2022-08-25,0.24110260715499862
2022-08-26,-0.49937400342526617
2022-08-29,-0.020894252270034074
2022-08-30,-0.3617269239067075
2022-08-31,-0.03790598203139548
2022-09-01,-0.16324814130081158
2022-09-02,-0.02854115593966597
2022-09-05,-0.16953050905051667
2022-09-06,0.1871516517341828
2022-09-07,0.028749366592025472
2022-09-08,0.09272124480876642
2022-09-09,0.05850264502824335
2022-09-13,0.18032585331936815
2022-09-14,0.07474076769146801
2022-09-15,-0.17348863781149487
2022-09-16,-0.0029105305723240178
2022-09-19,0.03230308116532478
2022-09-20,-0.04362566300204118
2022-09-21,-0.1584513096807474
2022-09-22,0.33896917692220896
2022-09-23,0.05447113780447033
2022-09-26,0.014278461448606422
2022-09-27,-0.002379913165330448
2022-09-28,-0.011584974315068455
2022-09-29,-0.20603846634194992
2022-09-30,-0.12079608343976073
2022-10-10,0.008617670371802024
2022-10-11,-0.06269859544093959
2022-10-12,0.06540819834963221
2022-10-13,-0.1563538851395851
2022-10-14,0.18237662605822894
2022-10-17,0.07933794291214324
2022-10-18,0.038837209302327064
2022-10-19,0.1535588155392564
2022-10-20,0.29316710040549554
2022-10-21,-0.17198409505100998
2022-10-24,-0.08612948417620245
2022-10-25,-0.034585987261149045
2022-10-26,-0.23888888888888693
2022-10-27,-0.11454381210478623
2022-10-28,0.32454661706580523
2022-10-31,-0.056360888095943154
2022-11-01,0.2350621777373391
2022-11-02,0.16086956521738865
2022-11-03,-0.05360466620880704
2022-11-04,-0.35215584895590996
2022-11-07,0.11250683374017331
2022-11-08,-0.2998626570368405
2022-11-09,-0.04110532355680299
2022-11-10,0.16118699186094798
2022-11-11,0.1426850440593615
2022-11-14,-0.06632958628644905
2022-11-15,0.12718006086669953
2022-11-16,-0.10542857732492329
2022-11-17,-0.23927271585113685
2022-11-18,-0.15705244195678203
2022-11-21,0.24269444157276251
2022-11-22,-0.05165813613872021
2022-11-23,0.11040660370557295
2022-11-24,0.17257272122217227
2022-11-25,0.1705906511663021
2022-11-28,-0.24847533950288936
2022-11-29,0.033864541832670826
2022-11-30,0.035110402308671046
2022-12-01,-0.033476532522679826
2022-12-02,0.026075908951717235
2022-12-05,-0.04926576441752108
2022-12-06,0.10226217607833038
2022-12-07,-0.05200337678632796
2022-12-08,-0.025716632699182645
2022-12-09,-0.25127578200021805
2022-12-12,-0.0362292073679468
2022-12-13,-0.12327057943967613
2022-12-14,-0.1258750446365417
2022-12-15,0.054699047229233994
2022-12-16,0.15911752289705175
2022-12-19,0.16446808416800132
2022-12-20,-0.12247945535830149
2022-12-21,0.14379894694924936
2022-12-22,-0.14681069581484033
2022-12-23,-0.02615032026796788
2022-12-26,-0.13314426500250415
2022-12-27,0.2649831858224504
2022-12-28,-0.039662084765176756
2022-12-29,0.12555028664449075
2022-12-30,0.08039910178947605
2023-01-03,0.13787113316037675
2023-01-04,-0.09686478523088263
2023-01-05,0.03311965811965815
2023-01-06,-0.039044645229872395
2023-01-09,-0.0735675922072274
2023-01-10,-0.045960778244243126
2023-01-11,-0.14511246958276627
2023-01-12,0.07118018967334022
2023-01-13,-0.018666445434720368
2023-01-16,0.04220998201439141
2023-01-17,-0.05034655674041692
2023-01-18,0.289347363067048
2023-01-19,-0.13555768576641017
2023-01-20,0.06354467372322734
2023-01-30,0.18406968390804176
2023-01-31,-0.03049493136684445
2023-02-01,-0.22792857181241677
2023-02-02,0.06679174850732267
2023-02-03,0.11146171414833421
2023-02-06,-0.23761483570481973
2023-02-07,0.0650390329984492
2023-02-08,0.016836648932222344
2023-02-09,0.006411090579425863
2023-02-10,-0.19246208742194304
2023-02-13,-0.10048648400569372
2023-02-14,0.08900357830993574
2023-02-15,0.03351189057409977
2023-02-16,-0.008275892444226215
2023-02-17,0.02892468239564229
2023-02-20,0.17995257951107985
2023-02-21,-0.19645122319540795
2023-02-22,-0.040813704936902104
2023-02-23,-0.08925912796880667
2023-02-24,-0.06695977011494059
2023-02-27,-0.10866623940753403
2023-02-28,0.031493766858641595
2023-03-01,0.08331208567057781
2023-03-02,0.20346583629315806
2023-03-03,0.1396580211335239
2023-03-06,0.13045019496632493
2023-03-07,0.20354361244869837
2023-03-08,-0.04745120975189532
2023-03-09,-0.3118160274117322
2023-03-10,-0.006856523006184931
2023-03-13,-0.13601492846776025
2023-03-14,-0.11115344389661251
2023-03-15,0.15287197142265768
2023-03-16,0.30251737860890426
2023-03-17,-0.0665250753631112
2023-03-20,0.16780813526096347
2023-03-21,-0.11138716356107321
2023-03-22,-0.2622113791675295
2023-03-23,-0.18442853904200168
2023-03-24,-0.017046220185960213
2023-03-27,-0.1841826041393725
2023-03-28,0.23620771858324635
2023-03-29,0.09821344528323019
2023-03-30,-0.005231491672175445
2023-03-31,-0.01898649663667691
2023-04-03,0.46266111919345154
2023-04-04,-0.27127863439370115
2023-04-06,0.05420515313563617
2023-04-07,0.05458214102282238
2023-04-10,0.021052881984919496
2023-04-11,-0.6849489571802547
2023-04-12,0.24474529939787976
2023-04-13,-0.06828102265641313
2023-04-14,-0.048433919022156435
2023-04-17,0.07452632874015302
2023-04-18,0.2634601505309781
2023-04-19,-0.23320158102766592
2023-04-20,0.14601211509338496
2023-04-21,0.565274725974459
2023-04-24,0.0980272898521152
2023-04-25,0.19330696395373317
2023-04-26,0.16776924653064132
2023-04-27,-0.04708300607458219
2023-04-28,-0.6388041377391636
2023-05-04,-0.1797937093436378
2023-05-05,-0.3254939532511214
2023-05-08,0.04760437168869031
2023-05-09,-0.1479746834010198
2023-05-10,0.08980670833362257
2023-05-11,0.013359982808759295
2023-05-12,0.19787817143062186
2023-05-15,-0.02074911229048046
2023-05-16,0.15140689582481082
2023-05-17,0.15946165572842103
2023-05-18,0.17578916218387777
2023-05-19,-0.00676293909376546
2023-05-22,0.05653846153846376
2023-05-23,-0.041495447586816225
2023-05-24,-0.15002800566703012
2023-05-25,-0.15966226317234392
2023-05-26,0.0473303855845542
2023-05-29,-0.36478148288493106
2023-05-30,-0.045400871224399536
2023-05-31,-0.003924454255578878
2023-06-01,0.001286183598835658
2023-06-02,-0.05867675918138052
2023-06-05,0.2121879754749099
2023-06-06,-0.053518821603924654
2023-06-07,0.0850168350168321
2023-06-08,-0.08777735375893057
2023-06-09,0.00038932146829504704
2023-06-12,0.13804084119570775
2023-06-13,0.09996216571417102
2023-06-14,-0.06386799520661988
2023-06-15,0.1342179276411838
2023-06-16,0.04326710912050402
2023-06-19,-0.16938985852956684
2023-06-20,-0.07991112670578474
2023-06-21,-0.07205150126563968
2023-06-26,0.09887311421218034
2023-06-27,-0.214247964090345
2023-06-28,-0.04057247638402388
2023-06-29,0.114749851419511
2023-06-30,0.0970582395258996
2023-07-03,-0.15056092137143373
2023-07-04,0.1959849906191384
2023-07-05,0.0700124677331518
2023-07-06,-0.1249509842365306
2023-07-07,0.08892067465284066
2023-07-10,-0.03546328169822246
2023-07-11,-0.06239262314972109
2023-07-12,0.08332354898047478
2023-07-13,0.07320814005686382
2023-07-14,-0.18035628885701133
2023-07-17,-0.009897563676635426
2023-07-18,0.056052628624674986
2023-07-19,-0.10368700325658821
2023-07-20,0.022850537921221936
2023-07-21,0.12457059429749795
2023-07-24,-0.018014276735206128
2023-07-25,0.0635185355412278
2023-07-26,0.08594657375144837
2023-07-27,0.022962544701680063
2023-07-28,-0.09472265692923248
2023-07-31,0.18217932916630244
2023-08-01,-0.13828331161650137
2023-08-02,0.005672488431115924
2023-08-03,-0.037067099567105764
2023-08-04,0.10525505955613423
2023-08-07,-0.15621569143386196
2023-08-08,0.017909504328129995
2023-08-09,-0.1177087139642718
2023-08-10,-0.10996291959406472
2023-08-11,-0.16714243597374168
2023-08-14,0.040565404955392445
2023-08-15,0.2229545067580938
2023-08-16,-0.011226192526135478
2023-08-17,0.3231718221771973
2023-08-18,0.145606512220074
2023-08-21,0.011869810711019533
2023-08-22,-0.37037837744650537
2023-08-23,0.07191202715666797
2023-08-24,-0.336704087173822
2023-08-25,-0.0690651260504163
2023-08-28,-0.007039830620616945
2023-08-29,0.2802719620116564
2023-08-30,0.03195714973518954
2023-08-31,-0.012954395241240424
2023-09-01,0.12263655462184694
2023-09-04,0.017215663018674814
2023-09-05,0.20593355578122957
2023-09-06,0.0063653885169435084
2023-09-07,0.19147744204064557
2023-09-08,-0.1132305194805189
2023-09-11,-0.021659085986571867
2023-09-12,-0.5562548790007814
2023-09-13,0.029153824951759326
2023-09-14,-0.13357922657468518
2023-09-15,0.36040909090909173
2023-09-18,0.12565196775722973
2023-09-19,0.31801684088269244
2023-09-20,-0.06883407844448644
2023-09-21,0.130166575667882
2023-09-22,-0.547827338129499
2023-09-25,-0.19679312339862365
2023-09-26,-0.07510776450046446
2023-09-27,0.07966532971061432
2023-09-28,-0.1642879617901174
2023-10-09,0.5095336318357934
2023-10-10,0.1448598786784908
2023-10-11,-0.03585142447771933
2023-10-12,-0.1948521623659566
2023-10-13,0.17266593052894436
2023-10-16,-0.4417403185305314
2023-10-17,-0.13126018762005787
2023-10-18,0.0717487968742625
2023-10-19,0.12387301348167491
2023-10-20,-0.09637950876577575
2023-10-23,0.25792413471435116
2023-10-24,0.07838565426508519
2023-10-25,-0.06530394251311014
2023-10-26,0.0717453434512654
2023-10-27,0.15526333812752457
2023-10-30,-0.29809235708112747
2023-10-31,-0.04136261377002255
2023-11-01,0.21213555471412573
2023-11-02,-0.14896209765526613
2023-11-03,-0.31587716708145375
2023-11-06,0.33799981804121687
2023-11-07,0.16130172035673623
2023-11-08,-0.11310074197695186
2023-11-09,0.08841253131012505
2023-11-10,0.17045739771784363
2023-11-13,-0.22944358854932048
2023-11-14,-0.1777266161068941
2023-11-15,-0.19515434886562796
2023-11-16,-0.018714468035739326
2023-11-17,0.2380066351663754
2023-11-20,0.12359827588819092
2023-11-21,0.04133211995983091
2023-11-22,0.10664917510134297
2023-11-23,0.14674886550628666
2023-11-24,-0.37159622423424965
2023-11-27,-0.07336402289495639
2023-11-28,-0.010413964041672491
2023-11-29,0.059978527996259356
2023-11-30,-0.28998448751428063
2023-12-01,0.2216950959346964
2023-12-04,0.19788086858112136
2023-12-05,0.019357155894096683
2023-12-06,-0.029490446577324612
2023-12-07,0.1769563718934874
2023-12-08,-0.019214783623999074
2023-12-11,-0.32231525772139363
2023-12-12,-0.0025221390590829404
2023-12-13,-0.05239149380841339
2023-12-14,-0.04051346697232634
2023-12-15,-0.17636248966987
2023-12-18,0.2767969735182872
2023-12-19,0.02863181695298355
2023-12-20,0.11870460048426051
2023-12-21,-0.05283086478738551
2023-12-22,0.1619907168643585
2023-12-25,-0.1571973950146018
2023-12-26,-0.09991199461613796
2023-12-27,0.04368131868131854
2023-12-28,0.0877666037888727
2023-12-29,0.004440154440158245
2024-01-02,0.1374723817940798
2024-01-03,0.2388328978474512
2024-01-04,-0.20221856229412732
2024-01-05,-0.024221453287200767
2024-01-08,-0.1331698734745854
2024-01-09,-0.2850439882697944
2024-01-10,-0.2867446393762181
2024-01-11,0.010171626179395182
2024-01-12,-0.0322580645161268
2024-01-15,0.08111067141538252
2024-01-16,0.153110047846896
2024-01-17,0.007699324940704147
2024-01-18,0.14754758072152366
2024-01-19,0.021786860327645194
2024-01-22,-0.07989417989417935
2024-01-23,0.057609868075338036
2024-01-24,0.1463164886256723
2024-01-25,-0.0888970296425202
2024-01-26,-0.03422153324168279
2024-01-29,0.09501549203885572
2024-01-30,0.02135535763516889
2024-01-31,0.21689969393955325
2024-02-01,-0.05450320386607245
2024-02-02,0.15311890123915692
2024-02-05,-0.04469417133126958
2024-02-06,-0.15247931396143843
2024-02-07,-0.47766284890673494
2024-02-08,-0.0010582274753765941
2024-02-19,-0.1993352547180943
2024-02-20,0.21895014856388312
2024-02-21,0.32300144300144457
2024-02-22,0.23267326732673474
2024-02-23,0.09337680164723623
2024-02-26,0.017610661589733345
2024-02-27,-0.2976097348978725
2024-02-28,-0.3290594755562955
2024-02-29,0.07857142857142466
2024-03-01,0.01715513597293522
2024-03-04,0.2591958652168074
2024-03-05,0.09677813406627389
2024-03-06,0.03685168334849845
2024-03-07,-0.08448858833474092
2024-03-08,-0.039064963733836215
2024-03-11,-0.2517656993704927
2024-03-12,-0.0030145530145552248
2024-03-13,0.03221288515406317
2024-03-14,-0.1165318198285194
2024-03-15,0.07571982281283965
2024-03-18,-0.0573201423240427
2024-03-19,0.07708200890018438
2024-03-20,0.07827818627450503
2024-03-21,0.23523093447905313
2024-03-22,-0.09679446888747888
2024-03-25,0.10235507246376242
2024-03-26,0.0343473418908733
2024-03-27,0.02587256493506799
2024-03-28,-0.19814780854575323
2024-03-29,0.053693693693687
2024-04-01,0.0922619047619017
2024-04-02,-0.12250161186332253
2024-04-03,0.016314935064934546
2024-04-08,0.1951924432539071
2024-04-09,-0.07354166666667059
2024-04-10,-0.08235753317719433
2024-04-11,0.024778168424579604
2024-04-12,-0.07569444444444587
2024-04-15,0.033819819244400404
2024-04-16,0.032382246376818705
2024-04-17,0.05994856959176382
2024-04-18,0.028889347859762216
2024-04-19,-0.04665144596651486
2024-04-22,-0.2769797421731066
2024-04-23,0.058448797579229536
2024-04-24,-0.05428276573787315
2024-04-25,-0.02336448598130872
2024-04-26,0.014640863955941084
2024-04-29,0.11702898550725124
2024-04-30,-0.010806872685322585
2024-05-06,0.01904677205009669
2024-05-07,-0.10653422023141419
2024-05-08,-0.03976339085583641
2024-05-09,-0.060932414092432
2024-05-10,-0.19866751681501577
2024-05-13,-0.11947467106592495
2024-05-14,0.1247160384132296
2024-05-15,0.021575560168000302
2024-05-16,0.12396573388112503
2024-05-17,0.21908977411573097
2024-05-20,0.3938266501309041
2024-05-21,0.02787081339713497
2024-05-22,0.09495732255166134
2024-05-23,0.061055459175114304
2024-05-24,-0.07519305019306409
2024-05-27,-0.48703062084464877
2024-05-28,0.2849818511796652
2024-05-29,0.20875289210415504
2024-05-30,-0.20654986323649416
2024-05-31,0.14947550290016515
2024-06-03,0.3810812624421225
2024-06-04,-0.34815777042984813
2024-06-05,-0.4019245003701055
2024-06-06,0.20445648900933971
2024-06-07,-0.1315303518667714
2024-06-11,-0.23384675142297692
2024-06-12,-0.14630083684238707
2024-06-13,0.16146179401993724
2024-06-14,-0.19244904777815125
2024-06-17,-0.10132352941176433
2024-06-18,-0.026551773897626453
2024-06-19,0.2240301851196787
2024-06-20,-0.08717607973422253
2024-06-21,0.11129786816819243
2024-06-24,0.13494011976048204
2024-06-25,-0.00899701182279082
2024-06-26,-0.03512835359968804
2024-06-27,0.09341614906832117
2024-06-28,-0.11544896820970424
2024-07-01,-0.009940119760485363
2024-07-02,0.06106551147590701
2024-07-03,-0.18655153250972334
2024-07-04,-0.07284472049689028
2024-07-05,0.1497326203208565
2024-07-08,0.09111111111110967
2024-07-09,0.03328664799252946
2024-07-10,0.37383978295016035
2024-07-11,0.0889356725146226
2024-07-12,-0.002643754130867086
2024-07-15,-0.026004728132378654
2024-07-16,0.012464985994401639
2024-07-17,-0.2944967266775802
2024-07-18,0.02712715471050777
2024-07-19,-0.016964089006381015
2024-07-22,-0.10869128863911223
2024-07-23,-0.06308610400681788
2024-07-24,0.07668026418026903
2024-07-25,-0.17466181199670186
2024-07-26,0.1141934046345706
2024-07-29,-0.04045450320661184
2024-07-30,0.1803203661327187
2024-07-31,0.14856902356902424
2024-08-01,0.14708481473108426
2024-08-02,-0.19002196220585726
2024-08-05,0.3024203346201245
2024-08-06,-0.05292280662622853
2024-08-07,-0.14466036323767825
2024-08-08,0.08525313487417463
2024-08-09,-0.01744118275728443
2024-08-12,-0.3555237828959886
2024-08-13,-0.14217172582139237
2024-08-14,-0.12256949548703258
2024-08-15,-0.18456249424544696
2024-08-16,0.15405405405405392
2024-08-19,0.06032467532467917
2024-08-20,0.08234881272663334
2024-08-21,0.4060642813826637
2024-08-22,0.13527612880013767
2024-08-23,-0.15681818181818022
2024-08-26,0.20440854326396118
2024-08-27,-0.10546121493849472
2024-08-28,-0.3927859690079711
2024-08-29,-0.23450553512709107
2024-08-30,0.13089412697887637
2024-09-02,-0.19062544654284475
2024-09-03,0.09534646682399367
2024-09-04,0.20032066828093315
2024-09-05,0.2920735542954116
2024-09-06,-0.07710624819099837
2024-09-09,0.09774633129767091
2024-09-10,0.34913075450316616
2024-09-11,-0.07086015630567095
2024-09-12,-0.04895837789279947
2024-09-13,-0.023738339417116394
2024-09-18,-0.09007470396092192
2024-09-19,-0.5423384611772706
2024-09-20,-0.004139146674782429
2024-09-23,-0.21953656829225962
2024-09-24,0.20473474414233458
2024-09-25,0.035363457760315256
2024-09-26,0.17203182464211944
2024-09-27,-0.10426031814531438
2024-09-30,0.4527767148962648
2024-10-08,-0.1307050725451286
2024-10-09,-0.04709526808104472
2024-10-10,-0.024300683672310693
2024-10-11,0.1098547740574977
2024-10-14,-0.5347059854561996
2024-10-15,-0.14619151043321035
2024-10-16,0.08270357668638488
2024-10-17,0.0744748709700371
2024-10-18,-0.009493782392156763
2024-10-21,0.2734688155796
2024-10-22,-0.029604223086757767
2024-10-23,0.0941852017191448
2024-10-24,-0.07431153538270494
2024-10-25,-0.040638606676340706
2024-10-28,-0.0153985507246392
2024-10-29,0.15520137103684753
2024-10-30,-0.2674558479868253
2024-10-31,0.02049305782695384
2024-11-01,-0.06094376145203252
2024-11-04,-0.3155626378355138
2024-11-05,-0.0200921055880674
2024-11-06,0.24139547964684793
2024-11-07,0.2660686603853572
2024-11-08,0.1639266904726965
2024-11-11,0.3639580829700903
2024-11-12,-0.020819575323614607
2024-11-13,-0.1991088645278608
2024-11-14,-0.41816942264761997
2024-11-15,0.04498727735369369
2024-11-18,-0.004737879719328333
2024-11-19,0.11801859915067905
2024-11-20,0.0754327026003312
2024-11-21,0.13096255293855974
2024-11-22,-0.27147376384017785
2024-11-25,-0.21652990584077814
2024-11-26,-0.1935695032730118
2024-11-27,0.002005800212078652
2024-11-28,0.05480779441435492
2024-11-29,0.3629745817245772
2024-12-02,0.42271858888801384
2024-12-03,0.06408163265306231
2024-12-04,0.06096409134289509
2024-12-05,0.03765009263332195
2024-12-06,-0.28757622771751956
2024-12-09,-0.5222509348426703
2024-12-10,0.19531149495346006
2024-12-11,-0.055725284310368904
2024-12-12,-0.10549722003205153
2024-12-13,0.00704772843902271
2024-12-16,0.2597235269598978
2024-12-17,-0.3879070683941052
2024-12-18,-0.032346632346623556
2024-12-19,0.08746890735910118
2024-12-20,0.15215503450797618
2024-12-23,0.004487296100903357
2024-12-24,0.18187261219136766
2024-12-25,0.07445680975091967
2024-12-26,-0.1893916056988885
2024-12-27,0.009461127108187278
2024-12-30,-0.004418083563749096
2024-12-31,0.15868856615172489
