date,FCT_Cr_Atr_Dfive
2015-03-20,
2015-03-23,
2015-03-24,
2015-03-25,
2015-03-26,
2015-03-27,
2015-03-30,
2015-03-31,
2015-04-01,
2015-04-02,
2015-04-03,0.23745242789674015
2015-04-07,-0.01337394067797247
2015-04-08,0.34260857245890397
2015-04-09,-0.17616442464434273
2015-04-10,0.14135619948748754
2015-04-13,0.13942329353457517
2015-04-14,-0.07860779800516324
2015-04-15,-0.530234576693666
2015-04-16,0.4405896228844415
2015-04-17,0.07007422402158738
2015-04-20,-0.019088584050216732
2015-04-21,0.09206227992024313
2015-04-22,0.1269734115791329
2015-04-23,-0.4719365838536731
2015-04-24,-0.08470552884615346
2015-04-27,0.027399850813690944
2015-04-28,-0.2342729612863112
2015-04-29,0.043565383106335155
2015-04-30,0.07770112299259974
2015-05-04,-0.02472886029412274
2015-05-05,-0.3463864039521576
2015-05-06,0.2566445596888347
2015-05-07,0.03423751686908585
2015-05-08,-0.0015470170512690146
2015-05-11,0.4331441458372642
2015-05-12,0.45922993564367365
2015-05-13,-0.10570991688013075
2015-05-14,0.08515819463188211
2015-05-15,0.011332041225102264
2015-05-18,-0.5446223312073447
2015-05-19,-0.27014965586498757
2015-05-20,-0.0017417290786124785
2015-05-21,-0.14292043239411614
2015-05-22,-0.0028000730066746887
2015-05-25,0.008907151734696972
2015-05-26,0.6527140821349741
2015-05-27,0.01720068070777922
2015-05-28,0.23702542668059157
2015-05-29,0.09476263004778727
2015-06-01,0.3465739030758444
2015-06-02,-0.7135072955137041
2015-06-03,0.09910291809401829
2015-06-04,-0.25055211447001524
2015-06-05,-0.02902135378019567
2015-06-08,-0.3884146341463336
2015-06-09,0.023636702028673434
2015-06-10,-0.19579978074832682
2015-06-11,-0.12360900030167504
2015-06-12,0.04448884448883772
2015-06-15,0.17014563106795438
2015-06-16,0.4101174345076636
2015-06-17,0.08326056921801663
2015-06-18,0.26496571247284195
2015-06-19,-0.06482013561658484
2015-06-23,0.015417749213731888
2015-06-24,-0.4895470383275169
2015-06-25,0.05196979232221698
2015-06-26,-0.1581649526114059
2015-06-29,0.047082065031130146
2015-06-30,-0.025714895433210365
2015-07-01,0.20686143125166856
2015-07-02,-0.16740088105727366
2015-07-03,0.22867167919798947
2015-07-06,-0.01978310389223422
2015-07-07,0.010940988835734165
2015-07-08,0.5814789861301598
2015-07-09,0.26304631153100355
2015-07-10,-0.2021201891011167
2015-07-13,-0.10289229614539297
2015-07-14,0.012168085997483565
2015-07-15,-0.9319127628797215
2015-07-16,-0.3695432135044254
2015-07-17,-0.01128833220214405
2015-07-20,-0.038960096985770645
2015-07-21,-0.14003303137981582
2015-07-22,0.3888634630053476
2015-07-23,0.19617374495424186
2015-07-24,0.08579707391221919
2015-07-27,0.25008876790152357
2015-07-28,0.14442115071046108
2015-07-29,-0.11550017674091134
2015-07-30,0.1208725049784499
2015-07-31,0.1692581172571947
2015-08-03,-0.1917356556642705
2015-08-04,0.00910204216728518
2015-08-05,0.08189296459894756
2015-08-06,-0.0920217745570454
2015-08-07,-0.4097519724927946
2015-08-10,0.06426851166314632
2015-08-11,0.14686911050354473
2015-08-12,0.17816628853595554
2015-08-13,-0.07425811204834123
2015-08-14,0.21743616020222495
2015-08-17,-0.03716700272357796
2015-08-18,-0.33026871715933137
2015-08-19,-0.34568728094731016
2015-08-20,0.035366479133211025
2015-08-21,-0.006150070963361932
2015-08-24,-0.02759432290732883
2015-08-25,0.16611855214282756
2015-08-26,0.1234025445617267
2015-08-27,0.2752756677284687
2015-08-28,0.04955104296171452
2015-08-31,0.31983977504845973
2015-09-01,-0.004166666666661777
2015-09-02,0.16847790291774045
2015-09-07,-0.3464422901042495
2015-09-08,0.0020050125313125222
2015-09-09,-0.4578503152329201
2015-09-10,0.11214953271026461
2015-09-11,-0.2642390289449214
2015-09-14,0.10293579659777219
2015-09-15,-0.08040593286492612
2015-09-16,0.16905495634311446
2015-09-17,-0.17789347734694316
2015-09-18,0.19281045751636294
2015-09-21,-0.007803599908876765
2015-09-22,0.0006440281030479708
2015-09-23,-0.05346175495653191
2015-09-24,0.06574394463668234
2015-09-25,-0.06750774679063656
2015-09-28,0.1465761177136594
2015-09-29,0.03928571428571859
2015-09-30,0.1589071209860759
2015-10-08,-0.06209150326800421
2015-10-09,0.4509765814789661
2015-10-12,-0.03217995782239627
2015-10-13,0.21140018921473092
2015-10-14,0.13590810977493298
2015-10-15,0.12588972285256897
2015-10-16,-0.5631527026567205
2015-10-19,-0.1828395613886199
2015-10-20,-0.18544200106142508
2015-10-21,-0.3508627220959729
2015-10-22,-0.05023232811171062
2015-10-23,0.15663309252754196
2015-10-26,0.20080207596130714
2015-10-27,-0.13609107851876065
2015-10-28,0.1798482293423515
2015-10-29,0.016416471842833708
2015-10-30,-0.06675135545718702
2015-11-02,-0.14850275807722743
2015-11-03,0.003907464415227532
2015-11-04,-0.1110997963340285
2015-11-05,-0.04950513988837282
2015-11-06,0.0740695841920103
2015-11-09,0.13368794326240666
2015-11-10,0.1493727042038781
2015-11-11,0.07951600259552527
2015-11-12,0.10993868977339681
2015-11-13,-0.01826413654439433
2015-11-16,-0.16655844155844135
2015-11-17,-0.0829810344911259
2015-11-18,0.02721935317938145
2015-11-19,-0.2086398174929337
2015-11-20,-0.0462960258800129
2015-11-23,0.3117508139494113
2015-11-24,0.12769895062438696
2015-11-25,-0.16328261826442425
2015-11-26,0.19822390429221157
2015-11-27,0.00930505480942851
2015-11-30,-0.40193218430319555
2015-12-01,-0.14333518907624848
2015-12-02,0.17233455882352658
2015-12-03,-0.18740740740740808
2015-12-04,-0.02398698837147917
2015-12-07,0.027150179082854053
2015-12-08,-0.06333539347089434
2015-12-09,-0.1328997905027789
2015-12-10,0.04983164983164846
2015-12-11,-0.008812424117112111
2015-12-14,0.19715720039696266
2015-12-15,0.1179916449414073
2015-12-16,0.09708021503108658
2015-12-17,0.014365881032550286
2015-12-18,0.10952183383466244
2015-12-21,-0.06452805388978534
2015-12-22,-0.012389719984651453
2015-12-23,-0.08289231477221244
2015-12-24,0.17676036514255683
2015-12-25,-0.18197997775306526
2015-12-28,-0.035719252239898656
2015-12-29,0.06687141687139994
2015-12-30,0.1086103775050577
2015-12-31,-0.17013585445302773
2016-01-04,0.2156263640332171
2016-01-05,0.02978956515170173
2016-01-06,0.02904426165297721
2016-01-07,0.1548820978452462
2016-01-08,0.03880266075391895
2016-01-11,-0.1502464433740641
2016-01-12,0.028651297532184056
2016-01-13,-0.21542584871948528
2016-01-14,-0.238632575968018
2016-01-15,-0.010369468813287444
2016-01-18,0.1922960358831202
2016-01-19,-0.06431534098927061
2016-01-20,0.18572115219557334
2016-01-21,-0.06721848786177753
2016-01-22,-0.04475787899701379
2016-01-25,-0.18447233488938658
2016-01-26,0.015093806310306736
2016-01-27,-0.07516539095487917
2016-01-28,0.06979761286973246
2016-01-29,0.11303663518855414
2016-02-01,-0.06296172767447561
2016-02-02,0.21809128304038922
2016-02-03,0.05995883523973346
2016-02-04,0.058090742197769184
2016-02-05,-0.09594788819309796
2016-02-15,0.1690384541826372
2016-02-16,-0.29895146407300277
2016-02-17,-0.15329593727547236
2016-02-18,0.005991409383599981
2016-02-19,0.0041757362943385945
2016-02-22,-0.1402900393938515
2016-02-23,-0.02379328741376062
2016-02-24,0.0961072190915593
2016-02-25,-0.044025711347502494
2016-02-26,0.08626741835978163
2016-02-29,0.10560372887533183
2016-03-01,0.29932010468449466
2016-03-02,0.09530137636452275
2016-03-03,-0.026415859656275912
2016-03-04,-0.006544925662595152
2016-03-07,0.05254821691828021
2016-03-08,-0.1683653165900521
2016-03-09,-0.1538780081503779
2016-03-10,0.11916429747118565
2016-03-11,-0.01691544998910397
2016-03-14,-0.15337567631145377
2016-03-15,-0.07724567099566712
2016-03-16,0.17049998633669095
2016-03-17,-0.09961132506059185
2016-03-18,-0.17487404793810432
2016-03-21,0.1013986013985921
2016-03-22,0.05392694620514086
2016-03-23,-0.2285983172187937
2016-03-24,-0.05260818713452306
2016-03-25,0.23462166575936494
2016-03-28,-0.10384060384058477
2016-03-29,0.03771919500997959
2016-03-30,0.1289198606271668
2016-03-31,0.042101694915282595
2016-04-01,-0.17424242424241584
2016-04-05,0.2851067061593012
2016-04-06,-0.08866995073891416
2016-04-07,-0.004273504273528659
2016-04-08,0.11973521495595484
2016-04-11,0.1149538866930384
2016-04-12,-0.38964967277122275
2016-04-13,0.19349429912809457
2016-04-14,0.14234881808103592
2016-04-15,-0.10054279222416192
2016-04-18,-0.005501150374611522
2016-04-19,0.26390804597696316
2016-04-20,-0.13216673780053825
2016-04-21,-0.1856943614265522
2016-04-22,-0.04957983193279726
2016-04-25,0.008231742053051428
2016-04-26,-0.032029520295182155
2016-04-27,-0.08849053919477631
2016-04-28,0.01636904761902864
2016-04-29,0.023963133640573515
2016-05-03,-0.12258643915576282
2016-05-04,-0.1585695580457936
2016-05-05,0.04677807779317695
2016-05-06,0.002073986852572658
2016-05-09,0.9339391881390983
2016-05-10,0.30714118754032516
2016-05-11,0.13168374337457012
2016-05-12,0.10839209601804675
2016-05-13,0.12321271039515344
2016-05-16,-1.0927780330704522
2016-05-17,-0.3942985635797743
2016-05-18,-0.017910061858977096
2016-05-19,-0.009110270085070087
2016-05-20,-0.19071343440786412
2016-05-23,0.0586931981517739
2016-05-24,0.19484792307537038
2016-05-25,-0.06806009935779893
2016-05-26,-0.14134590545074754
2016-05-27,0.00208214256556169
2016-05-30,0.19519459558390226
2016-05-31,0.004129652742077668
2016-06-01,0.06488549618319395
2016-06-02,0.09848584595121558
2016-06-03,0.1358789982642808
2016-06-06,-0.20450610384198517
2016-06-07,-0.1790253201681583
2016-06-08,0.024539877300612516
2016-06-13,0.019343800877569168
2016-06-14,0.023043081710429132
2016-06-15,0.1442852301883167
2016-06-16,0.37091002776744886
2016-06-17,-0.019994422755135178
2016-06-20,-0.051101417075368194
2016-06-21,-0.05502515979870057
2016-06-22,0.12991846862812878
2016-06-23,-0.3466171542432597
2016-06-24,0.24073756432248913
2016-06-27,0.12942204853968864
2016-06-28,0.10066331015738875
2016-06-29,-0.13990383929461594
2016-06-30,0.228631817713153
2016-07-01,-0.3570308698708275
2016-07-04,-0.03453079178882354
2016-07-05,-0.22476926111646134
2016-07-06,0.012066906877715248
2016-07-07,-0.20364866029119943
2016-07-08,0.1692191153706944
2016-07-11,-0.23078541374479225
2016-07-12,0.07584258641662983
2016-07-13,-0.028118562248261522
2016-07-14,0.10616438356164062
2016-07-15,0.04485431702752547
2016-07-18,0.17992111539169436
2016-07-19,0.005766018214113433
2016-07-20,0.1044929049220823
2016-07-21,0.09199999999999738
2016-07-22,-0.1829116619814471
2016-07-25,-0.032813892110894416
2016-07-26,0.17084684260924551
2016-07-27,-0.12278343744748613
2016-07-28,-0.08825468164792934
2016-07-29,0.013421901481622409
2016-08-01,0.02393625498012066
2016-08-02,-0.20511213932264194
2016-08-03,0.02854546831226074
2016-08-04,-0.1341801009607632
2016-08-05,0.09216417910451782
2016-08-08,-0.04214634146346029
2016-08-09,0.017685866721418093
2016-08-10,0.2834493824838711
2016-08-11,0.2999072468476346
2016-08-12,0.11659327494046345
2016-08-15,0.14537366779576555
2016-08-16,0.1466405476049929
2016-08-17,-0.392042916609332
2016-08-18,-0.19335306125386242
2016-08-19,-0.21804587432889683
2016-08-22,-0.13440613427934608
2016-08-23,-0.0019508426288388225
2016-08-24,0.1886936592819074
2016-08-25,0.02972855023131513
2016-08-26,0.07935957613257685
2016-08-29,-0.06087916306748171
2016-08-30,-0.20567474790815862
2016-08-31,-0.12999790663597488
2016-09-01,-0.009679370840940747
2016-09-02,-0.06829159212879034
2016-09-05,0.06348183932726255
2016-09-06,0.009919157536437712
2016-09-07,0.12257624638309254
2016-09-08,-0.036168582375443084
2016-09-09,0.14408831908831138
2016-09-12,0.04632720464858726
2016-09-13,0.1468654407369278
2016-09-14,0.004598130841130768
2016-09-19,-0.024393939393928574
2016-09-20,-0.17586969560656224
2016-09-21,-0.039203987759534834
2016-09-22,-0.10511601369336188
2016-09-23,-0.22025120772948076
2016-09-26,0.07017428621469073
2016-09-27,0.07992461259253311
2016-09-28,-0.027482757716458604
2016-09-29,-0.03847006651886706
2016-09-30,0.1101971536753974
2016-10-10,-0.027208918249317822
2016-10-11,0.009942109237320949
2016-10-12,0.14387684898523068
2016-10-13,0.22422764227643488
2016-10-14,0.18423156884697894
2016-10-17,0.05284218399399901
2016-10-18,-0.0485382933787484
2016-10-19,-0.0007906388361736683
2016-10-20,-0.14130081300818756
2016-10-21,-0.16483098013946035
2016-10-24,0.22499664384477588
2016-10-25,0.16604164508440447
2016-10-26,-0.08009171410502258
2016-10-27,0.10096508159330056
2016-10-28,0.05120975673726773
2016-10-31,-0.35413012611705796
2016-11-01,-0.11742429823916159
2016-11-02,-0.12024064171123615
2016-11-03,-0.1790728707356821
2016-11-04,-0.04322295805738144
2016-11-07,0.05205776925019586
2016-11-08,-0.011918539374330787
2016-11-09,0.3650809116203457
2016-11-10,0.12112961088030563
2016-11-11,0.08802575275782668
2016-11-14,0.19981591506106414
2016-11-15,0.13725460761722563
2016-11-16,-0.33576961685447704
2016-11-17,-0.01063619610648964
2016-11-18,-0.023568388416742116
2016-11-21,-0.30541431880610626
2016-11-22,-0.19072311236244216
2016-11-23,0.09378155544442174
2016-11-24,-0.10108481262326877
2016-11-25,-0.13627554615926926
2016-11-28,0.15126050420169984
2016-11-29,0.45496020190252967
2016-11-30,0.15745978864025162
2016-12-01,0.3198371893744558
2016-12-02,0.1525389025389045
2016-12-05,0.10453648915182892
2016-12-06,-0.4394957983193392
2016-12-07,-0.26949203278992234
2016-12-08,-0.26762418799132487
2016-12-09,-0.07118467503908021
2016-12-12,0.03707571128389871
2016-12-13,-0.028735005452550352
2016-12-14,0.18106693237174426
2016-12-15,0.48531880523263776
2016-12-16,0.4173930881766264
2016-12-19,-0.04414265966723774
2016-12-20,0.2763133877875592
2016-12-21,0.0028978952444525807
2016-12-22,-0.5608040978736707
2016-12-23,-0.5788861860788679
2016-12-26,-0.21333406839775415
2016-12-27,-0.36785488003085465
2016-12-28,-0.24880439980870744
2016-12-29,0.15140331245250932
2016-12-30,0.22564999827869653
2017-01-03,0.06302436910876824
2017-01-04,0.17881405497819383
2017-01-05,0.11714184280955993
2017-01-06,-0.1919838350474208
2017-01-09,-0.1011717954658867
2017-01-10,0.020639800738716102
2017-01-11,-0.0956645707494714
2017-01-12,-0.08150758910808086
2017-01-13,0.017855893144574336
2017-01-16,0.20268663013281327
2017-01-17,0.029890888959592944
2017-01-18,0.09426987060999657
2017-01-19,0.2714191232048423
2017-01-20,0.25102366442378066
2017-01-23,-0.37235401613266594
2017-01-24,0.3949220913367029
2017-01-25,0.040391082101286425
2017-01-26,-0.198759919018891
2017-02-03,0.21220203649806454
2017-02-06,0.27943869221336615
2017-02-07,-0.5123731015564471
2017-02-08,-0.04583325897203917
2017-02-09,0.02314749058498911
2017-02-10,-0.698420586545076
2017-02-13,-0.007274141787401121
2017-02-14,0.07992819392660014
2017-02-15,-0.075343849330138
2017-02-16,0.2176694795467653
2017-02-17,0.44389021902989395
2017-02-20,-0.09430753070461685
2017-02-21,0.03597872056810043
2017-02-22,0.3109601074387945
2017-02-23,-0.30092322861111287
2017-02-24,-0.035505430242284364
2017-02-27,0.1030987394958313
2017-02-28,-0.03112258807600265
2017-03-01,-0.3207836364273631
2017-03-02,0.042179382007102
2017-03-03,-0.1191492244123932
2017-03-06,-0.21998210557711054
2017-03-07,-0.03235551819974577
2017-03-08,0.09595714877234268
2017-03-09,0.17595590502622463
2017-03-10,0.025170243547355413
2017-03-13,0.5924874896402681
2017-03-14,0.062059263090087115
2017-03-15,-0.09722038510232724
2017-03-16,0.006260865965722021
2017-03-17,0.08310544285334265
2017-03-20,-0.6498163084329259
2017-03-21,0.1324275801466686
2017-03-22,0.0918727915194426
2017-03-23,-0.27167419333239806
2017-03-24,0.19449136636636827
2017-03-27,0.18530568190579055
2017-03-28,-0.12715517241379454
2017-03-29,0.08174904942965212
2017-03-30,0.12644705581895946
2017-03-31,-0.3680180180180155
2017-04-05,0.2738560960129389
2017-04-06,-0.07614213197970608
2017-04-07,-0.1568406245212261
2017-04-10,0.018663975360659182
2017-04-11,0.09671583934531405
2017-04-12,-0.4244103773585016
2017-04-13,0.13240811663444385
2017-04-14,0.16710126032158967
2017-04-17,0.08132862066690996
2017-04-18,0.05619583521583413
2017-04-19,0.1222802104548641
2017-04-20,-0.10191815856779893
2017-04-21,-0.10339920687011271
2017-04-24,-0.09612535379645881
2017-04-25,0.06527592480291618
2017-04-26,0.07405348677947854
2017-04-27,0.06077096440981872
2017-04-28,-0.0758445209130991
2017-05-02,-0.0025726961210809987
2017-05-03,-0.13969956479009793
2017-05-04,0.12903207884707188
2017-05-05,-0.07315450478247287
2017-05-08,0.19386911364323295
2017-05-09,0.004038074701889754
2017-05-10,0.204224490507731
2017-05-11,-0.06510664347260549
2017-05-12,0.19316097147935643
2017-05-15,-0.1259304221770923
2017-05-16,0.0009268613986703166
2017-05-17,-0.24217198454116862
2017-05-18,-0.22602643679823387
2017-05-19,-0.2617346992537334
2017-05-22,0.03895137074307792
2017-05-23,-0.00334165977849582
2017-05-24,0.11724137931035208
2017-05-25,0.12697089579554885
2017-05-26,0.06209331302782081
2017-05-31,-0.10453665626080197
2017-06-01,0.04197660206041819
2017-06-02,-0.1422413793103548
2017-06-05,0.06966762051510687
2017-06-06,0.1266279302745072
2017-06-07,0.1842958412831485
2017-06-08,-0.0708217699660749
2017-06-09,0.14460784313727973
2017-06-12,-0.04270729270732288
2017-06-13,-0.08128988343402103
2017-06-14,-0.19159397562811675
2017-06-15,0.23822422258591136
2017-06-16,-0.04551457888858418
2017-06-19,0.06374210895489664
2017-06-20,0.029153144535914086
2017-06-21,0.14403062280161483
2017-06-22,-0.2980209461899477
2017-06-23,0.012714123614116057
2017-06-26,-0.15205085902833915
2017-06-27,-0.036290851817806426
2017-06-28,-0.17797797797801013
2017-06-29,0.1240743429649934
2017-06-30,-0.017315862439049597
2017-07-03,0.17297408473877876
2017-07-04,-0.01870028769674448
2017-07-05,0.20020020020022172
2017-07-06,-0.07957642547046963
2017-07-07,0.12446820611985918
2017-07-10,-0.2346518512162581
2017-07-11,0.0989729117027823
2017-07-12,-0.12185564403997114
2017-07-13,0.0873360973472071
2017-07-14,-0.2202755210172876
2017-07-17,0.1954320348880123
2017-07-18,-0.06928250503045096
2017-07-19,-0.014475239372618763
2017-07-20,-0.06714852987105485
2017-07-21,0.2089244851258426
2017-07-24,-0.19277108433734386
2017-07-25,0.04349468458261401
2017-07-26,0.08965406961247432
2017-07-27,0.15675426463808145
2017-07-28,-0.14660869565217005
2017-07-31,0.3069714756461937
2017-08-01,-0.05022783761396636
2017-08-02,-0.06875064373262595
2017-08-03,-0.19346405228756985
2017-08-04,0.089641025641061
2017-08-07,-0.1915598290598458
2017-08-08,-0.024994921589874836
2017-08-09,0.05050991560061935
2017-08-10,0.011060122325569965
2017-08-11,-0.06876820405160296
2017-08-14,0.1852262266157485
2017-08-15,0.016618962510620644
2017-08-16,-0.06745249626752707
2017-08-17,0.10462615218421964
2017-08-18,0.09381842265014725
2017-08-21,-0.4016735950368173
2017-08-22,0.08857431749245623
2017-08-23,0.15170255753217882
2017-08-24,-0.018257956448909218
2017-08-25,-0.09524569968515349
2017-08-28,0.2507953822380346
2017-08-29,-0.011747782306493135
2017-08-30,-0.10325881015540724
2017-08-31,-0.04990124753119697
2017-09-01,0.008471981218764767
2017-09-04,0.010861433598332866
2017-09-05,-0.1411285946825147
2017-09-06,-0.0075896437163365475
2017-09-07,0.21234066354622136
2017-09-08,0.14161011241773264
2017-09-11,-0.043315508021358036
2017-09-12,0.1741760944416727
2017-09-13,0.008783851807134122
2017-09-14,-0.09017854835795532
2017-09-15,-0.14568828076122245
2017-09-18,0.1904526435907131
2017-09-19,-0.16217306528605246
2017-09-20,0.008658008658006849
2017-09-21,-0.07557153865913777
2017-09-22,0.020780797609029192
2017-09-25,-0.3054724064365395
2017-09-26,0.03665086364086165
2017-09-27,-0.06763285024153468
2017-09-28,-0.35891496494971153
2017-09-29,0.07493540051683842
2017-10-09,0.36033760290042616
2017-10-10,0.10163850486432745
2017-10-11,0.12026442918885454
2017-10-12,0.6249280368451428
2017-10-13,-0.0859903381642944
2017-10-16,-0.334637041032986
2017-10-17,0.2946982515510272
2017-10-18,0.060150375939897555
2017-10-19,-0.2237237237237251
2017-10-20,0.08812709030101493
2017-10-23,0.17113738279656812
2017-10-24,-0.5427825427387636
2017-10-25,0.029566799561162496
2017-10-26,-0.03224720047150574
2017-10-27,0.09779549718572861
2017-10-30,0.2541616694650998
2017-10-31,0.27720615498699486
2017-11-01,-0.1906758919948591
2017-11-02,-0.08821310358255614
2017-11-03,-0.22243341157259944
2017-11-06,-0.559828200243742
2017-11-07,-0.015815143905712148
2017-11-08,0.09594618516549651
2017-11-09,0.07442764037432793
2017-11-10,0.040304366262450084
2017-11-13,0.45250661375846535
2017-11-14,-0.0078299325639073
2017-11-15,-0.12467149714240139
2017-11-16,0.010388579827190764
2017-11-17,0.001641240432103449
2017-11-20,-0.2992876354273845
2017-11-21,-0.15922355735548185
2017-11-22,0.10570574465232013
2017-11-23,-0.03233754680318155
2017-11-24,0.07867231638420566
2017-11-27,-0.009336507996004814
2017-11-28,0.05314616942523182
2017-11-29,0.2795228054999801
2017-11-30,0.06440834583244728
2017-12-01,-0.04451899830640132
2017-12-04,0.17299824308630463
2017-12-05,0.08972589610886242
2017-12-06,-0.4935121495087603
2017-12-07,-0.1254807692307959
2017-12-08,-0.017261426185911748
2017-12-11,-0.09845718487212221
2017-12-12,-0.14045549895113157
2017-12-13,0.09499336975208922
2017-12-14,0.027054794520553628
2017-12-15,0.011705230410285039
2017-12-18,0.032697547683936484
2017-12-19,0.0420112070271063
2017-12-20,0.0751911639762484
2017-12-21,0.03640674394103318
2017-12-22,0.015858130616110137
2017-12-25,-0.07251908396945554
2017-12-26,0.05787866719767081
2017-12-27,-0.04632389468455642
2017-12-28,0.05957339603621892
2017-12-29,-0.036121919584948085
2018-01-02,0.34794281278295736
2018-01-03,-0.01740426288234049
2018-01-04,0.1624855108461578
2018-01-05,-0.09084839015528187
2018-01-08,0.013471778487759519
2018-01-09,-0.5350391134288839
2018-01-10,0.07822410147993235
2018-01-11,-0.0034491254003531785
2018-01-12,0.05022086306490481
2018-01-15,-0.029893347115214814
2018-01-16,0.32805644925417615
2018-01-17,-0.015113000878088194
2018-01-18,-0.18569656883010743
2018-01-19,0.029767313782174745
2018-01-22,0.10118859371704331
2018-01-23,-0.09864240692072337
2018-01-24,-0.11556600869364919
2018-01-25,0.0807281858129521
2018-01-26,-0.1043389002940679
2018-01-29,-0.16010035842290699
2018-01-30,-0.044688525559452935
2018-01-31,-0.010446531553810312
2018-02-01,0.05895379915999135
2018-02-02,0.06716417910448012
2018-02-05,0.1459215686274506
2018-02-06,0.23302940272508327
2018-02-07,0.08422260470456609
2018-02-08,0.05581406278824686
2018-02-09,0.15814652575583926
2018-02-12,-0.1347651846748289
2018-02-13,-0.22243544450620295
2018-02-14,-0.015329398584019535
2018-02-22,-0.29281499999538063
2018-02-23,-0.3545750971844141
2018-02-26,0.5030658382695563
2018-02-27,0.3064834096224707
2018-02-28,0.038743810950425187
2018-03-01,0.21289356984478763
2018-03-02,0.18455913522679704
2018-03-05,-0.6234234234233766
2018-03-06,-0.3136160714285578
2018-03-07,-0.06788378784401625
2018-03-08,0.01037610166018512
2018-03-09,0.17381275603982405
2018-03-12,0.15590503395377686
2018-03-13,0.005735140771650771
2018-03-14,0.12237474696353798
2018-03-15,-0.10975757209361392
2018-03-16,-0.270470451620989
2018-03-19,0.075730949856126
2018-03-20,0.11210693276662746
2018-03-21,-0.2028729838709779
2018-03-22,0.24545842777838087
2018-03-23,0.3069707115494865
2018-03-26,-0.05965556182950284
2018-03-27,-0.17350380311302868
2018-03-28,0.24337226548015414
2018-03-29,-0.25174727425220367
2018-03-30,-0.2759343546742881
2018-04-02,0.12122077922075547
2018-04-03,0.3102404841535495
2018-04-04,-0.20383616241410557
2018-04-09,0.11514404419486489
2018-04-10,0.09367200468118934
2018-04-11,0.019464968152912113
2018-04-12,-0.2289954553565487
2018-04-13,0.1404624438679959
2018-04-16,0.09303075114699177
2018-04-17,-0.07618122977342293
2018-04-18,0.04544992546413386
2018-04-19,0.036649869907480974
2018-04-20,-0.06770343429277001
2018-04-23,-0.23483860771994525
2018-04-24,0.049583333333307236
2018-04-25,-0.3542833146696328
2018-04-26,-0.0104767288487047
2018-04-27,0.011329334440412713
2018-05-02,0.09160606835026047
2018-05-03,0.017150673400666394
2018-05-04,0.07362260165460938
2018-05-07,0.09219121511701374
2018-05-08,0.16057082326613722
2018-05-09,-0.06597925613810178
2018-05-10,0.03962360916005084
2018-05-11,0.15855594598028938
2018-05-14,-0.1795527231131692
2018-05-15,-0.28027348510695704
2018-05-16,0.2182644316790775
2018-05-17,-0.026042400910087426
2018-05-18,-0.04479372490605464
2018-05-21,0.1976152907245903
2018-05-22,0.10991370546231541
2018-05-23,-0.24704071991217968
2018-05-24,-0.07567853678326868
2018-05-25,0.2700568583970371
2018-05-28,-0.1632560701855377
2018-05-29,0.0030999931677780593
2018-05-30,0.1738753019191634
2018-05-31,0.14653979238755993
2018-06-01,-0.47031584767434875
2018-06-04,0.07267441860466474
2018-06-05,-0.06484641638222419
2018-06-06,-0.07677962611258601
2018-06-07,-0.23139787280229213
2018-06-08,0.2746202700045097
2018-06-11,-0.04032258064518426
2018-06-12,0.12787162646628028
2018-06-13,-0.00881394074033964
2018-06-14,0.3136084989882648
2018-06-15,-0.11592407415597865
2018-06-19,0.2685834502104036
2018-06-20,0.004821397585582046
2018-06-21,0.12473522154039417
2018-06-22,-0.170887096774231
2018-06-25,0.10890300023134052
2018-06-26,-0.3509023789991951
2018-06-27,-0.06515843562661897
2018-06-28,-0.2175729118836246
2018-06-29,-0.07802870090634204
2018-07-02,-0.06062458233499574
2018-07-03,0.22100216517165294
2018-07-04,-0.15194190338630018
2018-07-05,0.1406707116316473
2018-07-06,0.1540269944217014
2018-07-09,-0.04736493753620951
2018-07-10,-0.18502732240433428
2018-07-11,0.21494716200024253
2018-07-12,-0.0657414083153359
2018-07-13,-0.13899651415591338
2018-07-16,0.06199654775608931
2018-07-17,0.02299625468163989
2018-07-18,-0.10169343065693753
2018-07-19,0.37792019553233236
2018-07-20,0.5713341339532378
2018-07-23,0.0009314456035349299
2018-07-24,0.07784045247083098
2018-07-25,0.03599999999999298
2018-07-26,-0.4500294017773772
2018-07-27,-0.9435713393216458
2018-07-30,-0.07158361951659693
2018-07-31,0.07406525363182641
2018-08-01,0.10038610038610324
2018-08-02,0.1729383338586167
2018-08-03,0.561448297296106
2018-08-06,0.0680604673739311
2018-08-07,-0.08823529411764142
2018-08-08,-0.10618320183538354
2018-08-09,-0.05149608715665611
2018-08-10,-0.17194053699320477
2018-08-13,0.1960473472838984
2018-08-14,0.02758873639373508
2018-08-15,0.035089528318952165
2018-08-16,0.0924861455138496
2018-08-17,0.17393664780752233
2018-08-20,-0.24260237708057505
2018-08-21,-0.011840704897685468
2018-08-22,-0.09712188423399469
2018-08-23,-0.257994106940213
2018-08-24,-0.21670406809655626
2018-08-27,-0.03479754518916007
2018-08-28,-0.030240785119249068
2018-08-29,0.03253533971724358
2018-08-30,0.1690900562852234
2018-08-31,-0.07016107016105949
2018-09-03,0.03699345654919767
2018-09-04,-0.08513824268677976
2018-09-05,0.0680810028929599
2018-09-06,-0.09064072783587779
2018-09-07,0.23770122053390202
2018-09-10,0.06733322035815081
2018-09-11,0.2957848424638292
2018-09-12,-0.029571451162263344
2018-09-13,0.12988400488398352
2018-09-14,-0.12105874218930815
2018-09-17,-0.14250552541695982
2018-09-18,-0.32426772515742275
2018-09-19,-0.023623597348905977
2018-09-20,-0.07532051282048478
2018-09-21,0.12887537993923168
2018-09-25,0.1263844936709225
2018-09-26,0.13580618669588018
2018-09-27,0.10056083502098422
2018-09-28,-0.0357037691401811
2018-10-08,-0.08936170212765324
2018-10-09,0.085498595505598
2018-10-10,-0.12673992673993983
2018-10-11,-0.09173568333868246
2018-10-12,0.05653710247350743
2018-10-15,-0.0742187500000361
2018-10-16,-0.03783245626511675
2018-10-17,0.1944444444444579
2018-10-18,-0.003177136018504065
2018-10-19,0.13483146067417556
2018-10-22,0.03461478960398168
2018-10-23,-0.10109182652572633
2018-10-24,-0.06825396825398816
2018-10-25,-0.024246944597097815
2018-10-26,-0.2787428997885734
2018-10-29,0.18184533970642902
2018-10-30,0.011385592945625644
2018-10-31,0.06650055370985303
2018-11-01,0.11481936656683367
2018-11-02,0.25129398944995857
2018-11-05,-0.21193834900735548
2018-11-06,0.06550304222232695
2018-11-07,-0.12693494690282947
2018-11-08,-0.10230234059340113
2018-11-09,-0.18561384285254878
2018-11-12,0.036486637593642506
2018-11-13,-0.13450779521096295
2018-11-14,-0.06485807300720266
2018-11-15,-0.05964489766095615
2018-11-16,0.3399900873769345
2018-11-19,0.2780119797321702
2018-11-20,0.14541219591616622
2018-11-21,0.2514829423906693
2018-11-22,0.17577081822783827
2018-11-23,-0.3877228051427282
2018-11-26,-0.24480164762883386
2018-11-27,-0.020580583882038483
2018-11-28,-0.2333333333333424
2018-11-29,-0.1880485527544064
2018-11-30,0.17525978493066624
2018-12-03,-0.05033557046982002
2018-12-04,-0.0647474537518308
2018-12-05,0.2868131868131977
2018-12-06,0.12001763668427225
2018-12-07,-0.05835921875665646
2018-12-10,-0.07161564904238496
2018-12-11,-0.0479976442873788
2018-12-12,-0.31938894438896026
2018-12-13,0.24477060757992114
2018-12-14,0.012511719970848368
2018-12-17,0.2800268208867863
2018-12-18,0.14861523244310682
2018-12-19,0.16878745674010853
2018-12-20,-0.37927877165794893
2018-12-21,0.0056426332288272455
2018-12-24,-0.27218971548870796
2018-12-25,-0.1025700347030197
2018-12-26,0.013084075483576693
2018-12-27,0.11290322580643608
2018-12-28,0.08151311775475135
2019-01-02,0.22488334488335507
2019-01-03,0.06775904972066178
2019-01-04,0.04747841890046836
2019-01-07,-0.014705882352938482
2019-01-08,-0.06075328057700363
2019-01-09,-0.1808175399479887
2019-01-10,0.09160700795050372
2019-01-11,-0.24723715651134673
2019-01-14,0.08282577336111438
2019-01-15,-0.13189156259517998
2019-01-16,0.17800285463329119
2019-01-17,-0.2733599733599917
2019-01-18,0.20182247957927002
2019-01-21,-0.1773152933070302
2019-01-22,0.09881500987492642
2019-01-23,-0.1370807590467805
2019-01-24,0.1579487179487416
2019-01-25,-0.157319781516967
2019-01-28,0.21660280970625517
2019-01-29,-0.030219009601925008
2019-01-30,-0.1196627137433843
2019-01-31,0.029918699186966165
2019-02-01,0.14517595117515655
2019-02-11,-0.043256464011171766
2019-02-12,0.02989871676273011
2019-02-13,0.13455405189079425
2019-02-14,0.0681077749405839
2019-02-15,0.08823529411767266
2019-02-18,-0.21197703035275556
2019-02-19,0.14300188160375832
2019-02-20,0.06881774119607441
2019-02-21,-0.13475285315520408
2019-02-22,-0.2317851108764788
2019-02-25,0.2959616711701012
2019-02-26,-0.09816671649839964
2019-02-27,-0.05184313972385147
2019-02-28,0.0491853954210934
2019-03-01,0.11237702592667283
2019-03-04,-0.10824196719229051
2019-03-05,-0.20752947502170987
2019-03-06,-0.030347087990571495
2019-03-07,-0.0033528123976682388
2019-03-08,0.004379464806081763
2019-03-11,-0.17486294217465548
2019-03-12,0.21588579927806767
2019-03-13,-0.019689935334132932
2019-03-14,-0.1292480479674208
2019-03-15,0.16357763975156492
2019-03-18,0.06013939318059658
2019-03-19,-0.012880684188566804
2019-03-20,0.06857389304202395
2019-03-21,0.05444739952717125
2019-03-22,-0.36419188191882734
2019-03-25,0.07482993197275029
2019-03-26,-0.1322192513369125
2019-03-27,-0.011226344488450888
2019-03-28,0.044102404643500764
2019-03-29,0.12253531626224291
2019-04-01,0.13513513513516143
2019-04-02,0.08593073593075798
2019-04-03,0.5284112872052735
2019-04-04,0.12430037313428938
2019-04-08,0.24030445298052355
2019-04-09,-0.15431978741331218
2019-04-10,0.11221329607637268
2019-04-11,-0.7424526692819182
2019-04-12,-0.1428011838439987
2019-04-15,-0.21499370864958778
2019-04-16,0.061226694320222375
2019-04-17,0.03852088808719242
2019-04-18,0.12318305001228998
2019-04-19,-0.0022881018702834294
2019-04-22,-0.087859306879504
2019-04-23,-0.08452570217277178
2019-04-24,-0.2709032074042661
2019-04-25,0.28080808080809877
2019-04-26,0.08146591970123382
2019-04-29,0.18758012820513195
2019-04-30,0.11033026780034577
2019-05-06,0.04681990458770027
2019-05-07,-0.3415662650602327
2019-05-08,-0.12996216030275917
2019-05-09,-0.13217193486584836
2019-05-10,-0.09677222750433558
2019-05-13,0.01053250264489626
2019-05-14,0.21954791643634114
2019-05-15,0.18633818589029222
2019-05-16,0.08437994644885578
2019-05-17,-0.06267743360041922
2019-05-20,0.06813874485963536
2019-05-21,-0.08958807560964242
2019-05-22,-0.2038423365804048
2019-05-23,-0.0009966951609929088
2019-05-24,0.017152138067581438
2019-05-27,0.3477009547084584
2019-05-28,0.10286117708522399
2019-05-29,0.17140108815576138
2019-05-30,0.0057003285291356235
2019-05-31,0.18342527434192205
2019-06-03,-0.5169096786604589
2019-06-04,-0.17167433327126358
2019-06-05,-0.05827956704336856
2019-06-06,-0.05012123141731925
2019-06-10,-0.22959692706779605
2019-06-11,0.20438385595169126
2019-06-12,0.011750052522567889
2019-06-13,-0.052881498484329284
2019-06-14,0.09633458646618268
2019-06-17,0.10252302058213054
2019-06-18,-0.0678398107744264
2019-06-19,0.05910014990657374
2019-06-20,0.08495291524741089
2019-06-21,-0.03935185185185487
2019-06-24,0.09502262443435851
2019-06-25,0.024261317430197576
2019-06-26,0.06488852692659026
2019-06-27,-0.0999298737727915
2019-06-28,0.05804843304845525
2019-07-01,-0.0018242626938055062
2019-07-02,0.2662815126050754
2019-07-03,-0.05825170025579794
2019-07-04,0.0446869070209029
2019-07-05,-0.1913156288156625
2019-07-08,-0.0985101854666868
2019-07-09,-0.48312852538278406
2019-07-10,0.05626588465296398
2019-07-11,0.1467858029287585
2019-07-12,0.16959860152241577
2019-07-15,0.16727102036023203
2019-07-16,0.18957475418102138
2019-07-17,-0.1332055378061676
2019-07-18,-0.2426599859353032
2019-07-19,-0.09060795857262804
2019-07-22,-0.34466286197420914
2019-07-23,0.37656071769889116
2019-07-24,0.11370679093899985
2019-07-25,0.05672979797979087
2019-07-26,-0.041668530196613845
2019-07-29,0.1925387500414914
2019-07-30,-0.6075167504187079
2019-07-31,-0.028120300751899655
2019-08-01,0.13045454545455637
2019-08-02,0.0991127243395401
2019-08-05,0.20826446280990688
2019-08-06,0.3434829059828943
2019-08-07,-0.05750711439951058
2019-08-08,-0.1383689839572308
2019-08-09,0.00046992481208732104
2019-08-12,-0.4521739130434607
2019-08-13,-0.2703239912542301
2019-08-14,0.2619377562214995
2019-08-15,0.5937051900452265
2019-08-16,-0.006796411126837997
2019-08-19,0.2755082429513903
2019-08-20,0.2278981305411994
2019-08-21,-0.231411541162193
2019-08-22,-0.8211270137932916
2019-08-23,-0.019989303158904362
2019-08-26,0.15374900342536557
2019-08-27,-0.0036750393701784623
2019-08-28,-0.060629938098190006
2019-08-29,0.765118592596433
2019-08-30,0.03492063492064826
2019-09-02,-0.22309560327193353
2019-09-03,-0.04584127706798842
2019-09-04,0.1441916336913514
2019-09-05,-0.7875152147452341
2019-09-06,-0.08402777777780884
2019-09-09,-0.07605345776088626
2019-09-10,0.013945010918735625
2019-09-11,-0.18057465185970734
2019-09-12,0.41230051189398126
2019-09-16,0.29772592738756753
2019-09-17,0.3831276746021674
2019-09-18,0.15622478656534936
2019-09-19,0.15791371623395817
2019-09-20,-0.14178170374075202
2019-09-23,-0.42849683331090166
2019-09-24,-0.33912886140077286
2019-09-25,-0.3000707413695739
2019-09-26,0.06937059299503343
2019-09-27,0.12359325262548318
2019-09-30,0.31767332437105555
2019-10-08,0.00886276224902005
2019-10-09,0.1640634368629319
2019-10-10,-0.18592781625958543
2019-10-11,-0.13705738705735243
2019-10-14,-0.13779527559056082
2019-10-15,0.056651850993893874
2019-10-16,-0.014869888475804163
2019-10-17,0.05997392438072182
2019-10-18,0.08175971538034972
2019-10-21,0.03765690376569548
2019-10-22,-0.0479315697125217
2019-10-23,0.02575107296133912
2019-10-24,-0.04999645415219913
2019-10-25,-0.0839840729859101
2019-10-28,-0.14192230660929808
2019-10-29,0.11339392387779935
2019-10-30,0.270731339098922
2019-10-31,0.1987285524309969
2019-11-01,0.019565083850370313
2019-11-04,0.054620012772679784
2019-11-05,0.23440337992578802
2019-11-06,-0.5080766149588235
2019-11-07,-0.22737118103056325
2019-11-08,0.034246575342488074
2019-11-11,0.17566165023351635
2019-11-12,-0.5364109057600399
2019-11-13,0.2115942028985783
2019-11-14,0.19654977375568022
2019-11-15,0.03930131004362704
2019-11-18,-0.036287006445142406
2019-11-19,0.18012599025298015
2019-11-20,0.02546023786639086
2019-11-21,-0.17313866756028967
2019-11-22,-0.09099449769880794
2019-11-25,-0.269452756021602
2019-11-26,0.1476231680644437
2019-11-27,-0.06191857119973458
2019-11-28,0.018123075044670027
2019-11-29,0.1088360447980146
2019-12-02,0.15810188068255845
2019-12-03,-0.16704947544842486
2019-12-04,0.04251893939386268
2019-12-05,0.12634321068058335
2019-12-06,0.004654895666113795
2019-12-09,-0.06832546832550637
2019-12-10,0.14072337145051533
2019-12-11,0.08233718399473373
2019-12-12,-0.11797443581430535
2019-12-13,-0.1734998804685342
2019-12-16,0.07198301809078134
2019-12-17,0.06352807714127845
2019-12-18,-0.1375781179241689
2019-12-19,0.051432405624538886
2019-12-20,0.36884498480243344
2019-12-23,0.036145890038147194
2019-12-24,-0.22746080139373304
2019-12-25,-0.0111211796688215
2019-12-26,0.13329030671833958
2019-12-27,-0.43554661301143127
2019-12-30,0.021818181818199986
2019-12-31,0.08962912087911787
2020-01-02,0.12209926034668533
2020-01-03,-0.18665648077416414
2020-01-06,0.2784037558685615
2020-01-07,-0.06525252525255464
2020-01-08,0.09451688208164702
2020-01-09,0.213564566031603
2020-01-10,0.14610389610395014
2020-01-13,-0.20344827586204467
2020-01-14,-0.009362859362867286
2020-01-15,-0.05660260512354739
2020-01-16,-0.48712702472291836
2020-01-17,-0.14326096788785747
2020-01-20,0.23886494252869966
2020-01-21,0.2226887791107771
2020-01-22,0.061283822239993894
2020-01-23,0.3981446341977404
2020-02-03,0.2925102583757928
2020-02-04,-0.1620510492332508
2020-02-05,-0.18558583230632383
2020-02-06,-0.11444092089253365
2020-02-07,-0.29462735099583864
2020-02-10,-0.5107399193196551
2020-02-11,0.17565399040974483
2020-02-12,-0.050269132154949034
2020-02-13,0.03722084367246116
2020-02-14,0.30179580977722265
2020-02-17,0.34836092669041907
2020-02-18,-0.1923551153754353
2020-02-19,-0.006673854787852138
2020-02-20,0.03461300711699701
2020-02-21,-0.3434856646556599
2020-02-24,-0.22871178970019831
2020-02-25,-0.026052247569763494
2020-02-26,0.20796419668356636
2020-02-27,-0.057426695329928334
2020-02-28,0.18884778339545732
2020-03-02,0.3418585160157786
2020-03-03,0.11938775510207586
2020-03-04,-0.2041040100250793
2020-03-05,-0.017938662884253703
2020-03-06,-0.07485821825491618
2020-03-09,-0.242569669269316
2020-03-10,0.2017730496453447
2020-03-11,0.17524113044655204
2020-03-12,0.1314324518528549
2020-03-13,0.23456203112501836
2020-03-16,0.10957839391267116
2020-03-17,-0.342188962846084
2020-03-18,-0.06897988837516296
2020-03-19,-0.04171588229992287
2020-03-20,-0.32787823253074916
2020-03-23,-0.16654152513756246
2020-03-24,0.0835351792557474
2020-03-25,-0.048737597509628215
2020-03-26,-0.15905596157499613
2020-03-27,0.1524597901127246
2020-03-30,0.1413331948375628
2020-03-31,0.050464269053932795
2020-04-01,-0.18094232758019807
2020-04-02,0.16065354087204348
2020-04-03,0.040975246705978616
2020-04-07,0.25869270787185705
2020-04-08,-0.04745200706253954
2020-04-09,0.23226634829816062
2020-04-10,-0.017534274817023715
2020-04-13,-0.09969510168026272
2020-04-14,-0.5660299656662671
2020-04-15,-0.10668429186552071
2020-04-16,-0.16277220119577274
2020-04-17,-0.08350070905564508
2020-04-20,0.058779792639097786
2020-04-21,0.23456745832438597
2020-04-22,0.13068699200699968
2020-04-23,0.5551776687481532
2020-04-24,0.10035980743508136
2020-04-27,-0.11828821136168854
2020-04-28,0.042014071846982665
2020-04-29,-0.03904675773872297
2020-04-30,-0.6578868103995061
2020-05-06,-0.02557051189272677
2020-05-07,0.2701065813844555
2020-05-08,0.14449386466092745
2020-05-11,0.16552084464928352
2020-05-12,0.1690609767313659
2020-05-13,-0.05606214116851222
2020-05-14,-0.15710972678522098
2020-05-15,-0.17278303432617048
2020-05-18,-0.1965675275885857
2020-05-19,0.1393204283407115
2020-05-20,0.011237200598377569
2020-05-21,-0.11272252170715857
2020-05-22,0.02096980177797686
2020-05-25,0.021070323601226775
2020-05-26,-0.0027543200730451994
2020-05-27,-0.016991168852356412
2020-05-28,0.13371910347716834
2020-05-29,-0.03764383815887184
2020-06-01,0.0677657787377003
2020-06-02,-0.2688763398145466
2020-06-03,0.14526942355891534
2020-06-04,-0.061585473350182024
2020-06-05,0.04467592592592332
2020-06-08,-0.018234688013941246
2020-06-09,0.13901749632087979
2020-06-10,-0.19825666253802576
2020-06-11,0.05068565887893968
2020-06-12,-0.11347762154214036
2020-06-15,-0.10928486111462796
2020-06-16,0.004105051056974455
2020-06-17,0.043612238979133335
2020-06-18,-0.014946470391450816
2020-06-19,0.1495258056485697
2020-06-22,0.03910705556458853
2020-06-23,0.14136213775829948
2020-06-24,0.06441885964909583
2020-06-29,-0.09070096099488913
2020-06-30,-0.020385324985616488
2020-07-01,0.00698241222581409
2020-07-02,-0.2822604829119639
2020-07-03,-0.01754385964910781
2020-07-06,0.5279678862858411
2020-07-07,0.10402525004100159
2020-07-08,0.20572335465952235
2020-07-09,0.3085345293762396
2020-07-10,0.021089630931468126
2020-07-13,-0.6224987189762055
2020-07-14,-0.28071452018821286
2020-07-15,-0.1754250651309541
2020-07-16,-0.18494557352921975
2020-07-17,0.025663615821764827
2020-07-20,0.10015674182016253
2020-07-21,0.19454790043021913
2020-07-22,0.08661387631976891
2020-07-23,-0.046027111698039434
2020-07-24,0.003115519650972662
2020-07-27,0.06946029776673918
2020-07-28,-0.057818342648006026
2020-07-29,-0.21685261303581677
2020-07-30,0.04914909739875647
2020-07-31,-0.17989972615652536
2020-08-03,0.17687722419927926
2020-08-04,0.06958304853036036
2020-08-05,0.1568614547687947
2020-08-06,0.08686880574307335
2020-08-07,0.1842315017577451
2020-08-10,-0.19494277689849387
2020-08-11,-0.07554282987350527
2020-08-12,0.015122800530015357
2020-08-13,-0.04272161237017157
2020-08-14,-0.10874599655088374
2020-08-17,-0.09207180993813807
2020-08-18,-0.0006744512973271242
2020-08-19,-0.07528302348012156
2020-08-20,0.06869130778418131
2020-08-21,0.03703782774300196
2020-08-24,0.11990415186920685
2020-08-25,0.029065828923015888
2020-08-26,0.058292406858153886
2020-08-27,-0.14845596827799967
2020-08-28,0.01081866359175241
2020-08-31,0.029770247805175662
2020-09-01,-0.05284854775217125
2020-09-02,-0.09413265306122359
2020-09-03,0.18456790123458167
2020-09-04,0.0033444816053562047
2020-09-07,-0.07730549341286484
2020-09-08,0.09790209790210042
2020-09-09,0.09492168960609178
2020-09-10,-0.18937462052220033
2020-09-11,0.09263019589105369
2020-09-14,0.05338321047419623
2020-09-15,0.02845859641978095
2020-09-16,-0.046223168281403285
2020-09-17,0.07887123788259937
2020-09-18,-0.10481366459625695
2020-09-21,0.07521332161144542
2020-09-22,-0.14467426480934503
2020-09-23,0.03912608220090545
2020-09-24,0.036942129078321055
2020-09-25,-0.04101966873706311
2020-09-28,-0.1829652996845718
2020-09-29,0.05331515426953985
2020-09-30,0.110005232634226
2020-10-09,-0.11271050715842024
2020-10-12,0.12161611219829191
2020-10-13,0.03997484455353979
2020-10-14,-0.026962004313900598
2020-10-15,-0.20100283680884823
2020-10-16,0.11747439192229567
2020-10-19,-0.03532871619900689
2020-10-20,0.1340847620927032
2020-10-21,0.027381521170312704
2020-10-22,0.0037245726291711134
2020-10-23,-0.05331592096295332
2020-10-26,-0.11556067247404817
2020-10-27,-0.09166728063064357
2020-10-28,0.1257359241549192
2020-10-29,0.14404404404405086
2020-10-30,0.028643164582877106
2020-11-02,0.13393086115810154
2020-11-03,-0.053328872532641236
2020-11-04,-0.17886037407570055
2020-11-05,-0.12663337494797622
2020-11-06,-0.04593728222992932
2020-11-09,-0.11422566811504785
2020-11-10,0.31336138111128375
2020-11-11,0.0028742067935965607
2020-11-12,0.041028902551006094
2020-11-13,0.14783011583011457
2020-11-16,0.05227487202947502
2020-11-17,-0.41620866325103323
2020-11-18,0.17420773857617805
2020-11-19,0.07981490247405863
2020-11-20,-0.11894144733158046
2020-11-23,-0.03984542713119362
2020-11-24,0.1724931447882542
2020-11-25,-0.1134874640539281
2020-11-26,-0.07611278697947207
2020-11-27,-0.050942722552605915
2020-11-30,0.19654340043818525
2020-12-01,0.003070764986174786
2020-12-02,-0.067812473103821
2020-12-03,-0.007676575642346362
2020-12-04,0.0032728040540692532
2020-12-07,-0.2992357436801934
2020-12-08,0.012369337979048298
2020-12-09,0.07216057552005944
2020-12-10,-0.030526887561070526
2020-12-11,0.15179135101008775
2020-12-14,0.1426171329331349
2020-12-15,-0.08927963698236964
2020-12-16,-0.039784688995244226
2020-12-17,0.16076980014797881
2020-12-18,-0.18082230758288345
2020-12-21,0.003557386257260887
2020-12-22,0.20894269959244016
2020-12-23,-0.023823529411732984
2020-12-24,-0.11324232762051223
2020-12-25,0.1332102648252363
2020-12-28,0.03324555628703963
2020-12-29,-0.24277886133557675
2020-12-30,0.20455217262780825
2020-12-31,0.18066801619431008
2021-01-04,-0.08336060506895017
2021-01-05,0.07734462573171186
2021-01-06,0.1562351825509492
2021-01-07,-0.2057286432160702
2021-01-08,-0.2632512131392408
2021-01-11,0.04949379681650702
2021-01-12,-0.14253169425580742
2021-01-13,-0.0766315789473598
2021-01-14,0.17065573770492415
2021-01-15,0.14385909816546075
2021-01-18,-0.09321546052629526
2021-01-19,-0.018460466736371375
2021-01-20,-0.0001935483870757447
2021-01-21,-0.1809036715892247
2021-01-22,-0.06943829438293637
2021-01-25,0.15060728744933838
2021-01-26,0.1362363127069262
2021-01-27,0.02809979838708249
2021-01-28,0.12083159147185102
2021-01-29,0.07703703703700049
2021-02-01,-0.15034965034962433
2021-02-02,-0.14355478040272623
2021-02-03,0.10540549089065368
2021-02-04,-0.03963475247806994
2021-02-05,-0.18561304987294203
2021-02-08,0.14780673871582686
2021-02-09,0.09484760522494666
2021-02-10,-0.15354654379368282
2021-02-18,-0.05727219966833175
2021-02-19,0.07759315348430228
2021-02-22,-0.09963163892284169
2021-02-23,0.0225850268392683
2021-02-24,-0.048985536080037695
2021-02-25,-0.03311595777761437
2021-02-26,0.17058804829693486
2021-03-01,0.07502522928967524
2021-03-02,-0.09692189686579428
2021-03-03,0.1701434159061393
2021-03-04,0.07523757166425032
2021-03-05,0.004754867313502442
2021-03-08,-0.012320572135462692
2021-03-09,0.1123957425619628
2021-03-10,-0.05658409387223364
2021-03-11,0.05403556771539653
2021-03-12,-0.31012658227850354
2021-03-15,-0.11109659437333053
2021-03-16,-0.17376856033714566
2021-03-17,-0.15179438211187807
2021-03-18,-0.10929334650267457
2021-03-19,0.2984868325330894
2021-03-22,-0.008830815951420018
2021-03-23,0.1818203187437823
2021-03-24,0.15763340953228325
2021-03-25,0.013541092112571734
2021-03-26,-0.28071792980511845
2021-03-29,0.05683320116307263
2021-03-30,0.04538734476642459
2021-03-31,-0.020295657530081026
2021-04-01,0.0634622269960696
2021-04-02,0.25772942405800986
2021-04-06,0.030904183535797394
2021-04-07,-0.2493111049875855
2021-04-08,-0.02395464209781552
2021-04-09,-0.023678828974335552
2021-04-12,-0.01787994891445606
2021-04-13,0.0637023593466619
2021-04-14,0.0556212351517279
2021-04-15,0.01807228915663235
2021-04-16,0.05264659723218024
2021-04-19,-0.10185185185179177
2021-04-20,-0.1489655172414243
2021-04-21,0.14980297869500242
2021-04-22,-0.011560693641587145
2021-04-23,-0.08159934720519854
2021-04-26,-0.07525252525259968
2021-04-27,0.19486486486484217
2021-04-28,-0.1290796160361801
2021-04-29,0.12694530902620788
2021-04-30,0.28796128251658243
2021-05-06,0.12596608284686944
2021-05-07,-0.070021815537437
2021-05-10,0.08888021849398875
2021-05-11,-0.1153846153845629
2021-05-12,-0.4478943101063333
2021-05-13,0.06469308616284276
2021-05-14,-0.11119376022787314
2021-05-17,0.07226422082302163
2021-05-18,-0.07273315697649385
2021-05-19,0.3597445413815882
2021-05-20,-0.03964274232218709
2021-05-21,0.16482662463535375
2021-05-24,-0.10934877049269758
2021-05-25,0.08760304545228248
2021-05-26,-0.23065786042772274
2021-05-27,-0.15779004522582074
2021-05-28,-0.23063450404326002
2021-05-31,0.01797821211706543
2021-06-01,0.00013011152417463472
2021-06-02,0.0954907161804259
2021-06-03,0.07631109860215185
2021-06-04,0.35493086753613223
2021-06-07,-0.11644300129468436
2021-06-08,-0.046531531531536635
2021-06-09,-0.08071944094398574
2021-06-10,0.02368890139782724
2021-06-11,-0.33663366336636596
2021-06-15,0.1514939045077064
2021-06-16,0.02089323365918625
2021-06-17,0.06191547886968883
2021-06-18,0.24916562369633857
2021-06-21,0.07523477669657536
2021-06-22,-0.09938647246605367
2021-06-23,0.015333133553109082
2021-06-24,-0.024771379760822724
2021-06-25,-0.4478925078148943
2021-06-28,0.056590681298361055
2021-06-29,0.125577731092414
2021-06-30,0.044485492188061346
2021-07-01,0.0661020249220876
2021-07-02,0.21348130073670563
2021-07-05,-0.08200348072334182
2021-07-06,-0.10804953560370929
2021-07-07,0.19538488952252825
2021-07-08,-0.05208333333326452
2021-07-09,0.08238574949199959
2021-07-12,0.22869804340521238
2021-07-13,0.0074410163339392425
2021-07-14,-0.34350514671998145
2021-07-15,0.04313725490193154
2021-07-16,-0.12868962800013445
2021-07-19,-0.34897236002836457
2021-07-20,0.06259946949601997
2021-07-21,0.057273262661983175
2021-07-22,-0.21221938050582848
2021-07-23,0.02391152299351954
2021-07-26,0.2138995243067161
2021-07-27,0.35809018567638884
2021-07-28,0.004629629629584096
2021-07-29,0.22463768115943858
2021-07-30,0.16319084831937902
2021-08-02,0.10115625065343109
2021-08-03,-0.5715517241379362
2021-08-04,0.018097643097669043
2021-08-05,0.006220506220447959
2021-08-06,-0.30574898785427096
2021-08-09,-0.02251694124483393
2021-08-10,0.19062500000002525
2021-08-11,0.053554778554767785
2021-08-12,-0.10266825508455939
2021-08-13,0.23751937984499122
2021-08-16,-0.2664984895200985
2021-08-17,-0.019112851492087014
2021-08-18,0.21128473854963684
2021-08-19,0.06211764731096267
2021-08-20,-0.09052210462400613
2021-08-23,0.10748783946715018
2021-08-24,-0.003732365114432482
2021-08-25,-0.485900123165011
2021-08-26,0.007482679968899574
2021-08-27,-0.06141587987210559
2021-08-30,0.2316900644409084
2021-08-31,0.019986174053298885
2021-09-01,0.45848739495796936
2021-09-02,-0.08732882362650393
2021-09-03,0.11471164494414601
2021-09-06,-0.22667917050042763
2021-09-07,-0.005385883646042303
2021-09-08,-0.34302951950010346
2021-09-09,0.06280479007356975
2021-09-10,-0.03195970695966215
2021-09-13,0.2110639040856926
2021-09-14,-0.07120986103478798
2021-09-15,0.22681485181485522
2021-09-16,0.019870882399495172
2021-09-17,-0.025111856823295108
2021-09-22,-0.43832679886045756
2021-09-23,0.18120067925280164
2021-09-24,-0.2661382734911898
2021-09-27,0.03122139909164779
2021-09-28,0.026302333013773237
2021-09-29,0.44284886341678126
2021-09-30,-0.14559669847037932
2021-10-08,0.20950869974540604
2021-10-11,-0.03146685810001329
2021-10-12,0.025359911406390746
2021-10-13,-0.18479259416288019
2021-10-14,-0.055424383662438834
2021-10-15,0.07883817427389314
2021-10-18,-0.15665085222279584
2021-10-19,0.050222662048509135
2021-10-20,0.00713813615327588
2021-10-21,0.11922331264368088
2021-10-22,-0.29242025909853936
2021-10-25,0.23375875960594977
2021-10-26,-0.14760638297873033
2021-10-27,-0.054379084967293996
2021-10-28,0.02603825187793707
2021-10-29,0.2349032170119949
2021-11-01,-0.10091743119268609
2021-11-02,0.15873430962341858
2021-11-03,0.10039016115352814
2021-11-04,-0.16087608028989903
2021-11-05,-0.12002551020408128
2021-11-08,0.004310344827599962
2021-11-09,-0.15202830103971046
2021-11-10,-0.0018043025676800079
2021-11-11,0.16066821465426118
2021-11-12,0.11091246415922301
2021-11-15,0.07381465517239548
2021-11-16,0.06304036822790254
2021-11-17,-0.1298888162197521
2021-11-18,-0.056962407690929424
2021-11-19,0.12491915403035868
2021-11-22,-0.20477278679703892
2021-11-23,-0.09098345970284932
2021-11-24,0.2738149567772367
2021-11-25,-0.0753630868965901
2021-11-26,-0.3774268822494039
2021-11-29,0.14086579627573173
2021-11-30,0.13046605485387258
2021-12-01,-0.3588612054925265
2021-12-02,0.21222633364164978
2021-12-03,0.20894220283532125
2021-12-06,-0.03299735220167639
2021-12-07,0.08245763090817357
2021-12-08,0.20823244552055575
2021-12-09,-0.11249776346389867
2021-12-10,-0.08628571428571921
2021-12-13,0.1696414116884887
2021-12-14,-0.24529147178466584
2021-12-15,-0.004237288135550604
2021-12-16,-0.08252559262661942
2021-12-17,0.2204716157205287
2021-12-20,-0.16987347580961232
2021-12-21,0.08509711697586521
2021-12-22,0.026576271186377433
2021-12-23,0.03850988278916835
2021-12-24,-0.25271871996763207
2021-12-27,-0.0025403172937843166
2021-12-28,0.022197179250767113
2021-12-29,-0.1764444444443919
2021-12-30,0.18779795796259854
2021-12-31,0.08260208260209739
2022-01-04,-0.01827128471166517
2022-01-05,0.03185204734162635
2022-01-06,0.12894894894893053
2022-01-07,-0.3698982495276791
2022-01-10,0.0048852451087564724
2022-01-11,0.06823209975865742
2022-01-12,-0.023041474654426495
2022-01-13,-0.004504504504534361
2022-01-14,0.23045858831110239
2022-01-17,0.203925551937305
2022-01-18,-0.005886568386565653
2022-01-19,-0.008810572687177555
2022-01-20,0.004444444444485768
2022-01-21,-0.024299613748603746
2022-01-24,-0.27927103855894825
2022-01-25,-0.12397179788481462
2022-01-26,0.10558476623557121
2022-01-27,0.06908496732026242
2022-01-28,0.15553400412171933
2022-02-07,0.24112487100103325
2022-02-08,0.13216599891177605
2022-02-09,-0.18617816705830556
2022-02-10,-0.12080213903745507
2022-02-11,-0.24835302729273256
2022-02-14,-0.2990196078431247
2022-02-15,-0.0944422137455477
2022-02-16,0.19498661256905234
2022-02-17,0.03354802948123865
2022-02-18,0.10408795289969815
2022-02-21,0.38687387779300053
2022-02-22,0.09085407265023379
2022-02-23,-0.1762146093193367
2022-02-24,0.0817246977915044
2022-02-25,-0.042590397363173
2022-02-28,-0.49357885863591766
2022-03-01,0.12235595362832036
2022-03-02,0.06614766532750402
2022-03-03,0.035603603603591716
2022-03-04,0.042880073377681564
2022-03-07,0.44470498084291155
2022-03-08,-0.26396265056062806
2022-03-09,0.1261573087350119
2022-03-10,-0.1646205527561362
2022-03-11,0.3225521255433143
2022-03-14,-0.2793978494623598
2022-03-15,0.36004024465567186
2022-03-16,0.035096592397210205
2022-03-17,0.024055963526245623
2022-03-18,-0.5497833165271819
2022-03-21,0.056451612903222176
2022-03-22,-0.4572612945229263
2022-03-23,-0.460656521994548
2022-03-24,0.18416910745370038
2022-03-25,0.12717701001943932
2022-03-28,0.05417700578993041
2022-03-29,0.15509539076046389
2022-03-30,0.3438869257950525
2022-03-31,-0.16643889105816315
2022-04-01,0.10905778240496583
2022-04-06,-0.009706959707012712
2022-04-07,0.1509433962264398
2022-04-08,-0.08310344827584598
2022-04-11,-0.0032917532917739432
2022-04-12,0.36229330441857466
2022-04-13,-0.04263639230523385
2022-04-14,-0.12516154044972103
2022-04-15,0.07843913732174804
2022-04-18,0.029348461089066632
2022-04-19,-0.6764508318363054
2022-04-20,0.028373246288568615
2022-04-21,-0.04536855838226743
2022-04-22,-0.04564496739640283
2022-04-25,-0.11620093856652118
2022-04-26,0.16193874516802054
2022-04-27,0.018072669826210162
2022-04-28,0.056453634085231894
2022-04-29,-0.016536359233427556
2022-05-05,0.17144396551722826
2022-05-06,0.2786511733879859
2022-05-09,0.0035205992509628
2022-05-10,0.047361151497491476
2022-05-11,-0.005412426932196138
2022-05-12,-0.15095785440615198
2022-05-13,-0.13145391194169742
2022-05-16,0.030765115034756946
2022-05-17,-0.0617152184831422
2022-05-18,0.05699149240877084
2022-05-19,0.19353386033750353
2022-05-20,-0.14323702955259934
2022-05-23,-0.09394502827168563
2022-05-24,0.06575159226764048
2022-05-25,-0.09702258451917624
2022-05-26,-0.15659302339665793
2022-05-27,0.17364130619811738
2022-05-30,-0.0056220712954171345
2022-05-31,0.09162698805615987
2022-06-01,0.06619159565093433
2022-06-02,0.1010278065492779
2022-06-06,-0.019706801249722593
2022-06-07,0.18189155477292945
2022-06-08,-0.19828767123291724
2022-06-09,0.08717864205666098
2022-06-10,-0.09907975460117838
2022-06-13,-0.124561403508751
2022-06-14,-0.22242905195785698
2022-06-15,0.1386942675159691
2022-06-16,-0.23078167988346543
2022-06-17,-0.027464788732494846
2022-06-20,0.15817597428686117
2022-06-21,0.0710569777044508
2022-06-22,-0.12938769817291
2022-06-23,0.34501309880242137
2022-06-24,0.20818374298085013
2022-06-27,0.046904646339835904
2022-06-28,0.18205033308658186
2022-06-29,0.06569343065695613
2022-06-30,-0.12834821428576296
2022-07-01,-0.20603276177976765
2022-07-04,-0.12918159704967408
2022-07-05,-0.1881446974378625
2022-07-06,0.004716981132071676
2022-07-07,-0.15147132796775387
2022-07-08,0.08044201265954798
2022-07-11,0.013574660633521947
2022-07-12,-0.125538288709968
2022-07-13,-0.04688565583084677
2022-07-14,0.002746035964172014
2022-07-15,0.07021426062527245
2022-07-18,-0.09554140127390864
2022-07-19,0.1812302385742859
2022-07-20,0.2476481267535649
2022-07-21,0.047670097198408964
2022-07-22,-0.15181305398874972
2022-07-25,0.1273885350318495
2022-07-26,0.07059641801422731
2022-07-27,-0.32907495767280764
2022-07-28,0.1238344988344933
2022-07-29,0.14117647058826793
2022-08-01,-0.07052116690716306
2022-08-02,-0.12750106428262792
2022-08-03,0.24193870088431768
2022-08-04,-0.0315425315425333
2022-08-05,-0.07470588235299541
2022-08-08,0.08412857860374531
2022-08-09,0.038397467932709636
2022-08-10,-0.13748195124715806
2022-08-11,-0.10210349722543186
2022-08-12,0.07632653061228632
2022-08-15,0.2846889952153302
2022-08-16,0.022712264970615695
2022-08-17,-0.0291420597338207
2022-08-18,-0.0032978422366268315
2022-08-19,-0.0616403220870329
2022-08-22,-0.5587579225393884
2022-08-23,-0.12597600773647386
2022-08-24,0.02080828824217916
2022-08-25,0.12064660894463816
2022-08-26,-0.0836335769462996
2022-08-29,0.22861438186950922
2022-08-30,0.15074476415989083
2022-08-31,0.027472527472472676
2022-09-01,0.06709421285690509
2022-09-02,0.2163881267149384
2022-09-05,-0.08333333333333433
2022-09-06,-0.052597402597405654
2022-09-07,0.04524886877828626
2022-09-08,-0.3223587223587249
2022-09-09,-0.09511271596581486
2022-09-13,0.04780033840947716
2022-09-14,-0.08875598086120905
2022-09-15,-0.056743121651805256
2022-09-16,0.2922832980972692
2022-09-19,-0.26745893238040797
2022-09-20,0.07607353546435403
2022-09-21,0.08421052631577278
2022-09-22,-0.04045379907449566
2022-09-23,-0.14471169162151315
2022-09-26,0.4378968474991355
2022-09-27,-0.005452821242244006
2022-09-28,0.011299435028246206
2022-09-29,0.33686425306534734
2022-09-30,0.12989874925546727
2022-10-10,-0.24848024316104864
2022-10-11,-0.026857266623347077
2022-10-12,0.3560475037472547
2022-10-13,-0.41327441007252064
2022-10-14,-0.0922275163787931
2022-10-17,-0.046196977084377595
2022-10-18,-0.037970229626591426
2022-10-19,-0.6776917663616928
2022-10-20,0.2061359867329765
2022-10-21,-0.13229063691567905
2022-10-24,0.3067633338046274
2022-10-25,0.1456818059372248
2022-10-26,0.3276608449021935
2022-10-27,-0.16713947990541345
2022-10-28,0.1522304653627337
2022-10-31,-0.35727216233017156
2022-11-01,-0.15278413424869383
2022-11-02,0.04279327230148923
2022-11-03,0.0996709804781647
2022-11-04,0.06337020789625081
2022-11-07,0.1042510772396603
2022-11-08,0.04650394101193253
2022-11-09,-0.15580306952179984
2022-11-10,0.02143675339551219
2022-11-11,0.4517268445840123
2022-11-14,0.1615023474178718
2022-11-15,0.0021028701335799073
2022-11-16,0.3747635473461626
2022-11-17,0.11143578643579208
2022-11-18,-0.6962167353045539
2022-11-21,-0.17724326404516735
2022-11-22,-0.020678537605779257
2022-11-23,-0.46239724900878765
2022-11-24,-0.31600658392440073
2022-11-25,0.2395395834601292
2022-11-28,0.19854910596955014
2022-11-29,0.14284240315199861
2022-11-30,0.2200728883910686
2022-12-01,0.26902729738813635
2022-12-02,-0.21573357830305612
2022-12-05,-0.2693058419243844
2022-12-06,-0.21826592082617957
2022-12-07,0.0882545931758727
2022-12-08,-0.15468206380928215
2022-12-09,0.11531565131325996
2022-12-12,0.13365400843883102
2022-12-13,0.09054852952183066
2022-12-14,-0.20216049382715104
2022-12-15,0.015001271294179358
2022-12-16,0.06408808582720832
2022-12-19,-0.04908767622034363
2022-12-20,-0.05448704219318514
2022-12-21,0.051798174986568836
2022-12-22,-0.019718765152766243
2022-12-23,-0.0057720057720282505
2022-12-26,0.07590186116572066
2022-12-27,0.08112257739739845
2022-12-28,-0.12658114405694093
2022-12-29,0.03819702602230807
2022-12-30,-0.12515262515261633
2023-01-03,-0.06916601269881731
2023-01-04,-0.17638738518486458
2023-01-05,0.14635687071870612
2023-01-06,0.05870786516855872
2023-01-09,0.10720921590486938
2023-01-10,0.012726188108912398
2023-01-11,0.2349385193187848
2023-01-12,0.03514324242511331
2023-01-13,0.01413902478361579
2023-01-16,0.010224339884893265
2023-01-17,-0.08228205610993516
2023-01-18,-0.1109100445843271
2023-01-19,0.020194593534802928
2023-01-20,-0.028889543980588288
2023-01-30,0.11222257619196746
2023-01-31,0.18235124829122223
2023-02-01,-0.025263924281005646
2023-02-02,-0.03412624378111476
2023-02-03,-0.08818811520237778
2023-02-06,-0.37972323659427365
2023-02-07,-0.09483629971431462
2023-02-08,-0.01500648929269105
2023-02-09,-0.027185693641618786
2023-02-10,0.10431848852904291
2023-02-13,0.2694354951673703
2023-02-14,-0.08749076945799517
2023-02-15,0.0838789942378341
2023-02-16,0.19979598775925642
2023-02-17,-0.08459266979324437
2023-02-20,0.12756002824858537
2023-02-21,0.11244700517418285
2023-02-22,-0.03194341315444955
2023-02-23,-0.37754260483525476
2023-02-24,0.12231441317754854
2023-02-27,-0.34371825958862867
2023-02-28,0.024474326921957695
2023-03-01,0.062063895082209594
2023-03-02,0.25787873928905086
2023-03-03,-0.030028714019416376
2023-03-06,0.17713172112712025
2023-03-07,-0.0697983531090916
2023-03-08,-0.1177089309620066
2023-03-09,-0.15331719128329502
2023-03-10,-0.17858321779891068
2023-03-13,0.10512820512821361
2023-03-14,-0.07162940152623198
2023-03-15,0.11385177572232419
2023-03-16,0.15323891339678708
2023-03-17,0.20631528964854232
2023-03-20,-0.14790419161680296
2023-03-21,0.12884913828306685
2023-03-22,-0.05645727320590712
2023-03-23,-0.1421127825867588
2023-03-24,-0.017532688062408743
2023-03-27,0.05419349979288687
2023-03-28,-0.11269654088050116
2023-03-29,-0.027916044466516382
2023-03-30,0.22150695584551033
2023-03-31,-0.08978994840125795
2023-04-03,0.05103553258820219
2023-04-04,0.09329819277106118
2023-04-06,0.057823129251752065
2023-04-07,-0.025794300687866867
2023-04-10,0.005721733049350773
2023-04-11,-0.1268435573418061
2023-04-12,-0.0063010663342473626
2023-04-13,-0.023809523809648996
2023-04-14,-0.3163787375415057
2023-04-17,-0.011465108587823798
2023-04-18,0.12877797583674588
2023-04-19,-0.04770516839483601
2023-04-20,-0.03649635036485239
2023-04-21,0.2776190476190276
2023-04-24,0.02856717750335843
2023-04-25,-0.208195429472046
2023-04-26,0.1919580419579797
2023-04-27,0.13794562572726768
2023-04-28,-0.2609649122806833
2023-05-04,-0.010013986013990658
2023-05-05,0.4440181374259542
2023-05-08,-0.16898734177208344
2023-05-09,-0.1853202431043255
2023-05-10,0.2550963676797673
2023-05-11,0.16125490196078254
2023-05-12,-0.46749576031659923
2023-05-15,0.0606540084387764
2023-05-16,0.07720430107536108
2023-05-17,-0.04390774175253
2023-05-18,-0.20218996689582866
2023-05-19,0.21491630475588008
2023-05-22,-0.06736701219039462
2023-05-23,0.14461236697542418
2023-05-24,-0.1110699694616316
2023-05-25,0.03301363245135769
2023-05-26,0.045335326185369965
2023-05-29,0.11265686726288232
2023-05-30,-0.20651712888020302
2023-05-31,0.10205279978238085
2023-06-01,0.09778969595674357
2023-06-02,0.13126328575772586
2023-06-05,-0.1560809457022842
2023-06-06,0.09827439886842025
2023-06-07,-0.029347569608310427
2023-06-08,-0.11900836009137253
2023-06-09,-0.2803256133914549
2023-06-12,0.08542877178922992
2023-06-13,0.04516333986340616
2023-06-14,0.08938480673549022
2023-06-15,0.2045162434073034
2023-06-16,0.10504919099115013
2023-06-19,0.05239794225027501
2023-06-20,-0.14629488158899534
2023-06-21,-0.1345771144277781
2023-06-26,-0.2930765516472612
2023-06-27,-0.2702397955348475
2023-06-28,-0.25772668032025103
2023-06-29,0.14661654135338037
2023-06-30,0.1269230769230518
2023-07-03,0.16767443083229164
2023-07-04,0.6884404107953065
2023-07-05,0.2106694118889056
2023-07-06,-0.126035427551948
2023-07-07,-0.14835164835163656
2023-07-10,0.04133366633368585
2023-07-11,-0.8313946858250396
2023-07-12,-0.04307359307354122
2023-07-13,0.03624891748116109
2023-07-14,0.2788359788359117
2023-07-17,-0.030497876356754154
2023-07-18,0.38712084865929014
2023-07-19,0.033056478405236414
2023-07-20,0.04333417232989728
2023-07-21,-0.3526588040553783
2023-07-24,-0.17406471791172481
2023-07-25,0.14891518737673823
2023-07-26,0.1247357293869308
2023-07-27,0.011264367816067863
2023-07-28,0.24964700104358284
2023-07-31,0.1919812701199946
2023-08-01,-0.22798742138366307
2023-08-02,-0.2871174052078647
2023-08-03,-0.14650887573964969
2023-08-04,0.014809693617718014
2023-08-07,-0.15531808413557793
2023-08-08,-0.02420556107249986
2023-08-09,0.13636527963558565
2023-08-10,0.09920960566667966
2023-08-11,-0.4500876509545019
2023-08-14,0.1665257819105054
2023-08-15,0.3226397178513825
2023-08-16,0.06438848920868973
2023-08-17,0.110473873247576
2023-08-18,0.37404782056712715
2023-08-21,0.21839960170399783
2023-08-22,-0.30094666831265116
2023-08-23,-0.0438207329581186
2023-08-24,-0.1597606355981902
2023-08-25,0.08470558914946341
2023-08-28,-0.3273444203263155
2023-08-29,0.1705748392844728
2023-08-30,0.11564814412561114
2023-08-31,0.05206114554576578
2023-09-01,-0.08696196586626934
2023-09-04,-0.048692304080345764
2023-09-05,-0.2125108038029418
2023-09-06,-0.06806397030734693
2023-09-07,0.13717794810231312
2023-09-08,-0.058927108927135624
2023-09-11,0.16051039621803923
2023-09-12,0.13152030373057785
2023-09-13,-0.14581365006522035
2023-09-14,-0.1326530612244969
2023-09-15,0.013409723087196353
2023-09-18,-0.13362215426431068
2023-09-19,-0.09010750860489705
2023-09-20,0.06030417745902401
2023-09-21,-0.021857923497226678
2023-09-22,0.043714440182204106
2023-09-25,0.17234169653521497
2023-09-26,0.13717196962413253
2023-09-27,0.04984557925730122
2023-09-28,0.03519125683059164
2023-10-09,-0.16629912770748648
2023-10-10,-0.308531906846039
2023-10-11,-0.08539415033278525
2023-10-12,0.07744185376257157
2023-10-13,-0.10054263565893685
2023-10-16,0.1335624092076839
2023-10-17,0.2832835061382879
2023-10-18,-0.01081319651329487
2023-10-19,-0.0117090659445096
2023-10-20,0.28610432994987905
2023-10-23,-0.04323578619852608
2023-10-24,-0.020077524074852547
2023-10-25,0.26663505610870564
2023-10-26,-0.20702074112646146
2023-10-27,-0.343523126797858
2023-10-30,0.027204523698139547
2023-10-31,-0.08659120084026073
2023-11-01,-0.5332432432432197
2023-11-02,0.12318840579710065
2023-11-03,0.10237457804682268
2023-11-06,0.0758383063370544
2023-11-07,-0.030782169890615354
2023-11-08,0.47248175182485347
2023-11-09,-0.05555555555554631
2023-11-10,0.06186136426399097
2023-11-13,-0.09822775263947307
2023-11-14,0.1346426124685274
2023-11-15,-0.29904616900275316
2023-11-16,0.13194444444440384
2023-11-17,-0.038962681846909965
2023-11-20,0.051788124156520926
2023-11-21,-0.16334116641743074
2023-11-22,0.12380617187706498
2023-11-23,-0.0062454754846844596
2023-11-24,0.09795645899846811
2023-11-27,-0.0014187560309036305
2023-11-28,0.09592116967682196
2023-11-29,0.022170010006696585
2023-11-30,-0.17871484197558787
2023-12-01,-0.17475546644264123
2023-12-04,0.010050708251882819
2023-12-05,0.00863945323755179
2023-12-06,-0.16454689984097068
2023-12-07,0.30388392857140883
2023-12-08,0.050402212166850105
2023-12-11,-0.09686194501122222
2023-12-12,-0.13098377281949106
2023-12-13,0.32521777976324706
2023-12-14,-0.23003472222220178
2023-12-15,0.22560774909495845
2023-12-18,0.13556632141672256
2023-12-19,0.16172268907566498
2023-12-20,-0.2987782968020642
2023-12-21,0.1444783197831895
2023-12-22,-0.24029567554753825
2023-12-25,0.038189987162943834
2023-12-26,-0.009100529100530365
2023-12-27,0.19499006841760608
2023-12-28,-0.06770002279464118
2023-12-29,0.06940817030504738
2024-01-02,-0.14081871345026037
2024-01-03,-0.03311145246631726
2024-01-04,-0.19131724729389588
2024-01-05,-0.16960709517449102
2024-01-08,-0.061600188812850766
2024-01-09,-0.06320987654315971
2024-01-10,-0.11195631588910607
2024-01-11,0.303496113492919
2024-01-12,0.10207331340175427
2024-01-15,0.2291021671825965
2024-01-16,0.059876543209825515
2024-01-17,0.1432021537730449
2024-01-18,-0.24847328244267997
2024-01-19,-0.04469773159007289
2024-01-22,-0.14502404735471364
2024-01-23,0.09376693766936382
2024-01-24,-0.05780346820809369
2024-01-25,0.1676470588235272
2024-01-26,0.05964912280699043
2024-01-29,-0.10059547705072425
2024-01-30,-0.020592334494780352
2024-01-31,0.0891642448822922
2024-02-01,-0.25166767738026047
2024-02-02,-0.025187969924825825
2024-02-05,0.0814946151825433
2024-02-06,0.14254355400701801
2024-02-07,0.0007156556837571576
2024-02-08,0.2934409084118048
2024-02-19,0.16488095238097708
2024-02-20,-0.03079586351418278
2024-02-21,-0.27093763246437397
2024-02-22,-0.13906735560309996
2024-02-23,-0.26180658584283767
2024-02-26,-0.18875075599511432
2024-02-27,0.03933512639518852
2024-02-28,0.11988156004795071
2024-02-29,0.036377741730635
2024-03-01,0.3510909592002056
2024-03-04,0.06788284451517201
2024-03-05,-0.057921978930370786
2024-03-06,-0.025773195876261652
2024-03-07,0.2694669930850404
2024-03-08,-0.37284259424695654
2024-03-11,0.0507563629235117
2024-03-12,0.07421175822659165
2024-03-13,0.10394265232972365
2024-03-14,-0.4016539016538715
2024-03-15,0.12026196204228337
2024-03-18,-0.04349091577562479
2024-03-19,-0.0256804683160031
2024-03-20,-0.2895487129358122
2024-03-21,0.19024463908187184
2024-03-22,0.10342348030443586
2024-03-25,-0.06083169204654114
2024-03-26,-0.09770114942527545
2024-03-27,0.30824757004001135
2024-03-28,-0.07412546413916113
2024-03-29,-0.12157394303028461
2024-04-01,0.004726949171348159
2024-04-02,0.07212238950946373
2024-04-03,-0.22264150943393685
2024-04-08,0.07796451914099634
2024-04-09,-0.14207613238451397
2024-04-10,-0.020809152710931672
2024-04-11,0.02715640246710093
2024-04-12,0.17096774193547679
2024-04-15,0.00439854656722137
2024-04-16,0.0943351222421037
2024-04-17,0.055099693251524154
2024-04-18,0.1064249599210651
2024-04-19,-0.18894527002534378
2024-04-22,-0.17627196684830126
2024-04-23,0.19569336778642604
2024-04-24,0.08519736842106283
2024-04-25,-0.21705783095567188
2024-04-26,0.5504099605221962
2024-04-29,0.35239153947844637
2024-04-30,-0.09479752125668552
2024-05-06,-0.02989076464753429
2024-05-07,0.1119494648183783
2024-05-08,-0.6203756948436653
2024-05-09,-0.3170676443931856
2024-05-10,-0.07015279491316884
2024-05-13,-0.14042716214913542
2024-05-14,-0.04232145010246893
2024-05-15,0.205184641721641
2024-05-16,0.06525547085087827
2024-05-17,0.02137733142038011
2024-05-20,0.10366759358608804
2024-05-21,0.010398502428290001
2024-05-22,-0.11944352205133382
2024-05-23,-0.11455590283896577
2024-05-24,-0.04545806433836391
2024-05-27,-0.10551737419352583
2024-05-28,0.0642634304281991
2024-05-29,0.1914878570266939
2024-05-30,0.2688580237985183
2024-05-31,0.0704580643383717
2024-06-03,0.14431522949396502
2024-06-04,-0.09534008307379327
2024-06-05,-0.1257820646506214
2024-06-06,-0.18293591654246338
2024-06-07,-0.08865375418463875
2024-06-11,-0.10419223564367766
2024-06-12,0.01122793354104485
2024-06-13,-0.00233860109139946
2024-06-14,0.05808080808081129
2024-06-17,0.16293346606936396
2024-06-18,0.05309734513276381
2024-06-19,0.1977605360607474
2024-06-20,0.07135527665963151
2024-06-21,0.04947108884116151
2024-06-24,0.03200371057516237
2024-06-25,-0.054421768707522106
2024-06-26,-0.268291027555431
2024-06-27,0.161028061893501
2024-06-28,0.00792721855714583
2024-07-01,0.3960410557184609
2024-07-02,0.221088435374155
2024-07-03,0.19948876063989196
2024-07-04,-0.26066248105652207
2024-07-05,-0.025714563484356977
2024-07-08,-0.7561562925942593
2024-07-09,-0.3442367601245808
2024-07-10,-0.22225690975691287
2024-07-11,-0.004781330876861389
2024-07-12,-0.1131320295876163
2024-07-15,0.09144011354947396
2024-07-16,0.37023064391661065
2024-07-17,0.14606643356643267
2024-07-18,0.15522875816995624
2024-07-19,0.13350733773275966
2024-07-22,0.28926694760941163
2024-07-23,-0.2636664676184433
2024-07-24,-0.02175404213622369
2024-07-25,0.006410256410200002
2024-07-26,-0.06548745372283508
2024-07-29,-0.2908546939435417
2024-07-30,0.1352916314454877
2024-07-31,0.09361774889924446
2024-08-01,-0.0094966761632867
2024-08-02,0.20067226890764267
2024-08-05,0.2828400982570757
2024-08-06,0.04778325123150673
2024-08-07,-0.12213204307784395
2024-08-08,-0.02000594972485404
2024-08-09,-0.2680519480520004
2024-08-12,-0.05538025889964966
2024-08-13,-0.12374211726820858
2024-08-14,0.1490569492766512
2024-08-15,-0.09911022180593662
2024-08-16,0.09090909090910092
2024-08-19,-0.155330914250144
2024-08-20,-0.1529455814195559
2024-08-21,-0.09483546770845482
2024-08-22,-0.06953677888789744
2024-08-23,0.047686178900430164
2024-08-26,0.028942025361230327
2024-08-27,0.3410893214058269
2024-08-28,-0.05570139700164875
2024-08-29,0.1367079236308682
2024-08-30,0.04864409632896293
2024-09-02,0.05555555555557267
2024-09-03,-0.2601525966034995
2024-09-04,-0.059526774595236996
2024-09-05,0.007051648561092555
2024-09-06,-0.21828149474161704
2024-09-09,-0.055555555555535166
2024-09-10,0.11897612601526819
2024-09-11,0.10725404732253976
2024-09-12,-0.12524117580299338
2024-09-13,0.08491418247522284
2024-09-18,0.11965811965811865
2024-09-19,0.07916371367822413
2024-09-20,0.042690417690354907
2024-09-23,0.12065687121866439
2024-09-24,0.4897733554449373
2024-09-25,0.12082894274670146
2024-09-26,0.01849014555333646
2024-09-27,0.5046194153337672
2024-09-30,0.21800327332244682
2024-10-08,-0.38065243898459994
2024-10-09,-0.19226647017445836
2024-10-10,-0.1809775335288774
2024-10-11,-0.8238739868521875
2024-10-14,-0.5005330674719353
2024-10-15,-0.3473779970703925
2024-10-16,-0.1192884132981989
2024-10-17,0.03315966817442381
2024-10-18,0.34067221557762944
2024-10-21,0.23070793180132276
2024-10-22,0.22511490617751356
2024-10-23,0.20586865964223625
2024-10-24,0.018366391972319287
2024-10-25,-0.23575044375782156
2024-10-28,-0.01629176676130164
2024-10-29,0.0200067976764327
2024-10-30,-0.23035639412997702
2024-10-31,-0.1343865558525113
2024-11-01,0.22051970950002253
2024-11-04,0.003253489249376733
2024-11-05,0.09487829614609872
2024-11-06,0.2284591774094534
2024-11-07,0.10012082158676727
2024-11-08,-0.081404985019431
2024-11-11,0.05571253071246811
2024-11-12,-0.059414877062023135
2024-11-13,-0.18787438208784
2024-11-14,-0.01065088757392742
2024-11-15,-0.03439153439154758
2024-11-18,-0.01508567390915726
2024-11-19,-0.024771524771498882
2024-11-20,0.137016382014679
2024-11-21,0.18980721511738585
2024-11-22,0.08349809243660668
2024-11-25,0.1353176683459324
2024-11-26,-0.05243965216329686
2024-11-27,0.10223130855685647
2024-11-28,-0.19877406606661358
2024-11-29,0.08744207850356446
2024-12-02,-0.12461223674803135
2024-12-03,0.12276762927093023
2024-12-04,-0.16904395542720452
2024-12-05,0.016773523914261568
2024-12-06,-0.1979933110367876
2024-12-09,-0.11676744566104943
2024-12-10,0.13336306868871856
2024-12-11,0.0358781362007377
2024-12-12,0.09164915966385687
2024-12-13,0.09948633278299394
2024-12-16,0.16176673025111304
2024-12-17,-0.3170230263158188
2024-12-18,0.3963363363363076
2024-12-19,-0.015964516874718233
2024-12-20,0.0017559032418554277
2024-12-23,-0.004313834632092943
2024-12-24,0.19909492074928473
2024-12-25,-0.5972972972972909
2024-12-26,-0.01145895251303667
2024-12-27,0.0044687698583503535
2024-12-30,-0.10308811959090075
2024-12-31,-0.15074188020874818
