date,FCT_Demark_Atr_Dfive
2015-03-20,
2015-03-23,
2015-03-24,
2015-03-25,
2015-03-26,
2015-03-27,
2015-03-30,
2015-03-31,
2015-04-01,
2015-04-02,0.20655737704918933
2015-04-03,0.4038461538461685
2015-04-07,0.37583892617450315
2015-04-08,0.667883211678831
2015-04-09,0.5191637630662048
2015-04-10,0.6594827586207003
2015-04-13,0.7920353982300982
2015-04-14,0.7405660377358543
2015-04-15,0.16949152542373425
2015-04-16,0.6212121212121126
2015-04-17,0.667774086378727
2015-04-20,0.6621621621621534
2015-04-21,0.7228915662650548
2015-04-22,0.8540925266903912
2015-04-23,0.48181818181818525
2015-04-24,0.3571428571428617
2015-04-27,0.39690721649484223
2015-04-28,0.13983050847457196
2015-04-29,0.16097560975609546
2015-04-30,0.21568627450980118
2015-05-04,0.20245398773005555
2015-05-05,0.0
2015-05-06,0.1534391534391503
2015-05-07,0.18032786885244892
2015-05-08,0.18539325842695417
2015-05-11,0.546391752577316
2015-05-12,0.9367588932806235
2015-05-13,0.9122807017543682
2015-05-14,0.9270072992700581
2015-05-15,0.9103942652329752
2015-05-18,0.5565217391304395
2015-05-19,0.25641025641026166
2015-05-20,0.25641025641026927
2015-05-21,0.0
2015-05-22,0.0
2015-05-25,0.0
2015-05-26,0.6739130434782648
2015-05-27,0.6884057971014432
2015-05-28,0.8123249299719826
2015-05-29,0.8639999999999938
2015-06-01,1.0
2015-06-02,0.6949999999999911
2015-06-03,0.7393162393162324
2015-06-04,0.597087378640771
2015-06-05,0.5808080808080752
2015-06-08,0.23560209424083955
2015-06-09,0.26706231454006735
2015-06-10,0.05787781350482668
2015-06-11,0.05099150141643375
2015-06-12,0.07458563535911328
2015-06-15,0.11344537815125583
2015-06-16,0.5144927536231806
2015-06-17,0.6094420600858309
2015-06-18,0.9736842105263089
2015-06-19,0.969879518072282
2015-06-23,0.9823529411764698
2015-06-24,0.29714285714286304
2015-06-25,0.37823834196892003
2015-06-26,0.16129032258066553
2015-06-29,0.24271844660193434
2015-06-30,0.21256038647341868
2015-07-01,0.4999999999999675
2015-07-02,0.1885245901639029
2015-07-03,0.5714285714285355
2015-07-06,0.546762589928034
2015-07-07,0.5671641791044695
2015-07-08,0.8599508599508615
2015-07-09,0.9956331877729298
2015-07-10,0.8997722095672107
2015-07-13,0.7900207900208013
2015-07-14,0.7958762886598021
2015-07-15,0.23382045929019074
2015-07-16,0.012371134020619111
2015-07-17,0.012875536480687113
2015-07-20,0.013392857142857597
2015-07-21,0.0
2015-07-22,0.044247787610628635
2015-07-23,0.08130081300814745
2015-07-24,0.1588785046729133
2015-07-27,0.5277777777777917
2015-07-28,0.871428571428605
2015-07-29,0.5930232558139532
2015-07-30,0.7499999999999796
2015-07-31,0.8385093167701729
2015-08-03,0.6737588652482003
2015-08-04,0.6827586206896338
2015-08-05,0.8333333333333213
2015-08-06,0.7765957446808486
2015-08-07,0.08035714285716926
2015-08-10,0.135416666666716
2015-08-11,0.4028776978417565
2015-08-12,0.5891089108910991
2015-08-13,0.5104357699388847
2015-08-14,0.7885746548731906
2015-08-17,0.7370416600407854
2015-08-18,0.3875860167990815
2015-08-19,0.005491689489835285
2015-08-20,0.006357031604896669
2015-08-21,0.0
2015-08-24,0.0
2015-08-25,0.012767174179594132
2015-08-26,0.027777777777799773
2015-08-27,0.6962025316455777
2015-08-28,0.7472527472527143
2015-08-31,0.9367088607594932
2015-09-01,0.9363057324840769
2015-09-02,1.0
2015-09-07,0.7460317460317589
2015-09-08,0.752577319587634
2015-09-09,0.3492063492063284
2015-09-10,0.45333333333329806
2015-09-11,0.23893805309730362
2015-09-14,0.2983425414364158
2015-09-15,0.2080924855491115
2015-09-16,0.34615384615383654
2015-09-17,0.0
2015-09-18,0.2830188679246189
2015-09-21,0.272727272727339
2015-09-22,0.2777777777778482
2015-09-23,0.22058823529417265
2015-09-24,0.3061224489796939
2015-09-25,7.674412211742184e-14
2015-09-28,0.5000000000000665
2015-09-29,0.5964912280702439
2015-09-30,0.9508196721311227
2015-10-08,0.7249999999999341
2015-10-09,0.9064039408866723
2015-10-12,0.9099526066350433
2015-10-13,0.9383116883116668
2015-10-14,0.9532019704433349
2015-10-15,1.0
2015-10-16,0.7735368956743153
2015-10-19,0.6486486486486674
2015-10-20,0.5626911314985092
2015-10-21,0.2198581560283988
2015-10-22,0.1056910569105878
2015-10-23,0.24712643678161972
2015-10-26,0.5769230769230643
2015-10-27,0.38222222222221397
2015-10-28,0.6457142857143165
2015-10-29,0.6648648648648997
2015-10-30,0.5638297872340793
2015-11-02,0.30344827586212386
2015-11-03,0.32116788321170076
2015-11-04,0.121428571428572
2015-11-05,0.0
2015-11-06,0.13846153846148257
2015-11-09,0.411392405063222
2015-11-10,0.699999999999963
2015-11-11,0.9181818181817915
2015-11-12,1.0
2015-11-13,1.0
2015-11-16,0.707142857142859
2015-11-17,0.5497101082006953
2015-11-18,0.5964549100789398
2015-11-19,0.22992255278911494
2015-11-20,0.15233556887605226
2015-11-23,0.5962183389610514
2015-11-24,0.7178238041734561
2015-11-25,0.5293006872168524
2015-11-26,0.7122066688650953
2015-11-27,0.718117419544691
2015-11-30,0.3602693602693459
2015-12-01,0.181818181818181
2015-12-02,0.3584905660377258
2015-12-03,0.1261261261261144
2015-12-04,0.12121212121211482
2015-12-07,0.14659685863873786
2015-12-08,0.13333333333332872
2015-12-09,0.0
2015-12-10,0.0
2015-12-11,0.0
2015-12-14,0.15748031496067486
2015-12-15,0.26190476190480744
2015-12-16,0.4516129032258329
2015-12-17,0.49122807017546855
2015-12-18,0.7704918032787027
2015-12-21,0.6666666666666221
2015-12-22,0.6190476190475871
2015-12-23,0.3508771929823835
2015-12-24,0.7261904761904425
2015-12-25,0.392523364485937
2015-12-28,0.3534482758620428
2015-12-29,0.44696969696964556
2015-12-30,0.5839999999999524
2015-12-31,0.3333333333332545
2016-01-04,0.7380952380951771
2016-01-05,0.8266666666666386
2016-01-06,0.8522727272727116
2016-01-07,0.9127516778523368
2016-01-08,0.9927536231884304
2016-01-11,0.8045112781955207
2016-01-12,0.8251748251748394
2016-01-13,0.5209580838323667
2016-01-14,0.11214953271037405
2016-01-15,0.10091743119268606
2016-01-18,0.4552238805969819
2016-01-19,0.3597122302157677
2016-01-20,0.6851851851851238
2016-01-21,0.5362318840579451
2016-01-22,0.477419354838683
2016-01-25,0.19672131147543478
2016-01-26,0.2105263157895146
2016-01-27,0.0
2016-01-28,0.0
2016-01-29,0.31147540983612126
2016-02-01,0.23456790123460952
2016-02-02,0.5877862595419899
2016-02-03,0.6549295774647937
2016-02-04,0.731884057971048
2016-02-05,0.6183447990063603
2016-02-15,0.8837358175168675
2016-02-16,0.4567691521981752
2016-02-17,0.24316434749159985
2016-02-18,0.24638081966504016
2016-02-19,0.25376290509360927
2016-02-22,0.0698872254830228
2016-02-23,0.07238332355705468
2016-02-24,0.10255665802906411
2016-02-25,0.0
2016-02-26,0.16049382716055688
2016-02-29,0.30645161290326384
2016-03-01,0.9000000000000643
2016-03-02,0.95652173913052
2016-03-03,0.8627450980392082
2016-03-04,0.8653846153846009
2016-03-07,0.8861788617886102
2016-03-08,0.8249999999999754
2016-03-09,0.5124999999999312
2016-03-10,0.7252747252746655
2016-03-11,0.7126436781608543
2016-03-14,0.41111111111102594
2016-03-15,0.3157894736841584
2016-03-16,0.5583333333332972
2016-03-17,0.4077669902912581
2016-03-18,0.22142857142857567
2016-03-21,0.31932773109243384
2016-03-22,0.3800000000000439
2016-03-23,0.06603773584905442
2016-03-24,0.05982905982905287
2016-03-25,0.3111111111111143
2016-03-28,0.20388349514563764
2016-03-29,0.2475247524752468
2016-03-30,0.39062500000000744
2016-03-31,0.47169811320761934
2016-04-01,0.07843137254908764
2016-04-05,0.6351351351351557
2016-04-06,0.4886363636363778
2016-04-07,0.48314606741571187
2016-04-08,0.6237623762375711
2016-04-11,0.7888888888888623
2016-04-12,0.29473684210527723
2016-04-13,0.5242718446602113
2016-04-14,0.6444444444444686
2016-04-15,0.5630252100840797
2016-04-18,0.5593220338983509
2016-04-19,0.9565217391304575
2016-04-20,0.8985507246377009
2016-04-21,0.5800000000000504
2016-04-22,0.45312499999997174
2016-04-25,0.4696969696968534
2016-04-26,0.3859649122805993
2016-04-27,0.2682926829267378
2016-04-28,0.2894736842104102
2016-04-29,0.32352941176460703
2016-05-03,0.16249999999999382
2016-05-04,0.0
2016-05-05,0.0
2016-05-06,0.0
2016-05-09,0.7246040448004032
2016-05-10,0.8552345526151293
2016-05-11,0.9401724883140327
2016-05-12,0.9802310581268545
2016-05-13,1.0
2016-05-16,0.604902816276664
2016-05-17,0.3102517525457141
2016-05-18,0.287433872980645
2016-05-19,0.26027397260273627
2016-05-20,0.07619047619044012
2016-05-23,0.10191082802543058
2016-05-24,0.22105263157889976
2016-05-25,0.18018018018016338
2016-05-26,0.04201680672270955
2016-05-27,0.046296296296323036
2016-05-30,0.20779220779218288
2016-05-31,0.20779220779215382
2016-06-01,0.26666666666660194
2016-06-02,0.44736842105238706
2016-06-03,0.9999999999998934
2016-06-06,0.30612244897937396
2016-06-07,0.13513513513496148
2016-06-08,0.1794871794870022
2016-06-13,0.20987654320982996
2016-06-14,0.22891566265062424
2016-06-15,0.38000000000002465
2016-06-16,0.9830508474576377
2016-06-17,0.9821428571428698
2016-06-20,0.8793103448276136
2016-06-21,0.8571428571429058
2016-06-22,0.9200000000000162
2016-06-23,0.4411764705883148
2016-06-24,0.6806722689076159
2016-06-27,0.7714285714286067
2016-06-28,0.8117647058823687
2016-06-29,0.7500000000000235
2016-06-30,0.9659863945578262
2016-07-01,0.6716417910447523
2016-07-04,0.65625
2016-07-05,0.3880597014925668
2016-07-06,0.40000000000003
2016-07-07,0.16153846153851525
2016-07-08,0.33962264150949917
2016-07-11,0.11538461538461924
2016-07-12,0.14851485148516025
2016-07-13,0.14018691588785942
2016-07-14,0.1973684210526403
2016-07-15,0.2650602409638454
2016-07-18,0.6190476190476881
2016-07-19,0.6341463414633485
2016-07-20,0.8431372549019
2016-07-21,0.8918918918918484
2016-07-22,0.5945945945945083
2016-07-25,0.540540540540435
2016-07-26,0.7399999999999232
2016-07-27,0.5876288659793213
2016-07-28,0.4666666666666171
2016-07-29,0.4929577464788585
2016-08-01,0.5362318840580255
2016-08-02,0.057692307692481175
2016-08-03,0.06976744186067378
2016-08-04,0.027777777777875434
2016-08-05,0.11864406779684483
2016-08-08,0.07812500000011588
2016-08-09,0.08794248509294483
2016-08-10,0.5369190500978764
2016-08-11,0.8487313835275485
2016-08-12,0.8843538453707253
2016-08-15,0.9433642126623304
2016-08-16,1.0
2016-08-17,0.7479921324372878
2016-08-18,0.6512545663013585
2016-08-19,0.4544248819448367
2016-08-22,0.27419354838711735
2016-08-23,0.23728813559318204
2016-08-24,0.5402298850574424
2016-08-25,0.6049382716049323
2016-08-26,0.8771929824561806
2016-08-29,0.6329113924050672
2016-08-30,0.2558139534884215
2016-08-31,0.034482758620743605
2016-09-01,0.011627906976729704
2016-09-02,0.0
2016-09-05,0.0
2016-09-06,0.0
2016-09-07,0.18965517241381452
2016-09-08,0.16666666666670862
2016-09-09,0.4242424242424829
2016-09-12,0.5074626865671771
2016-09-13,0.8333333333333331
2016-09-14,0.8421052631579022
2016-09-19,0.7384615384615706
2016-09-20,0.43055555555549296
2016-09-21,0.36231884057970787
2016-09-22,0.19718309859162234
2016-09-23,0.0
2016-09-26,0.01333333333324663
2016-09-27,0.018518518518402576
2016-09-28,0.017241379310233618
2016-09-29,0.016393442622843583
2016-09-30,0.02857142857124307
2016-10-10,0.0
2016-10-11,0.0
2016-10-12,0.33333333333335546
2016-10-13,0.7333333333333538
2016-10-14,0.9322033898305442
2016-10-17,0.9838709677419117
2016-10-18,0.847222222222289
2016-10-19,0.8571428571429239
2016-10-20,0.7704918032786728
2016-10-21,0.5434782608695352
2016-10-24,0.7666666666666082
2016-10-25,0.9056603773583973
2016-10-26,0.8924731182794565
2016-10-27,0.9385964912280401
2016-10-28,1.0
2016-10-31,0.6739130434782633
2016-11-01,0.5223880597014486
2016-11-02,0.329545454545417
2016-11-03,0.05747126436778066
2016-11-04,0.0
2016-11-07,0.0
2016-11-08,0.0
2016-11-09,0.5599416485507158
2016-11-10,0.7563560606612397
2016-11-11,0.8486080821868057
2016-11-14,0.968297747454958
2016-11-15,1.0
2016-11-16,0.8081154067180282
2016-11-17,0.8061576166041297
2016-11-18,0.801127702573168
2016-11-21,0.42059470839061563
2016-11-22,0.15833333333333907
2016-11-23,0.25490196078428534
2016-11-24,0.16666666666664756
2016-11-25,0.05263157894733454
2016-11-28,0.08860759493671881
2016-11-29,0.6621621621621699
2016-11-30,0.751243781094544
2016-12-01,0.903345724907069
2016-12-02,1.0
2016-12-05,1.0
2016-12-06,0.878326996197698
2016-12-07,0.6867469879517709
2016-12-08,0.45930232558135314
2016-12-09,0.3441558441557748
2016-12-12,0.39156626506024156
2016-12-13,0.36312849162013
2016-12-14,0.6179775280899021
2016-12-15,0.8678304239401428
2016-12-16,0.9355300859598881
2016-12-19,0.9389416553595679
2016-12-20,1.0
2016-12-21,1.0
2016-12-22,0.8247311827956995
2016-12-23,0.5316455696202519
2016-12-26,0.3999999999999933
2016-12-27,0.15919811320754335
2016-12-28,0.0
2016-12-29,0.04397163120567361
2016-12-30,0.131313131313138
2017-01-03,0.16049382716050503
2017-01-04,0.28695652173917285
2017-01-05,0.5038167938932122
2017-01-06,0.17326732673273224
2017-01-09,0.005000000000039886
2017-01-10,0.005617977528134543
2017-01-11,0.0
2017-01-12,0.0
2017-01-13,0.0
2017-01-16,0.23529411764705005
2017-01-17,0.25339366515836675
2017-01-18,0.32941176470589467
2017-01-19,0.6833333333333479
2017-01-20,0.9945865479159693
2017-01-23,0.5028569685233754
2017-01-24,0.7042431053879412
2017-01-25,0.7203757942362145
2017-01-26,0.6260398683436991
2017-02-03,0.7216286325958262
2017-02-06,0.9412871857181141
2017-02-07,0.6767722340433912
2017-02-08,0.6486594695943998
2017-02-09,0.6703601108033405
2017-02-10,0.10377358490565358
2017-02-13,0.054726368159216
2017-02-14,0.06853582554518453
2017-02-15,0.06214689265537807
2017-02-16,0.2488151658767737
2017-02-17,0.7213930348258513
2017-02-20,0.6029411764705398
2017-02-21,0.6577540106951341
2017-02-22,0.8996282527880691
2017-02-23,0.630952380952365
2017-02-24,0.6075949367088346
2017-02-27,0.7235772357723685
2017-02-28,0.6691729323308415
2017-03-01,0.292079207920826
2017-03-02,0.3470588235294398
2017-03-03,0.18478260869568364
2017-03-06,0.0
2017-03-07,0.0
2017-03-08,0.011111111111114068
2017-03-09,0.23809523809523678
2017-03-10,0.26315789473685636
2017-03-13,0.8181818181818199
2017-03-14,0.9000000000000111
2017-03-15,0.7379310344827639
2017-03-16,0.7540453074433704
2017-03-17,0.8208469055374502
2017-03-20,0.3033707865168514
2017-03-21,0.4334365325077421
2017-03-22,0.516605166051668
2017-03-23,0.270833333333342
2017-03-24,0.43243243243243673
2017-03-27,0.6201550387596898
2017-03-28,0.5075376884422167
2017-03-29,0.5950413223140458
2017-03-30,0.8135593220338562
2017-03-31,0.27922077922077865
2017-04-05,0.6305220883534118
2017-04-06,0.5340136054421687
2017-04-07,0.3904109589041121
2017-04-10,0.4056939501779612
2017-04-11,0.5066666666666901
2017-04-12,0.0
2017-04-13,0.1242937853107638
2017-04-14,0.3448275862069214
2017-04-17,0.4585365853658363
2017-04-18,0.5291005291005074
2017-04-19,0.7633587786259679
2017-04-20,0.5999999999999583
2017-04-21,0.41237113402054554
2017-04-24,0.08333333333328924
2017-04-25,0.33333333333332443
2017-04-26,0.5205479452054032
2017-04-27,0.7627118644067685
2017-04-28,0.47368421052629767
2017-05-02,0.46874999999998673
2017-05-03,0.13483146067413365
2017-05-04,0.44604316546764605
2017-05-05,0.3481012658227942
2017-05-08,0.6172839506173119
2017-05-09,0.6211180124223952
2017-05-10,0.825100365210854
2017-05-11,0.8100571671343059
2017-05-12,0.9615782464040001
2017-05-15,0.8942479505969118
2017-05-16,0.8833670527236865
2017-05-17,0.5745753278055892
2017-05-18,0.3103312694298782
2017-05-19,0.0
2017-05-22,0.03597128279929709
2017-05-23,0.03636363636365028
2017-05-24,0.09036144578315114
2017-05-25,0.1612903225806608
2017-05-26,0.24999999999999978
2017-05-31,0.0833333333333227
2017-06-01,0.170731707317054
2017-06-02,0.05882352941175806
2017-06-05,0.17073170731709758
2017-06-06,0.35042735042737705
2017-06-07,0.6302521008403507
2017-06-08,0.5190839694656818
2017-06-09,0.797872340425582
2017-06-12,0.7654320987654677
2017-06-13,0.6176470588235736
2017-06-14,0.11940298507462313
2017-06-15,0.6330275229357236
2017-06-16,0.5535714285713206
2017-06-19,0.6323529411763962
2017-06-20,0.6766917293232205
2017-06-21,0.9173553719007732
2017-06-22,0.46728971962618554
2017-06-23,0.4901960784314316
2017-06-26,0.229357798165184
2017-06-27,0.18421052631585752
2017-06-28,0.0
2017-06-29,0.04347826086954084
2017-06-30,0.041666666666645466
2017-07-03,0.32584269662919674
2017-07-04,0.3085106382978421
2017-07-05,0.6891891891892453
2017-07-06,0.5164835164835752
2017-07-07,0.6818181818181941
2017-07-10,0.37593984962406574
2017-07-11,0.4850746268656699
2017-07-12,0.34126984126980464
2017-07-13,0.44144144144138525
2017-07-14,0.17647058823526762
2017-07-17,0.39759036144573584
2017-07-18,0.2499999999999626
2017-07-19,0.24324324324323723
2017-07-20,0.15189873417720798
2017-07-21,0.5
2017-07-24,0.2209302325581317
2017-07-25,0.284090909090943
2017-07-26,0.39743589743590935
2017-07-27,0.6086956521739194
2017-07-28,0.41573033707866863
2017-07-31,0.8241758241758282
2017-08-01,0.7582417582416967
2017-08-02,0.6562499999999377
2017-08-03,0.4130434782608601
2017-08-04,0.5365853658536777
2017-08-07,0.117647058823638
2017-08-08,0.10721269355253424
2017-08-09,0.17092902438301572
2017-08-10,0.1913953447245585
2017-08-11,0.04523422210853359
2017-08-14,0.47968071728762923
2017-08-15,0.5088583374961241
2017-08-16,0.40865804306777653
2017-08-17,0.5677559806078137
2017-08-18,0.7103477376910359
2017-08-21,0.19148936170205952
2017-08-22,0.2886597938144207
2017-08-23,0.4455445544554542
2017-08-24,0.42268041237114684
2017-08-25,0.3157894736842715
2017-08-28,0.7750000000000685
2017-08-29,0.7692307692307477
2017-08-30,0.5416666666664842
2017-08-31,0.3571428571427199
2017-09-01,0.38461538461530503
2017-09-04,0.4285714285710726
2017-09-05,0.08108108108094221
2017-09-06,0.07894736842092288
2017-09-07,0.5409836065574212
2017-09-08,0.7200000000000101
2017-09-11,0.6538461538461896
2017-09-12,0.8831168831168605
2017-09-13,0.8947368421053024
2017-09-14,0.8787878787879148
2017-09-15,0.6727272727273058
2017-09-18,0.8636363636363943
2017-09-19,0.6276595744681424
2017-09-20,0.641304347826137
2017-09-21,0.5600000000000513
2017-09-22,0.6000000000000306
2017-09-25,0.04477611940302502
2017-09-26,0.055555555555599614
2017-09-27,0.04411764705882353
2017-09-28,0.0
2017-09-29,0.05223880597018416
2017-10-09,0.28346456692910993
2017-10-10,0.357142857142848
2017-10-11,0.44628099173548524
2017-10-12,1.0
2017-10-13,0.932692307692282
2017-10-16,0.6732673267326641
2017-10-17,0.7950310559006147
2017-10-18,0.8186813186813227
2017-10-19,0.7770270270270332
2017-10-20,0.8364779874214002
2017-10-23,1.0
2017-10-24,0.5503355704698293
2017-10-25,0.5786163522012766
2017-10-26,0.5533333333333476
2017-10-27,0.6338797814207718
2017-10-30,0.7624113475177391
2017-10-31,1.0
2017-11-01,0.8930041152263337
2017-11-02,0.7777777777777658
2017-11-03,0.633466135458156
2017-11-06,0.17073170731704906
2017-11-07,0.10132158590309552
2017-11-08,0.18348623853209423
2017-11-09,0.2299465240641435
2017-11-10,0.2605369825522342
2017-11-13,0.9208801301419275
2017-11-14,0.9232422216778142
2017-11-15,0.6925390022385705
2017-11-16,0.7023639981670271
2017-11-17,0.6980901803926011
2017-11-20,0.2814093150475244
2017-11-21,0.05890797311322962
2017-11-22,0.16478479232413554
2017-11-23,0.09433962264152826
2017-11-24,0.25438596491234294
2017-11-27,0.25892857142865044
2017-11-28,0.3258426966292989
2017-11-29,0.6610169491525786
2017-11-30,0.7150259067357856
2017-12-01,0.6910112359550795
2017-12-04,0.9101796407185594
2017-12-05,1.0
2017-12-06,0.45180722891563985
2017-12-07,0.3085714285713678
2017-12-08,0.2873563218390243
2017-12-11,0.13375796178340096
2017-12-12,0.0
2017-12-13,0.0
2017-12-14,0.0
2017-12-15,0.01111111111114829
2017-12-18,0.012820512820589587
2017-12-19,0.01694915254247312
2017-12-20,0.02941176470606117
2017-12-21,0.043478260869849454
2017-12-22,0.18518518518532573
2017-12-25,0.10869565217392997
2017-12-26,0.18750000000015285
2017-12-27,0.13953488372101636
2017-12-28,0.3333333333333337
2017-12-29,0.2400000000000043
2018-01-02,0.8020833333333293
2018-01-03,0.767676767676687
2018-01-04,0.9298245614034306
2018-01-05,0.8119658119657428
2018-01-08,0.8333333333332785
2018-01-09,0.23076923076923228
2018-01-10,0.3191489361702204
2018-01-11,0.28888888888888586
2018-01-12,0.33333333333334075
2018-01-15,0.3129770992366392
2018-01-16,0.8676470588235194
2018-01-17,0.8656716417910549
2018-01-18,0.4927536231884612
2018-01-19,0.5454545454545675
2018-01-22,0.7011494252873353
2018-01-23,0.5512820512819379
2018-01-24,0.3493975903613254
2018-01-25,0.4915254237286714
2018-01-26,0.28358208955214
2018-01-29,0.0
2018-01-30,0.0
2018-01-31,0.0
2018-02-01,0.11904761904765404
2018-02-02,0.15151515151519965
2018-02-05,0.38888888888898027
2018-02-06,0.7746478873239123
2018-02-07,1.0
2018-02-08,1.0
2018-02-09,1.0
2018-02-12,0.804225452152591
2018-02-13,0.6180829182635802
2018-02-14,0.6010234096329151
2018-02-22,0.3095653177458868
2018-02-23,0.0
2018-02-26,0.3957163950706866
2018-02-27,0.5871803200368617
2018-02-28,0.6090534979423506
2018-03-01,0.7810945273631567
2018-03-02,0.9751552795031091
2018-03-05,0.532894736842093
2018-03-06,0.17431192660544814
2018-03-07,0.0833333333333356
2018-03-08,0.0833333333333579
2018-03-09,0.3402777777778046
2018-03-12,0.5444444444444325
2018-03-13,0.5505617977528203
2018-03-14,0.6960784313725186
2018-03-15,0.5486725663716242
2018-03-16,0.21782178217819848
2018-03-19,0.30526315789476477
2018-03-20,0.45454545454545425
2018-03-21,0.18947368421054397
2018-03-22,0.4955752212389812
2018-03-23,0.7867647058823597
2018-03-26,0.7246376811594141
2018-03-27,0.5393939393939643
2018-03-28,0.7218934911242778
2018-03-29,0.545454545454544
2018-03-30,0.26612903225804513
2018-04-02,0.4057971014492395
2018-04-03,0.7066666666666633
2018-04-04,0.5140845070422884
2018-04-09,0.6461538461538985
2018-04-10,0.7807017543860127
2018-04-11,0.8015873015873672
2018-04-12,0.5543478260869552
2018-04-13,0.8181818181817376
2018-04-16,0.8699186991869238
2018-04-17,0.7183098591549338
2018-04-18,0.7590361445783069
2018-04-19,0.8181818181818673
2018-04-20,0.7777777777778154
2018-04-23,0.4402985074627173
2018-04-24,0.5175438596491183
2018-04-25,0.0
2018-04-26,0.0
2018-04-27,0.015151515151531444
2018-05-02,0.02197802197804591
2018-05-03,0.04494382022471027
2018-05-04,0.0784313725489927
2018-05-07,0.35937499999997236
2018-05-08,0.6238532110091327
2018-05-09,0.5190839694655771
2018-05-10,0.5594405594405092
2018-05-11,0.7777777777777446
2018-05-14,0.541353383458653
2018-05-15,0.21008403361348432
2018-05-16,0.47286821705433624
2018-05-17,0.4379839618160804
2018-05-18,0.3716260047948467
2018-05-21,0.6570633822840569
2018-05-22,0.9450334508758197
2018-05-23,0.45812080319049725
2018-05-24,0.32914770438132046
2018-05-25,0.6532577185381452
2018-05-28,0.47968186402413854
2018-05-29,0.48296946008763314
2018-05-30,0.6917293233082241
2018-05-31,0.8310810810810427
2018-06-01,0.3354838709677235
2018-06-04,0.3999999999999917
2018-06-05,0.3489932885906208
2018-06-06,0.23664122137410318
2018-06-07,1.9422842241928683e-14
2018-06-08,0.20000000000002152
2018-06-11,0.17647058823527925
2018-06-12,0.3703703703703521
2018-06-13,0.36144578313248155
2018-06-14,0.8295454545454312
2018-06-15,0.6590909090909639
2018-06-19,0.8581560283688484
2018-06-20,0.8657718120805892
2018-06-21,0.9175824175824577
2018-06-22,0.8928571428571882
2018-06-25,1.0
2018-06-26,0.6204379562043396
2018-06-27,0.5478260869564464
2018-06-28,0.2100840336133599
2018-06-29,0.16783216783211094
2018-07-02,0.008264462809890986
2018-07-03,0.3131313131312399
2018-07-04,0.20270270270266152
2018-07-05,0.33333333333330983
2018-07-06,0.5446428571428248
2018-07-09,0.4803149606298779
2018-07-10,0.25203252032521334
2018-07-11,0.5384615384615795
2018-07-12,0.43617021276595813
2018-07-13,0.20454545454548295
2018-07-16,0.28000000000013636
2018-07-17,0.3181818181819496
2018-07-18,0.0526315789475274
2018-07-19,0.6640625000000713
2018-07-20,0.9057971014492939
2018-07-23,0.9068100358423081
2018-07-24,0.9665427509293734
2018-07-25,1.0
2018-07-26,0.7639484978540505
2018-07-27,0.0498084291187501
2018-07-30,0.025925925925913633
2018-07-31,0.07394366197183312
2018-08-01,0.1516129032258108
2018-08-02,0.23809523809525351
2018-08-03,0.873949579831973
2018-08-06,1.0
2018-08-07,1.0
2018-08-08,0.9677419354838444
2018-08-09,0.958333333333303
2018-08-10,0.291666666666629
2018-08-13,0.8089887640448953
2018-08-14,0.8300603193376116
2018-08-15,0.8637301689668045
2018-08-16,0.9000920432981345
2018-08-17,1.0
2018-08-20,0.8652962785497448
2018-08-21,0.8624822269472022
2018-08-22,0.67296934342741
2018-08-23,0.348676901021445
2018-08-24,0.04652583102472305
2018-08-27,0.044692737430150925
2018-08-28,0.0
2018-08-29,0.0
2018-08-30,0.0595238095238996
2018-08-31,0.04950495049512977
2018-09-03,0.05952380952390533
2018-09-04,0.04716981132083235
2018-09-05,0.12745098039218586
2018-09-06,0.06896551724133555
2018-09-07,0.3253012048193347
2018-09-10,0.43209876543218234
2018-09-11,0.8190476190476559
2018-09-12,0.8061224489796538
2018-09-13,1.0
2018-09-14,0.8555555555555091
2018-09-17,0.5897435897435349
2018-09-18,0.1764705882352631
2018-09-19,0.16037735849050525
2018-09-20,0.0
2018-09-21,0.2058823529411797
2018-09-25,0.3521126760564074
2018-09-26,0.7297297297299006
2018-09-27,0.9056603773585193
2018-09-28,0.7499999999999684
2018-10-08,0.6279069767441611
2018-10-09,0.7575757575757143
2018-10-10,0.4848484848484353
2018-10-11,0.3333333333333554
2018-10-12,0.41538461538466054
2018-10-15,0.3214285714285543
2018-10-16,0.20833333333330054
2018-10-17,0.6071428571428453
2018-10-18,0.5964912280700547
2018-10-19,0.7526881720429299
2018-10-22,0.8139534883720494
2018-10-23,0.6707317073170387
2018-10-24,0.5846153846153255
2018-10-25,0.5277777777777475
2018-10-26,0.02666666666662111
2018-10-29,0.3645833333333481
2018-10-30,0.38043478260873737
2018-10-31,0.47706422018351874
2018-11-01,0.61344537815131
2018-11-02,0.9375000000000451
2018-11-05,0.7058823529412014
2018-11-06,0.7850467289719467
2018-11-07,0.6190476190476557
2018-11-08,0.47826086956523534
2018-11-09,0.14457831325299786
2018-11-12,0.17391304347824715
2018-11-13,0.0
2018-11-14,0.0
2018-11-15,0.0
2018-11-16,0.38458126039469726
2018-11-19,0.6055219769256694
2018-11-20,0.7293761143111996
2018-11-21,0.9021557066125021
2018-11-22,1.0
2018-11-23,0.7512639750658271
2018-11-26,0.6449219112451806
2018-11-27,0.6315789473684167
2018-11-28,0.33333333333332626
2018-11-29,0.08000000000003452
2018-11-30,0.2666666666667085
2018-12-03,0.22857142857143561
2018-12-04,0.13333333333332476
2018-12-05,0.5371900826446272
2018-12-06,0.742268041237056
2018-12-07,0.6744186046510744
2018-12-10,0.5225225225224842
2018-12-11,0.4639999999999885
2018-12-12,0.0642201834862006
2018-12-13,0.37423312883433146
2018-12-14,0.3850931677018553
2018-12-17,0.6467065868263542
2018-12-18,0.7878787878787726
2018-12-19,1.0
2018-12-20,0.6612903225806844
2018-12-21,0.6666666666666952
2018-12-24,0.3220338983050599
2018-12-25,0.1495327102803415
2018-12-26,0.15740740740745493
2018-12-27,0.2575757575758027
2018-12-28,0.45555555555560634
2019-01-02,0.874999999999981
2019-01-03,1.0
2019-01-04,1.0
2019-01-07,0.9482758620689774
2019-01-08,0.9405940594059506
2019-01-09,0.6276595744680622
2019-01-10,0.7307692307692174
2019-01-11,0.3710691823899354
2019-01-14,0.4719101123595461
2019-01-15,0.3495145631068029
2019-01-16,0.5116279069767494
2019-01-17,0.27753303964756865
2019-01-18,0.4469273743016561
2019-01-21,0.28645833333331094
2019-01-22,0.3594771241829852
2019-01-23,0.1370967741935274
2019-01-24,0.28358208955225805
2019-01-25,0.024390243902489103
2019-01-28,0.4246575342466041
2019-01-29,0.37804878048779444
2019-01-30,0.26724137931036335
2019-01-31,0.3089430894308715
2019-02-01,0.47524752475243537
2019-02-11,0.40449438202243315
2019-02-12,0.4499999999999596
2019-02-13,0.878048780487738
2019-02-14,0.9180327868852086
2019-02-15,0.944444444444423
2019-02-18,0.5483870967741937
2019-02-19,0.6646341463414979
2019-02-20,0.7139415788362508
2019-02-21,0.6146481554775899
2019-02-22,0.378440794227277
2019-02-25,0.693151725380762
2019-02-26,0.628049726163788
2019-02-27,0.5682002265619558
2019-02-28,0.655598445297591
2019-03-01,1.0
2019-03-04,1.0
2019-03-05,0.28571428571434865
2019-03-06,0.2525252525253351
2019-03-07,0.23711340206188933
2019-03-08,0.244897959183691
2019-03-11,0.0708661417322652
2019-03-12,0.3026315789473489
2019-03-13,0.2839506172839025
2019-03-14,0.16666666666664998
2019-03-15,0.39189189189188417
2019-03-18,0.46031746031746124
2019-03-19,0.4426229508196762
2019-03-20,0.5263157894737436
2019-03-21,0.6060606060606354
2019-03-22,0.15094339622647995
2019-03-25,0.19047619047624514
2019-03-26,0.06315789473691612
2019-03-27,0.021978021977972106
2019-03-28,0.025974025973970798
2019-03-29,0.05128205128194199
2019-04-01,0.42187499999997197
2019-04-02,0.6000000000000476
2019-04-03,0.8838709677419709
2019-04-04,0.9197860962566826
2019-04-08,0.9915254237288202
2019-04-09,0.95433789954339
2019-04-10,0.9691119691119728
2019-04-11,0.5815899581590144
2019-04-12,0.4814814814815081
2019-04-15,0.25000000000002387
2019-04-16,0.3218390804598044
2019-04-17,0.34806629834256986
2019-04-18,0.5206611570247929
2019-04-19,0.5163934426229368
2019-04-22,0.411764705882323
2019-04-23,0.3223684210525973
2019-04-24,0.0
2019-04-25,0.3187499999999872
2019-04-26,0.40372670807453914
2019-04-29,0.6222222222222259
2019-04-30,0.737931034482771
2019-05-06,0.7810218978102097
2019-05-07,0.42105263157896655
2019-05-08,0.29370629370627377
2019-05-09,0.16083916083917607
2019-05-10,0.0
2019-05-13,0.0
2019-05-14,0.20238095238089665
2019-05-15,0.48809523809527716
2019-05-16,0.6470588235293726
2019-05-17,0.5176470588234612
2019-05-20,0.6376811594201957
2019-05-21,0.49314417683931877
2019-05-22,0.054967895677437394
2019-05-23,0.041401444954721985
2019-05-24,0.04881138035035596
2019-05-27,0.6221680061540855
2019-05-28,0.7032057295961724
2019-05-29,0.8781262427797398
2019-05-30,0.8806972552991374
2019-05-31,1.0
2019-06-03,0.5804195804195899
2019-06-04,0.41549295774651357
2019-06-05,0.33600000000003116
2019-06-06,0.28682170542637825
2019-06-10,0.023809523809525165
2019-06-11,0.13698630136980533
2019-06-12,0.15151515151507788
2019-06-13,0.09722222222216417
2019-06-14,0.26315789473678486
2019-06-17,0.4081632653061434
2019-06-18,0.26000000000003826
2019-06-19,0.3611111111111953
2019-06-20,0.6111111111111398
2019-06-21,0.5
2019-06-24,0.7560975609755687
2019-06-25,0.8611111111110851
2019-06-26,0.9361702127659349
2019-06-27,0.6730769230768276
2019-06-28,0.7424242424241846
2019-07-01,0.749999999999961
2019-07-02,0.8955223880596813
2019-07-03,0.8770491803278817
2019-07-04,0.9553571428572161
2019-07-05,0.6769230769231146
2019-07-08,0.5847457627119468
2019-07-09,0.0
2019-07-10,0.09448818897637798
2019-07-11,0.2838709677419457
2019-07-12,0.44776119402989395
2019-07-15,0.6011904761904837
2019-07-16,0.8859649122807042
2019-07-17,0.7007874015748167
2019-07-18,0.4523809523809675
2019-07-19,0.3474576271186359
2019-07-22,0.0
2019-07-23,0.3701657458563282
2019-07-24,0.46060606060602727
2019-07-25,0.5135135135134737
2019-07-26,0.47798742138363226
2019-07-29,0.684684684684689
2019-07-30,0.08256880733944463
2019-07-31,0.009900990098968533
2019-08-01,0.14851485148513618
2019-08-02,0.22988505747120197
2019-08-05,0.4758064516128752
2019-08-06,1.0
2019-08-07,0.8522727272727436
2019-08-08,0.6931818181818076
2019-08-09,0.6966292134831757
2019-08-12,0.21296296296302508
2019-08-13,0.04800000000004814
2019-08-14,0.24822695035466022
2019-08-15,0.5747144386050473
2019-08-16,0.5729847903041934
2019-08-19,0.7921121700655713
2019-08-20,1.0
2019-08-21,0.9488039119441694
2019-08-22,0.18859295488696637
2019-08-23,0.14585178363600262
2019-08-26,0.3367525246885468
2019-08-27,0.32561351736287947
2019-08-28,0.29411764705879373
2019-08-29,0.8819875776397491
2019-08-30,0.8895348837209311
2019-09-02,0.7777777777777894
2019-09-03,0.7385620915032657
2019-09-04,0.8627450980392082
2019-09-05,0.19867549668877155
2019-09-06,0.12582781456954187
2019-09-09,0.11728395061728825
2019-09-10,0.12101910828026216
2019-09-11,0.0
2019-09-12,0.22077922077916526
2019-09-16,0.5585585585585413
2019-09-17,0.8402777777777597
2019-09-18,0.8817204301075092
2019-09-19,1.0
2019-09-20,0.9248554913295142
2019-09-23,0.6149732620320949
2019-09-24,0.3758389261745246
2019-09-25,0.09090909090910279
2019-09-26,0.15032679738563343
2019-09-27,0.26874999999999166
2019-09-30,0.5735294117647058
2019-10-08,0.5777777777777947
2019-10-09,0.8039215686274875
2019-10-10,0.5900000000000071
2019-10-11,0.41935483870971696
2019-10-14,0.06896551724134899
2019-10-15,0.09756097560971312
2019-10-16,1.4287419046341074e-13
2019-10-17,2.6431725235737085e-13
2019-10-18,0.5000000000000944
2019-10-21,0.6956521739131647
2019-10-22,0.4571428571428742
2019-10-23,0.5365853658535857
2019-10-24,0.41509433962254344
2019-10-25,0.2586206896551381
2019-10-28,0.08450704225348203
2019-10-29,0.24242424242420213
2019-10-30,0.5798319327730823
2019-10-31,0.7518248175182263
2019-11-01,0.7629629629629558
2019-11-04,0.8110236220472383
2019-11-05,0.8762886597938145
2019-11-06,0.5336538461538652
2019-11-07,0.3850000000000148
2019-11-08,0.4052631578947688
2019-11-11,0.5217391304348044
2019-11-12,0.15577889447237678
2019-11-13,0.2460317460318048
2019-11-14,0.4297520661157635
2019-11-15,0.46923076923078194
2019-11-18,0.42669870313582087
2019-11-19,0.7416640407600165
2019-11-20,0.7627301038626257
2019-11-21,0.5051414865656738
2019-11-22,0.36602932455360054
2019-11-25,0.06614819444024568
2019-11-26,0.22673361912271883
2019-11-27,0.1561978136813425
2019-11-28,0.17108870892321001
2019-11-29,0.29999999999995375
2019-12-02,0.5333333333333725
2019-12-03,0.2127659574468803
2019-12-04,0.268292682926757
2019-12-05,0.5348837209303399
2019-12-06,0.5454545454546272
2019-12-09,0.4210526315789059
2019-12-10,0.6599999999998755
2019-12-11,0.7384615384615192
2019-12-12,0.5806451612903473
2019-12-13,0.34722222222225896
2019-12-16,0.4310344827586464
2019-12-17,0.5147058823530166
2019-12-18,0.31147540983606853
2019-12-19,0.3773584905659314
2019-12-20,0.844155844155728
2019-12-23,0.8846153846153285
2019-12-24,0.5952380952380577
2019-12-25,0.5747126436781435
2019-12-26,0.6696428571428648
2019-12-27,0.2857142857143001
2019-12-30,0.3055555555555842
2019-12-31,0.37931034482760834
2020-01-02,0.5116279069767578
2020-01-03,0.260869565217408
2020-01-06,0.7346938775509697
2020-01-07,0.6170212765956751
2020-01-08,0.7543859649122107
2020-01-09,0.8640776699028717
2020-01-10,0.958333333333337
2020-01-13,0.7348484848485354
2020-01-14,0.7132352941176833
2020-01-15,0.6904761904762309
2020-01-16,0.24390243902444933
2020-01-17,0.03773584905660547
2020-01-20,0.29411764705882343
2020-01-21,0.5298507462686579
2020-01-22,0.580000000000003
2020-01-23,0.9391891891891891
2020-02-03,1.0
2020-02-04,0.9466019417475499
2020-02-05,0.9337349397590106
2020-02-06,0.8385093167701556
2020-02-07,0.5496688741721513
2020-02-10,0.006250000000015127
2020-02-11,0.20855614973261896
2020-02-12,0.1899999999999856
2020-02-13,0.20540540540539035
2020-02-14,0.4670050761421159
2020-02-17,0.8958513607594519
2020-02-18,0.7353591569933641
2020-02-19,0.7049888753028172
2020-02-20,0.7310230939334691
2020-02-21,0.3180513003420727
2020-02-24,0.08215388485502592
2020-02-25,0.08131055953586076
2020-02-26,0.29900022471926574
2020-02-27,0.23419867945179318
2020-02-28,0.41284403669728326
2020-03-02,0.8099173553718763
2020-03-03,0.9499999999999957
2020-03-04,0.7745098039215371
2020-03-05,0.7247706422018041
2020-03-06,0.6272727272726556
2020-03-09,0.228571428571478
2020-03-10,0.5679999999999245
2020-03-11,0.7565789473683916
2020-03-12,0.8628571428571242
2020-03-13,0.9480000000000117
2020-03-16,1.0
2020-03-17,0.8000000000000231
2020-03-18,0.7863247863248016
2020-03-19,0.7767857142857311
2020-03-20,0.4190476190476353
2020-03-23,0.2400000000000008
2020-03-24,0.3033707865168395
2020-03-25,0.18954248366012266
2020-03-26,0.01714285714284547
2020-03-27,0.1071428571428744
2020-03-30,0.35443037974683944
2020-03-31,0.4893617021277131
2020-04-01,0.25903614457834245
2020-04-02,0.44852941176469785
2020-04-03,0.5033112582781203
2020-04-07,0.7047244094488083
2020-04-08,0.6764705882352849
2020-04-09,0.9896373056994933
2020-04-10,0.9896373056994933
2020-04-13,0.8835978835978888
2020-04-14,0.22325581395348032
2020-04-15,0.1867704280155557
2020-04-16,0.06818181818180061
2020-04-17,0.0
2020-04-20,0.02811244979919105
2020-04-21,0.06140350877192109
2020-04-22,0.17105263157889708
2020-04-23,0.8522727272727538
2020-04-24,0.9450549450549781
2020-04-27,0.7534246575342743
2020-04-28,0.7934272300469524
2020-04-29,0.7581395348837436
2020-04-30,0.15853658536587623
2020-05-06,0.07999999999996422
2020-05-07,0.4303030303029987
2020-05-08,0.5765765765765575
2020-05-11,0.6939501779359204
2020-05-12,0.9069767441860606
2020-05-13,0.8385650224215355
2020-05-14,0.7916264572163049
2020-05-15,0.6257705781018621
2020-05-18,0.11177640424679701
2020-05-19,0.5282454973997998
2020-05-20,0.5575971043514855
2020-05-21,0.3387213290779652
2020-05-22,0.368104973731427
2020-05-25,0.4030191024876192
2020-05-26,0.38466457026214806
2020-05-27,0.36065573770487647
2020-05-28,0.6666666666666012
2020-05-29,0.5596330275228835
2020-06-01,0.6929824561403013
2020-06-02,0.23529411764703992
2020-06-03,0.4438202247191031
2020-06-04,0.3588235294117639
2020-06-05,0.41401273885349726
2020-06-08,0.3783783783783878
2020-06-09,0.7000000000000522
2020-06-10,0.17105263157895137
2020-06-11,0.3116883116883312
2020-06-12,0.17391304347827674
2020-06-15,0.07971014492754404
2020-06-16,0.08270676691729528
2020-06-17,0.10091743119266751
2020-06-18,0.03921568627447034
2020-06-19,0.2432432432431833
2020-06-22,0.3103448275861092
2020-06-23,0.630952380952371
2020-06-24,0.7866666666666216
2020-06-29,0.5612244897958987
2020-06-30,0.532608695652176
2020-07-01,0.5444444444444579
2020-07-02,0.12962962962960373
2020-07-03,0.0784313725490367
2020-07-06,0.6528497409326258
2020-07-07,0.7136752136752045
2020-07-08,0.8172413793103339
2020-07-09,1.0
2020-07-10,1.0
2020-07-13,0.6677740863787687
2020-07-14,0.4676923076923378
2020-07-15,0.3153846153846536
2020-07-16,0.05769230769233201
2020-07-17,0.08411214953268865
2020-07-20,0.12587412587409136
2020-07-21,0.3953488372091703
2020-07-22,0.5727272727272009
2020-07-23,0.4846153846153586
2020-07-24,0.4885496183206143
2020-07-27,0.621359223300969
2020-07-28,0.5161290322581722
2020-07-29,0.15833333333337193
2020-07-30,0.19791666666669988
2020-07-31,0.0
2020-08-03,0.2934131736526985
2020-08-04,0.3743016759776084
2020-08-05,0.5624999999999453
2020-08-06,0.6769230769230531
2020-08-07,1.0
2020-08-10,0.8805970149254101
2020-08-11,0.7192982456141375
2020-08-12,0.7460317460318194
2020-08-13,0.6666666666667208
2020-08-14,0.24489795918358148
2020-08-17,0.14634146341456072
2020-08-18,0.148148148148059
2020-08-19,0.01183846641287904
2020-08-20,0.20480218833898056
2020-08-21,0.23986662869617378
2020-08-24,0.46738774856789383
2020-08-25,0.5652556779025567
2020-08-26,0.8422410980035329
2020-08-27,0.22008092661894138
2020-08-28,0.24243202909600395
2020-08-31,0.39118866455931034
2020-09-01,0.2678571428570891
2020-09-02,0.14473684210521728
2020-09-03,0.49999999999998385
2020-09-04,0.5063291139240439
2020-09-07,0.3625000000000219
2020-09-08,0.5432098765432294
2020-09-09,0.7868852459016711
2020-09-10,0.3333333333333333
2020-09-11,0.5432098765431601
2020-09-14,0.65753424657527
2020-09-15,0.698795180722843
2020-09-16,0.5999999999999309
2020-09-17,0.8181818181818721
2020-09-18,0.6304347826088033
2020-09-21,0.7571428571429697
2020-09-22,0.41791044776131536
2020-09-23,0.5172413793104417
2020-09-24,0.6029411764706082
2020-09-25,0.5
2020-09-28,0.15476190476179694
2020-09-29,0.19999999999985613
2020-09-30,0.4583333333333097
2020-10-09,0.300000000000026
2020-10-12,0.4727272727272887
2020-10-13,0.5360824742268208
2020-10-14,0.49523809523813683
2020-10-15,0.19791666666666868
2020-10-16,0.35802469135796877
2020-10-19,0.25714285714279456
2020-10-20,0.5333333333333033
2020-10-21,0.5970149253730371
2020-10-22,0.5970149253730597
2020-10-23,0.49180327868849033
2020-10-26,0.2894736842105128
2020-10-27,0.0
2020-10-28,0.3414634146342019
2020-10-29,0.6000000000000898
2020-10-30,0.6533333333333805
2020-11-02,0.9545454545454951
2020-11-03,0.759036144578273
2020-11-04,0.47945205479443453
2020-11-05,0.24657534246564117
2020-11-06,0.18181818181814485
2020-11-09,0.0
2020-11-10,0.48695652173917703
2020-11-11,0.49122807017550363
2020-11-12,0.5436893203883536
2020-11-13,0.6879999999999904
2020-11-16,0.7610619469025725
2020-11-17,0.28571428571428226
2020-11-18,0.49565217391302596
2020-11-19,0.5809620613084788
2020-11-20,0.44326908207977117
2020-11-23,0.39748979218493036
2020-11-24,0.7319835877649954
2020-11-25,0.5074188741296152
2020-11-26,0.05397519033411789
2020-11-27,0.03377689196282852
2020-11-30,0.6557061241226095
2020-12-01,0.6614108636832711
2020-12-02,0.49333333333330753
2020-12-03,0.48051948051947185
2020-12-04,0.4868421052631741
2020-12-07,0.025316455696236185
2020-12-08,0.049382716049295394
2020-12-09,0.079365079365029
2020-12-10,0.07352941176466822
2020-12-11,0.3333333333333219
2020-12-14,0.6250000000000404
2020-12-15,0.4117647058824515
2020-12-16,0.3508771929824825
2020-12-17,0.6153846153845663
2020-12-18,0.3225806451612055
2020-12-21,0.3278688524589377
2020-12-22,0.6438356164383017
2020-12-23,0.5949367088607653
2020-12-24,0.4426229508197591
2020-12-25,0.6909090909092663
2020-12-28,0.7413793103450055
2020-12-29,0.29629629629644905
2020-12-30,0.6428571428572328
2020-12-31,0.7850467289719912
2021-01-04,0.7019230769230571
2021-01-05,0.7519999999999769
2021-01-06,0.9316239316238836
2021-01-07,0.7547169811320208
2021-01-08,0.4408602150536999
2021-01-11,0.511111111111083
2021-01-12,0.26666666666666444
2021-01-13,0.07575757575760161
2021-01-14,0.4266666666667032
2021-01-15,0.7301587301588054
2021-01-18,0.518987341772246
2021-01-19,0.48809523809525285
2021-01-20,0.4880952380952828
2021-01-21,0.1891891891892092
2021-01-22,0.0
2021-01-25,0.2833333333332625
2021-01-26,0.5645161290322712
2021-01-27,0.6315789473684018
2021-01-28,0.9245283018868281
2021-01-29,1.0
2021-02-01,0.695652173913022
2021-02-02,0.43478260869561325
2021-02-03,0.5894736842104721
2021-02-04,0.5411764705881483
2021-02-05,0.2884615384614786
2021-02-08,0.47524752475243714
2021-02-09,0.6111111111110712
2021-02-10,0.37427804918048324
2021-02-18,0.298928990610325
2021-02-19,0.4132321198336606
2021-02-22,0.1447943293268339
2021-02-23,0.21273009462459253
2021-02-24,0.17794374258391937
2021-02-25,0.1642400659691502
2021-02-26,0.4393896364907245
2021-03-01,0.5418919334816807
2021-03-02,0.41176470588228675
2021-03-03,0.6499999999999273
2021-03-04,0.8125000000001059
2021-03-05,0.828571428571533
2021-03-08,0.8260869565218742
2021-03-09,0.986842105263313
2021-03-10,0.984615384615566
2021-03-11,1.0
2021-03-12,0.45794392523367256
2021-03-15,0.33620689655172725
2021-03-16,0.16935483870965298
2021-03-17,0.10273972602737741
2021-03-18,0.0
2021-03-19,0.1923076923076637
2021-03-22,0.19801980198016517
2021-03-23,0.37499999999990097
2021-03-24,0.5846153846153133
2021-03-25,0.6031746031746233
2021-03-26,0.2432432432432875
2021-03-29,0.2903225806451961
2021-03-30,0.34328358208961435
2021-03-31,0.3015873015872626
2021-04-01,0.38596491228068586
2021-04-02,0.9047619047618053
2021-04-06,1.0
2021-04-07,0.45652173913047256
2021-04-08,0.4166666666666934
2021-04-09,0.3695652173912434
2021-04-12,0.30952380952368375
2021-04-13,0.4528301886791506
2021-04-14,0.5714285714284575
2021-04-15,0.6153846153844987
2021-04-16,0.6956521739130386
2021-04-19,0.5128205128206602
2021-04-20,0.1951219512195564
2021-04-21,0.5128205128205926
2021-04-22,0.48780487804892325
2021-04-23,0.30769230769247086
2021-04-26,0.2352941176471067
2021-04-27,0.5370370370370354
2021-04-28,0.333333333333249
2021-04-29,0.5223880597014045
2021-04-30,0.7523809523808508
2021-05-06,0.9032258064515752
2021-05-07,0.8953488372092762
2021-05-10,1.0
2021-05-11,1.0
2021-05-12,0.3285714285716582
2021-05-13,0.4268292682928207
2021-05-14,0.2906976744187036
2021-05-17,0.38383838383838703
2021-05-18,0.3308495579947435
2021-05-19,0.7048471419733061
2021-05-20,0.6872154580842843
2021-05-21,0.8500626551875645
2021-05-24,0.8058234197342488
2021-05-25,0.9898817150417554
2021-05-26,0.6777966134311607
2021-05-27,0.37614037184578236
2021-05-28,0.049540676212314234
2021-05-31,0.0843373493974877
2021-06-01,0.0731707317072391
2021-06-02,0.1714285714285421
2021-06-03,0.2448979591836586
2021-06-04,0.8906250000000767
2021-06-07,0.6279069767442729
2021-06-08,0.5666666666667467
2021-06-09,0.4736842105263856
2021-06-10,0.5000000000000142
2021-06-11,0.0
2021-06-15,0.17307692307687533
2021-06-16,0.19148936170207045
2021-06-17,0.2894736842103819
2021-06-18,0.6913580246913237
2021-06-21,0.8358208955224019
2021-06-22,0.6811594202899108
2021-06-23,0.7058823529412542
2021-06-24,0.6666666666667411
2021-06-25,0.01470588235298401
2021-06-28,0.06451612903235716
2021-06-29,0.26562500000005335
2021-06-30,0.3472222222221909
2021-07-01,0.44303797468347145
2021-07-02,1.0
2021-07-05,0.7173913043476281
2021-07-06,0.5128205128202561
2021-07-07,0.7466666666665887
2021-07-08,0.7076923076922844
2021-07-09,0.773809523809503
2021-07-12,0.9464285714285857
2021-07-13,0.9380530973451453
2021-07-14,0.6354166666667149
2021-07-15,0.6728971962616996
2021-07-16,0.5306122448979935
2021-07-19,0.10576923076924262
2021-07-20,0.18095238095239405
2021-07-21,0.2209302325581723
2021-07-22,0.07272727272727829
2021-07-23,0.07843137254902408
2021-07-26,0.21666666666659762
2021-07-27,0.6115702479338762
2021-07-28,0.6115702479338242
2021-07-29,0.8787878787878183
2021-07-30,0.9318181818181425
2021-08-02,0.945121951219482
2021-08-03,0.5695364238410422
2021-08-04,0.5850340136054485
2021-08-05,0.5933333333333
2021-08-06,0.33544303797463026
2021-08-09,0.28082191780817733
2021-08-10,0.47872340425529797
2021-08-11,0.5510204081632316
2021-08-12,0.4086021505376758
2021-08-13,0.8405797101449979
2021-08-16,0.37500000000005096
2021-08-17,0.34191598559240893
2021-08-18,0.5808216054344649
2021-08-19,0.6507539588175716
2021-08-20,0.5661100286265728
2021-08-23,0.7646584196441533
2021-08-24,0.7538498995677799
2021-08-25,0.06621259671655684
2021-08-26,0.06474957830550432
2021-08-27,0.0572408483036446
2021-08-30,0.33333333333342147
2021-08-31,0.35433070866149297
2021-09-01,0.8584070796460767
2021-09-02,0.7338709677419647
2021-09-03,0.8571428571428357
2021-09-06,0.6874999999999182
2021-09-07,0.6842105263157299
2021-09-08,0.16883116883111488
2021-09-09,0.22950819672119133
2021-09-10,0.09615384615389819
2021-09-13,0.5696202531645698
2021-09-14,0.4526315789473745
2021-09-15,0.7954545454545652
2021-09-16,0.8085106382979105
2021-09-17,0.7628865979381462
2021-09-22,0.24817518248177844
2021-09-23,0.4097222222222292
2021-09-24,0.20512820512822544
2021-09-27,0.2249999999999846
2021-09-28,0.24203821656051977
2021-09-29,0.6548672566371733
2021-09-30,0.51578947368421
2021-10-08,0.8955223880596819
2021-10-11,0.8870967741935282
2021-10-12,0.8985507246376535
2021-10-13,0.702702702702796
2021-10-14,0.500000000000025
2021-10-15,0.6338028169015207
2021-10-18,0.38613861386143417
2021-10-19,0.4464285714286517
2021-10-20,0.45454545454546935
2021-10-21,0.608247422680381
2021-10-22,0.26126126126124044
2021-10-25,0.5257731958762663
2021-10-26,0.3369565217391051
2021-10-27,0.2980769230769217
2021-10-28,0.32407407407407524
2021-10-29,0.6329113924050607
2021-11-01,0.49122807017538717
2021-11-02,0.7846153846153331
2021-11-03,0.9999999999999583
2021-11-04,0.6400000000000245
2021-11-05,0.452054794520562
2021-11-08,0.459459459459495
2021-11-09,0.17187500000006398
2021-11-10,0.14516129032258837
2021-11-11,0.46938775510206776
2021-11-12,0.7400000000000563
2021-11-15,0.8115942028985825
2021-11-16,1.0
2021-11-17,0.6578947368420884
2021-11-18,0.588080686733423
2021-11-19,0.7274114392132985
2021-11-22,0.43585846066679146
2021-11-23,0.35574018752533026
2021-11-24,0.6022834138357385
2021-11-25,0.5283203286978118
2021-11-26,0.2479536184218343
2021-11-29,0.33169198065520106
2021-11-30,0.44127757551909114
2021-12-01,0.10483870967745598
2021-12-02,0.30000000000000787
2021-12-03,0.5121951219512242
2021-12-06,0.46987951807229256
2021-12-07,0.5599999999999877
2021-12-08,0.940298507462695
2021-12-09,0.9166666666666887
2021-12-10,0.6507936507936327
2021-12-13,0.8085106382978319
2021-12-14,0.4999999999999611
2021-12-15,0.4948453608247543
2021-12-16,0.3980582524271789
2021-12-17,0.6302521008403379
2021-12-20,0.4494382022472081
2021-12-21,0.6060606060605838
2021-12-22,0.643835616438254
2021-12-23,0.7343749999998652
2021-12-24,0.22807017543844402
2021-12-27,0.2280701754384849
2021-12-28,0.2549019607842037
2021-12-29,0.0
2021-12-30,0.35416666666669383
2021-12-31,0.4594594594595249
2022-01-04,0.4358974358974435
2022-01-05,0.48148148148152237
2022-01-06,0.7407407407407267
2022-01-07,0.0937500000000585
2022-01-10,0.09677419354846006
2022-01-11,0.18965517241386828
2022-01-12,0.11320754716980702
2022-01-13,0.09615384615382555
2022-01-14,0.7857142857142461
2022-01-17,0.9999999999997778
2022-01-18,0.9999999999997778
2022-01-19,0.9583333333333149
2022-01-20,0.9591836734694722
2022-01-21,0.9555555555556458
2022-01-24,0.25806451612911796
2022-01-25,0.06382978723412513
2022-01-26,0.3333333333333472
2022-01-27,0.4545454545454696
2022-01-28,0.6216216216216432
2022-02-07,0.8359375000000342
2022-02-08,1.0
2022-02-09,0.7839999999999907
2022-02-10,0.6747967479674547
2022-02-11,0.4311926605503925
2022-02-14,0.08411214953268657
2022-02-15,0.0
2022-02-16,0.19359703806480247
2022-02-17,0.21438788156601649
2022-02-18,0.3194082676043004
2022-02-21,0.8244850824882007
2022-02-22,0.96578657762086
2022-02-23,0.7373120216602456
2022-02-24,0.8050007809891977
2022-02-25,0.7481372730780123
2022-02-28,0.2076127354133984
2022-03-01,0.3333333333333518
2022-03-02,0.38333333333336383
2022-03-03,0.412698412698431
2022-03-04,0.4560000000000358
2022-03-07,0.9904761904762225
2022-03-08,0.6818181818181607
2022-03-09,0.7588652482269154
2022-03-10,0.6176470588235173
2022-03-11,0.7699115044247513
2022-03-14,0.5962441314553758
2022-03-15,0.8015267175572623
2022-03-16,0.8243243243243268
2022-03-17,0.8243243243243127
2022-03-18,0.4999999999999957
2022-03-21,0.5379061371841088
2022-03-22,0.24444444444442265
2022-03-23,0.0
2022-03-24,0.09634551495016884
2022-03-25,0.1306306306306349
2022-03-28,0.15492957746481179
2022-03-29,0.22147651006713368
2022-03-30,0.5774647887323937
2022-03-31,0.260869565217478
2022-04-01,0.5294117647058559
2022-04-06,0.49999999999980127
2022-04-07,0.9000000000000445
2022-04-08,0.6666666666667073
2022-04-11,0.6511627906976416
2022-04-12,0.8770491803278935
2022-04-13,0.8076923076923369
2022-04-14,0.714285714285757
2022-04-15,0.7983193277310894
2022-04-18,0.8362068965517259
2022-04-19,0.10434782608686523
2022-04-20,0.11320754716971407
2022-04-21,0.10619469026539258
2022-04-22,0.01904761904758153
2022-04-25,0.0
2022-04-26,0.0
2022-04-27,0.03225806451610918
2022-04-28,0.04081632653059106
2022-04-29,0.039215686274482436
2022-05-05,0.28205128205125696
2022-05-06,0.8333333333332729
2022-05-09,0.8372093023255388
2022-05-10,0.911111111111012
2022-05-11,0.8723404255319438
2022-05-12,0.5925925925925506
2022-05-13,0.35294117647054896
2022-05-16,0.43589743589734714
2022-05-17,0.2999999999999809
2022-05-18,0.42415435959217457
2022-05-19,0.8516112304615641
2022-05-20,0.5131872359375468
2022-05-23,0.37921603606332177
2022-05-24,0.4727924837973388
2022-05-25,0.3530586240683188
2022-05-26,0.09151499684104404
2022-05-27,0.32007319344655893
2022-05-30,0.3186416543066928
2022-05-31,0.48148148148147646
2022-06-01,0.6046511627907524
2022-06-02,0.7906976744186592
2022-06-06,0.7804878048780878
2022-06-07,0.9821428571429159
2022-06-08,0.6981132075471614
2022-06-09,0.7761194029850255
2022-06-10,0.6376811594203223
2022-06-13,0.47500000000003395
2022-06-14,0.2054794520547694
2022-06-15,0.3676470588235634
2022-06-16,0.1282051282051823
2022-06-17,0.126582278481039
2022-06-20,0.2676056338028064
2022-06-21,0.3275862068965864
2022-06-22,0.15789473684209124
2022-06-23,0.5964912280701256
2022-06-24,0.8181818181818634
2022-06-27,0.8441558441558786
2022-06-28,0.9142857142856963
2022-06-29,1.0
2022-06-30,1.0
2022-07-01,0.7857142857142965
2022-07-04,0.6865671641790886
2022-07-05,0.35714285714277977
2022-07-06,0.37209302325572774
2022-07-07,0.021739130434768147
2022-07-08,0.06896551724117421
2022-07-11,0.0769230769230392
2022-07-12,0.03999999999997552
2022-07-13,0.01785714285713228
2022-07-14,0.019607843137240212
2022-07-15,0.18032786885258484
2022-07-18,0.1447368421053091
2022-07-19,0.30000000000004545
2022-07-20,0.6164383561643827
2022-07-21,0.681818181818194
2022-07-22,0.49999999999998146
2022-07-25,0.6724137931034287
2022-07-26,0.7285714285713916
2022-07-27,0.33870967741925473
2022-07-28,0.4999999999998916
2022-07-29,0.6764705882352108
2022-08-01,0.5857142857141691
2022-08-02,0.42372881355927194
2022-08-03,0.7894736842105101
2022-08-04,0.7777777777777622
2022-08-05,0.6888888888887716
2022-08-08,0.8510638297871634
2022-08-09,0.954545454545332
2022-08-10,0.785714285714157
2022-08-11,0.4230769230769568
2022-08-12,0.6486486486487558
2022-08-15,0.8659793814433395
2022-08-16,0.8750000000000334
2022-08-17,0.7992510289917438
2022-08-18,0.7728300819903764
2022-08-19,0.7475758655896704
2022-08-22,0.10563478145786147
2022-08-23,0.01143828131570565
2022-08-24,0.012471603370315321
2022-08-25,0.1457589898436019
2022-08-26,0.11679722394010571
2022-08-29,0.2509905741639003
2022-08-30,0.534883720930238
2022-08-31,0.6052631578945816
2022-09-01,0.7058823529410138
2022-09-02,0.9999999999999227
2022-09-05,0.7647058823528958
2022-09-06,0.7368421052631038
2022-09-07,0.7674418604650983
2022-09-08,0.39215686274507
2022-09-09,0.23456790123448837
2022-09-13,0.27941176470579576
2022-09-14,0.2168674698794885
2022-09-15,0.1066666666666841
2022-09-16,0.5192307692308634
2022-09-19,0.21839080459773239
2022-09-20,0.2906976744185852
2022-09-21,0.35714285714282373
2022-09-22,0.3289473684210146
2022-09-23,0.09677419354830195
2022-09-26,0.7346938775510635
2022-09-27,0.7346938775511044
2022-09-28,0.7450980392157668
2022-09-29,0.9468085106383439
2022-09-30,1.0
2022-10-10,0.9000000000000278
2022-10-11,0.8953488372093321
2022-10-12,0.9482758620689816
2022-10-13,0.6867469879518292
2022-10-14,0.641379310344852
2022-10-17,0.5812499999999899
2022-10-18,0.5481927710843112
2022-10-19,0.006369426751582993
2022-10-20,0.11718749999996696
2022-10-21,0.09210526315787637
2022-10-24,0.31325301204822764
2022-10-25,0.4175824175824796
2022-10-26,0.7619047619047974
2022-10-27,0.5892857142857763
2022-10-28,0.7717391304348167
2022-10-31,0.39759036144579885
2022-11-01,0.13636363636356333
2022-11-02,0.21917808219177362
2022-11-03,0.33333333333331755
2022-11-04,0.4545454545454651
2022-11-07,0.6976744186045613
2022-11-08,0.842105263157748
2022-11-09,0.4468085106381929
2022-11-10,0.49019607843126417
2022-11-11,0.8129496402877282
2022-11-14,0.884393063583812
2022-11-15,0.8857142857142857
2022-11-16,1.0
2022-11-17,1.0
2022-11-18,0.7189636224784268
2022-11-21,0.624632912675248
2022-11-22,0.6102152645941313
2022-11-23,0.26453018470076173
2022-11-24,0.0
2022-11-25,0.12699202073203839
2022-11-28,0.3353579017106043
2022-11-29,0.4643351284879925
2022-11-30,0.6915357562698555
2022-12-01,1.0
2022-12-02,0.7099999999999715
2022-12-05,0.48989898989896313
2022-12-06,0.287292817679506
2022-12-07,0.37073170731704636
2022-12-08,0.20320855614973635
2022-12-09,0.2814814814814994
2022-12-12,0.44897959183678615
2022-12-13,0.6388888888889949
2022-12-14,0.13559322033910073
2022-12-15,0.153846153846287
2022-12-16,0.3559322033899613
2022-12-19,0.24193548387101196
2022-12-20,0.17567567567569992
2022-12-21,0.23214285714287716
2022-12-22,0.2166666666666564
2022-12-23,0.1754385964911358
2022-12-26,0.3666666666665711
2022-12-27,0.5636363636362102
2022-12-28,0.3406593406592283
2022-12-29,0.387499999999891
2022-12-30,0.23333333333324244
2023-01-03,0.1084337349396928
2023-01-04,0.0
2023-01-05,0.0
2023-01-06,0.09677419354842458
2023-01-09,0.21739130434786402
2023-01-10,0.23255813953486484
2023-01-11,0.8999999999996664
2023-01-12,0.9428571428570323
2023-01-13,0.9487179487178498
2023-01-16,0.9523809523808698
2023-01-17,0.6557377049180804
2023-01-18,0.4791666666667339
2023-01-19,0.5192307692308505
2023-01-20,0.4565217391305517
2023-01-30,0.642857142857158
2023-01-31,0.9436619718309492
2023-02-01,0.8481012658228301
2023-02-02,0.8356164383562034
2023-02-03,0.6551724137930518
2023-02-06,0.23008849557517563
2023-02-07,0.04347826086954416
2023-02-08,0.04395604395602001
2023-02-09,0.0
2023-02-10,0.07792207792207269
2023-02-13,0.46153846153837996
2023-02-14,0.2857142857142093
2023-02-15,0.4571428571428041
2023-02-16,0.7384615384615238
2023-02-17,0.6086956521739761
2023-02-20,0.7127659574468737
2023-02-21,0.8770892298342138
2023-02-22,0.8511054694991285
2023-02-23,0.39355579582911515
2023-02-24,0.5224740739780777
2023-02-27,0.18050311205170005
2023-02-28,0.20251825510191174
2023-03-01,0.2729712071447764
2023-03-02,0.5375668631669478
2023-03-03,0.503931276394283
2023-03-06,0.9729729729730434
2023-03-07,0.8285714285713234
2023-03-08,0.5263157894736189
2023-03-09,0.19512195121957263
2023-03-10,0.0
2023-03-13,0.20588235294118498
2023-03-14,0.1794871794872218
2023-03-15,0.2876712328768195
2023-03-16,0.4558823529412863
2023-03-17,0.736842105263206
2023-03-20,0.5490196078431124
2023-03-21,0.8048780487804051
2023-03-22,0.7428571428568392
2023-03-23,0.43243243243217544
2023-03-24,0.38235294117639756
2023-03-27,0.518518518518427
2023-03-28,0.25714285714287544
2023-03-29,0.23076923076930414
2023-03-30,0.6250000000000385
2023-03-31,0.47826086956526204
2023-04-03,0.5555555555555605
2023-04-04,0.7441860465116386
2023-04-06,0.8571428571429163
2023-04-07,0.8571428571429079
2023-04-10,0.8571428571428571
2023-04-11,0.5869565217392534
2023-04-12,0.5777777777779918
2023-04-13,0.5365853658536349
2023-04-14,0.018518518518614507
2023-04-17,0.01851851851861366
2023-04-18,0.18367346938776413
2023-04-19,0.14814814814809016
2023-04-20,0.13559322033897284
2023-04-21,0.5277777777778294
2023-04-24,0.5937500000001038
2023-04-25,0.24444444444444216
2023-04-26,0.5087719298245004
2023-04-27,0.6515151515150712
2023-04-28,0.39024390243898455
2023-05-04,0.3855421686746578
2023-05-05,0.6938775510204185
2023-05-08,0.6024096385542833
2023-05-09,0.43902439024391426
2023-05-10,0.7121212121211847
2023-05-11,0.8095238095237829
2023-05-12,0.41025641025639487
2023-05-15,0.4691358024690796
2023-05-16,0.5507246376812047
2023-05-17,0.5079365079365517
2023-05-18,0.21153846153848707
2023-05-19,0.6088243769417647
2023-05-22,0.42806007847429156
2023-05-23,0.6930966301085588
2023-05-24,0.4956397758237042
2023-05-25,0.5483370114629175
2023-05-26,0.605403386229939
2023-05-29,0.726516927789901
2023-05-30,0.4759716707689308
2023-05-31,0.6474498875887804
2023-06-01,0.7777777777778436
2023-06-02,0.8500000000000708
2023-06-05,0.6666666666667073
2023-06-06,0.7999999999999737
2023-06-07,0.7777777777777664
2023-06-08,0.6250000000000557
2023-06-09,0.13333333333331118
2023-06-12,0.2727272727272726
2023-06-13,0.4146341463415221
2023-06-14,0.5964912280701465
2023-06-15,0.8481012658227381
2023-06-16,1.0
2023-06-19,1.0
2023-06-20,0.7979797979797917
2023-06-21,0.6526315789474377
2023-06-26,0.2989690721650292
2023-06-27,0.13432835820899747
2023-06-28,0.0
2023-06-29,0.07299270072993581
2023-06-30,0.15555555555556774
2023-07-03,0.24038461538460426
2023-07-04,0.7596899224806207
2023-07-05,1.0
2023-07-06,0.8857142857142475
2023-07-07,0.7454545454545316
2023-07-10,0.7666666666666605
2023-07-11,0.14728682170541543
2023-07-12,0.11023622047244913
2023-07-13,0.11965811965813469
2023-07-14,0.3255813953488386
2023-07-17,0.28099173553720447
2023-07-18,0.8809523809525251
2023-07-19,0.9512195121951442
2023-07-20,1.0
2023-07-21,0.38095238095239214
2023-07-24,0.17543859649116902
2023-07-25,0.38157894736841697
2023-07-26,0.5052631578947783
2023-07-27,0.5154639175257941
2023-07-28,0.766666666666642
2023-07-31,1.0
2023-08-01,0.8169014084506654
2023-08-02,0.4624999999999319
2023-08-03,0.32967032967026455
2023-08-04,0.32222222222224506
2023-08-07,0.187500000000016
2023-08-08,0.187500000000016
2023-08-09,0.2647058823529454
2023-08-10,0.3529411764705939
2023-08-11,0.0
2023-08-14,0.08955223880603982
2023-08-15,0.37662337662342527
2023-08-16,0.43209876543218256
2023-08-17,0.5161290322581098
2023-08-18,1.0
2023-08-21,1.0
2023-08-22,0.8478215238837706
2023-08-23,0.8375865738234046
2023-08-24,0.6889054679278378
2023-08-25,0.7442131404570325
2023-08-28,0.427007983208919
2023-08-29,0.6970245957527353
2023-08-30,0.7817555415300145
2023-08-31,0.8768599814234654
2023-09-01,0.8524590163934382
2023-09-04,0.7027027027027989
2023-09-05,0.42857142857151515
2023-09-06,0.3015873015873132
2023-09-07,0.5113636363636641
2023-09-08,0.43373493975902344
2023-09-11,0.6623376623375776
2023-09-12,0.9344262295081114
2023-09-13,0.6438356164382554
2023-09-14,0.4468085106380889
2023-09-15,0.477272727272637
2023-09-18,0.13953488372084769
2023-09-19,0.0
2023-09-20,0.0
2023-09-21,0.0
2023-09-22,0.1590909090908682
2023-09-25,0.5400000000000875
2023-09-26,0.8076923076924515
2023-09-27,0.9200000000000825
2023-09-28,1.0
2023-10-09,0.5915492957746763
2023-10-10,0.24175824175826965
2023-10-11,0.08974358974361255
2023-10-12,0.20224719101126876
2023-10-13,0.14851485148513768
2023-10-16,0.21917808219170598
2023-10-17,0.630434782608642
2023-10-18,0.6041666666666158
2023-10-19,0.5957446808510539
2023-10-20,0.9411764705882398
2023-10-23,0.8400000000001038
2023-10-24,0.840000000000109
2023-10-25,0.9360000000000628
2023-10-26,0.7103448275862385
2023-10-27,0.46527777777778934
2023-10-30,0.48550724637676995
2023-10-31,0.41538461538455584
2023-11-01,0.0
2023-11-02,0.0
2023-11-03,0.0
2023-11-06,0.11538461538460426
2023-11-07,0.11111111111111095
2023-11-08,0.7083333333334874
2023-11-09,0.596491228070305
2023-11-10,0.6851851851852906
2023-11-13,0.560000000000175
2023-11-14,0.7407407407408315
2023-11-15,0.3124999999999808
2023-11-16,0.5199999999999784
2023-11-17,0.4599999999999921
2023-11-20,0.5416666666666433
2023-11-21,0.28571428571424284
2023-11-22,0.48434219858430294
2023-11-23,0.4677458012068262
2023-11-24,0.6674481906047934
2023-11-27,0.6676536186846668
2023-11-28,1.0
2023-11-29,1.0
2023-11-30,0.5373369267093733
2023-12-01,0.22807602719538286
2023-12-04,0.2448495909801823
2023-12-05,0.26086956521735893
2023-12-06,0.11475409836068479
2023-12-07,0.4776119402985502
2023-12-08,0.5423728813558857
2023-12-11,0.4307692307691505
2023-12-12,0.3246753246752688
2023-12-13,0.5999999999998895
2023-12-14,0.3833333333332637
2023-12-15,0.6153846153846202
2023-12-18,0.7468354430380281
2023-12-19,0.9315068493151171
2023-12-20,0.6428571428572077
2023-12-21,0.7590361445783225
2023-12-22,0.5507246376811897
2023-12-25,0.5921052631578395
2023-12-26,0.586666666666608
2023-12-27,0.8472222222222173
2023-12-28,0.8253968253968079
2023-12-29,1.0
2024-01-02,0.8181818181818136
2024-01-03,0.7894736842104962
2024-01-04,0.29545454545448724
2024-01-05,0.06666666666666107
2024-01-08,0.02985074626860106
2024-01-09,0.026666666666619633
2024-01-10,0.0
2024-01-11,0.2857142857142895
2024-01-12,0.3714285714285604
2024-01-15,0.602272727272701
2024-01-16,0.670886075949287
2024-01-17,0.8450704225351202
2024-01-18,0.629629629629547
2024-01-19,0.5483870967741884
2024-01-22,0.30000000000010424
2024-01-23,0.5000000000000876
2024-01-24,0.36842105263164704
2024-01-25,0.6938775510204901
2024-01-26,0.8717948717948781
2024-01-29,0.6170212765957537
2024-01-30,0.5909090909090858
2024-01-31,0.7222222222221943
2024-02-01,0.3166666666665615
2024-02-02,0.2968749999998909
2024-02-05,0.3962264150941892
2024-02-06,0.5789473684209914
2024-02-07,0.5844155844155396
2024-02-08,0.9285714285713973
2024-02-19,1.0
2024-02-20,0.9553571428571441
2024-02-21,0.7220027810445951
2024-02-22,0.5814798213752022
2024-02-23,0.3097077241742043
2024-02-26,0.0
2024-02-27,0.04951330500558975
2024-02-28,0.14922451801152048
2024-02-29,0.17916686370887253
2024-03-01,0.7594923908871152
2024-03-04,0.9076479655916554
2024-03-05,0.7857142857143381
2024-03-06,0.7692307692308475
2024-03-07,0.9217391304348025
2024-03-08,0.5631067961164867
2024-03-11,0.612068965517221
2024-03-12,0.6923076923076373
2024-03-13,0.7534246575341912
2024-03-14,0.38571428571423283
2024-03-15,0.514285714285713
2024-03-18,0.45744680851060004
2024-03-19,0.4137931034482691
2024-03-20,0.06542056074763156
2024-03-21,0.2063492063492215
2024-03-22,0.41666666666665686
2024-03-25,0.34065934065936604
2024-03-26,0.2592592592592913
2024-03-27,0.6352941176470932
2024-03-28,0.5333333333333422
2024-03-29,0.3561643835616295
2024-04-01,0.3661971830985246
2024-04-02,0.4814814814813735
2024-04-03,0.0
2024-04-08,0.13636363636363869
2024-04-09,0.08450704225352632
2024-04-10,0.08333333333335309
2024-04-11,0.11267605633807393
2024-04-12,0.31147540983611094
2024-04-15,0.3114754098361112
2024-04-16,0.4634146341464104
2024-04-17,0.593750000000048
2024-04-18,0.7346938775510367
2024-04-19,0.42372881355937636
2024-04-22,0.253333333333349
2024-04-23,0.45000000000005674
2024-04-24,0.5274725274725869
2024-04-25,0.3295454545455209
2024-04-26,0.7099236641221144
2024-04-29,0.8961038961038891
2024-04-30,0.8896551724137836
2024-05-06,0.8904109589040888
2024-05-07,1.0
2024-05-08,0.569105691056905
2024-05-09,0.24509803921560824
2024-05-10,0.16666666666656646
2024-05-13,0.03738317757006911
2024-05-14,0.0
2024-05-15,0.05172413793095201
2024-05-16,0.0731707317071973
2024-05-17,0.0833333333332026
2024-05-20,0.2520048096264941
2024-05-21,0.2804774015361899
2024-05-22,0.06419008697493914
2024-05-23,0.04280866666725524
2024-05-24,0.038797402132995346
2024-05-27,0.0
2024-05-28,0.07831786007815414
2024-05-29,0.2636530553405951
2024-05-30,0.6048223743767343
2024-05-31,0.7317073170732159
2024-06-03,1.0
2024-06-04,0.8205128205126753
2024-06-05,0.6470588235293354
2024-06-06,0.27586206896549076
2024-06-07,0.18421052631572798
2024-06-11,0.0
2024-06-12,0.0
2024-06-13,0.0
2024-06-14,0.0
2024-06-17,0.3478260869564012
2024-06-18,0.4705882352940074
2024-06-19,0.8333333333332925
2024-06-20,0.9666666666667075
2024-06-21,1.0
2024-06-24,1.0
2024-06-25,0.8367346938775468
2024-06-26,0.5106382978723015
2024-06-27,0.6567164179103728
2024-06-28,0.6666666666665955
2024-07-01,0.8270676691728769
2024-07-02,0.9085365853658175
2024-07-03,1.0
2024-07-04,0.8823529411764603
2024-07-05,0.8816568047337164
2024-07-08,0.4375000000000009
2024-07-09,0.19496855345913625
2024-07-10,0.03821656050955326
2024-07-11,0.04054054054054022
2024-07-12,0.0
2024-07-15,0.0
2024-07-16,0.23863636363631144
2024-07-17,0.34328358208948173
2024-07-18,0.5074626865671018
2024-07-19,0.6666666666666532
2024-07-22,1.0
2024-07-23,0.7647058823529979
2024-07-24,0.7400000000000353
2024-07-25,0.7547169811320712
2024-07-26,0.6666666666665384
2024-07-29,0.24561403508763702
2024-07-30,0.4259259259258568
2024-07-31,0.545454545454488
2024-08-01,0.5384615384615384
2024-08-02,0.717391304347884
2024-08-05,1.0
2024-08-06,1.0
2024-08-07,0.9142857142857883
2024-08-08,0.9158878504673591
2024-08-09,0.6700000000000139
2024-08-12,0.6373626373626708
2024-08-13,0.4705882352941603
2024-08-14,0.6931818181817941
2024-08-15,0.5476190476190487
2024-08-16,0.7666666666667041
2024-08-19,0.4395048676964847
2024-08-20,0.27891011870083116
2024-08-21,0.05092118071674822
2024-08-22,0.04421246993042588
2024-08-23,0.13038040217075822
2024-08-26,0.14812419354832893
2024-08-27,0.5753319206700932
2024-08-28,0.5002005096097587
2024-08-29,0.7164691589325067
2024-08-30,0.7594936708860267
2024-09-02,0.8823529411764326
2024-09-03,0.49090909090911594
2024-09-04,0.39705882352948446
2024-09-05,0.4057971014493665
2024-09-06,0.09589041095891826
2024-09-09,0.08433734939760734
2024-09-10,0.18840579710148675
2024-09-11,0.30000000000005883
2024-09-12,0.13559322033902682
2024-09-13,0.20000000000011045
2024-09-18,0.45000000000013507
2024-09-19,0.5849056603774354
2024-09-20,0.639344262295082
2024-09-23,0.8823529411765498
2024-09-24,1.0
2024-09-25,1.0
2024-09-26,1.0
2024-09-27,1.0
2024-09-30,1.0
2024-10-08,1.0
2024-10-09,0.987447698744787
2024-10-10,0.9044585987261275
2024-10-11,0.452954048140063
2024-10-14,0.12276785714287039
2024-10-15,0.0
2024-10-16,0.0
2024-10-17,0.0
2024-10-18,0.061919504643969996
2024-10-21,0.10752688172044082
2024-10-22,0.24096385542170307
2024-10-23,0.630769230769225
2024-10-24,0.677419354838655
2024-10-25,0.24999999999995126
2024-10-28,0.24175824175819619
2024-10-29,0.2619047619047159
2024-10-30,0.010309278350488444
2024-10-31,0.0
2024-11-01,0.11764705882351244
2024-11-04,0.12195121951218778
2024-11-05,0.2441860465117073
2024-11-06,0.5303030303031372
2024-11-07,0.7446808510638964
2024-11-08,0.6097560975610924
2024-11-11,0.7435897435896988
2024-11-12,0.6551724137928763
2024-11-13,0.13888888888854817
2024-11-14,0.1351351351348305
2024-11-15,0.11904761904734086
2024-11-18,0.051282051281922696
2024-11-19,0.024390243902491882
2024-11-20,0.2083333333334747
2024-11-21,0.6999999999999875
2024-11-22,0.9166059084298311
2024-11-25,0.9507625750450934
2024-11-26,0.7940356757207853
2024-11-27,0.8400017523362162
2024-11-28,0.6820458339657345
2024-11-29,0.7419111919222764
2024-12-02,0.6701654410894337
2024-12-03,0.8548121028281909
2024-12-04,0.6553446063316445
2024-12-05,0.6896551724137548
2024-12-06,0.301886792452737
2024-12-09,0.17142857142851653
2024-12-10,0.37634408602153074
2024-12-11,0.41666666666671526
2024-12-12,0.5393258426966607
2024-12-13,0.7027027027027575
2024-12-16,0.9852941176471034
2024-12-17,0.47761194029851917
2024-12-18,0.7777777777777708
2024-12-19,0.7777777777777671
2024-12-20,0.780645161290307
2024-12-23,0.786163522012574
2024-12-24,1.0
2024-12-25,0.4452554744525522
2024-12-26,0.4285714285714364
2024-12-27,0.4328358208955277
2024-12-30,0.30232558139533033
2024-12-31,0.12213740458013342
