date,FCT_Demark_Atr_Dfive
2019-09-26,
2019-09-27,
2019-09-30,
2019-10-08,
2019-10-09,
2019-10-10,
2019-10-11,
2019-10-14,
2019-10-15,
2019-10-16,0.6395374261078325
2019-10-17,0.6206896551724082
2019-10-18,0.8455598455598419
2019-10-21,0.859154929577461
2019-10-22,0.5877862595419833
2019-10-23,0.17228464419475775
2019-10-24,0.34892086330935806
2019-10-25,0.2629757785467154
2019-10-28,0.17465753424657998
2019-10-29,0.21428571428571966
2019-10-30,0.41269841269841967
2019-10-31,0.00552486187845289
2019-11-01,0.17777777777778042
2019-11-04,0.1860465116279089
2019-11-05,0.18079096045197912
2019-11-06,0.14622641509434162
2019-11-07,0.5738636363636372
2019-11-08,0.7148288973384016
2019-11-11,0.8259493670886074
2019-11-12,0.8827361563517926
2019-11-13,1.0
2019-11-14,1.0
2019-11-15,0.5256797583081588
2019-11-18,0.31761006289308347
2019-11-19,0.3617647058823534
2019-11-20,0.10759493670885951
2019-11-21,0.09302325581395202
2019-11-22,0.24019607843137036
2019-11-25,0.40993788819875115
2019-11-26,0.32142857142856734
2019-11-27,0.7540983606557341
2019-11-28,1.0
2019-11-29,1.0
2019-12-02,1.0
2019-12-03,1.0
2019-12-04,0.9857142857142984
2019-12-05,0.9897959183673557
2019-12-06,0.7250000000000089
2019-12-09,0.8156424581005632
2019-12-10,0.6956521739130441
2019-12-11,0.7977941176470573
2019-12-12,0.7269076305220867
2019-12-13,0.8723404255319124
2019-12-16,0.4597014925373116
2019-12-17,0.49681528662420243
2019-12-18,0.2350877192982455
2019-12-19,0.23508771929824557
2019-12-20,0.007272727272727319
2019-12-23,0.1898734177215208
2019-12-24,0.12962962962963104
2019-12-25,0.11336032388664072
2019-12-26,0.10108303249097587
2019-12-27,0.12334801762114662
2019-12-30,0.0
2019-12-31,0.34563758389261867
2020-01-02,0.5593220338983077
2020-01-03,0.7122641509433981
2020-01-06,0.7606837606837628
2020-01-07,1.0
2020-01-08,0.8397435897435879
2020-01-09,0.8538011695906409
2020-01-10,0.8987854251012131
2020-01-13,0.9074074074074059
2020-01-14,0.8831775700934564
2020-01-15,0.8289473684210538
2020-01-16,0.8274336283185859
2020-01-17,0.3801652892562004
2020-01-20,0.16030534351145273
2020-01-21,0.1851851851851878
2020-01-22,0.3117870722433469
2020-01-23,0.16806722689075498
2020-02-03,0.2758620689655144
2020-02-04,0.907894736842104
2020-02-05,0.9235807860261999
2020-02-06,0.8555798687089698
2020-02-07,0.7214022140221398
2020-02-10,0.7581818181818178
2020-02-11,0.20107719928186685
2020-02-12,0.047970479704796246
2020-02-13,0.04805914972273495
2020-02-14,0.12314225053078408
2020-02-17,0.17234468937875821
2020-02-18,0.4898989898989898
2020-02-19,0.5914634146341483
2020-02-20,0.7565789473684228
2020-02-21,0.6484375000000067
2020-02-24,0.25217391304347625
2020-02-25,0.1551724137931067
2020-02-26,0.4958677685950449
2020-02-27,0.3559322033898313
2020-02-28,0.6458333333333314
2020-03-02,0.873831775700936
2020-03-03,0.9475524475524467
2020-03-04,0.7387096774193539
2020-03-05,0.7387096774193561
2020-03-06,0.5104166666666685
2020-03-09,0.2288828337874669
2020-03-10,0.39139784946236583
2020-03-11,0.5677290836653396
2020-03-12,0.6720779220779222
2020-03-13,0.7791601866251942
2020-03-16,1.0
2020-03-17,0.7362459546925562
2020-03-18,0.7437106918238987
2020-03-19,0.6981481481481471
2020-03-20,0.7314662273476107
2020-03-23,0.7592319054652876
2020-03-24,1.0
2020-03-25,0.9130434782608702
2020-03-26,0.9116202945990187
2020-03-27,0.662828947368423
2020-03-30,0.4061855670103118
2020-03-31,0.05463182897862292
2020-04-01,0.04572564612326091
2020-04-02,0.2464678178963897
2020-04-03,0.4588815789473679
2020-04-07,0.433629966116841
2020-04-08,0.5247937940452165
2020-04-09,0.8175979409425764
2020-04-10,0.5521852960217207
2020-04-13,0.44767629625659494
2020-04-14,0.6727975811417471
2020-04-15,0.6727609833895439
2020-04-16,0.26294600093692533
2020-04-17,0.3641211839544544
2020-04-20,0.27999999999999936
2020-04-21,0.31487889273356306
2020-04-22,0.2985074626865656
2020-04-23,0.688995215311003
2020-04-24,0.7281879194630853
2020-04-27,0.9446721311475403
2020-04-28,0.44462025316455756
2020-04-29,0.38127544097693455
2020-04-30,0.03825857519788929
2020-05-06,0.03370786516853997
2020-05-07,0.014012738853503248
2020-05-08,0.06639004149377578
2020-05-11,0.22627737226277145
2020-05-12,0.574074074074074
2020-05-13,0.8628571428571437
2020-05-14,0.5204460966542737
2020-05-15,0.4343065693430639
2020-05-18,0.4983818770226565
2020-05-19,0.6632390745501294
2020-05-20,0.4640371229698393
2020-05-21,0.5847953216374296
2020-05-22,0.7257683215130043
2020-05-25,0.5059952038369298
2020-05-26,0.2404494382022462
2020-05-27,0.3370473537604439
2020-05-28,0.43222506393861565
2020-05-29,0.1380846325167019
2020-06-01,0.18181818181818013
2020-06-02,0.3554687499999984
2020-06-03,0.4642857142857125
2020-06-04,0.38202247191011346
2020-06-05,1.0
2020-06-08,0.7260273972602741
2020-06-09,0.6428571428571468
2020-06-10,0.08982035928144375
2020-06-11,0.039800995024876835
2020-06-12,0.28518518518518393
2020-06-15,0.4226415094339611
2020-06-16,0.5179153094462511
2020-06-17,0.8277310924369725
2020-06-18,0.860262008733624
2020-06-19,0.5063291139240504
2020-06-22,0.36796536796536783
2020-06-23,0.15833333333333657
2020-06-24,0.0
2020-06-29,0.09486166007905072
2020-06-30,0.11428571428571363
2020-07-01,0.1318681318681318
2020-07-02,0.249999999999993
2020-07-03,0.6018518518518505
2020-07-06,0.6504065040650439
2020-07-07,0.9928057553956882
2020-07-08,0.7150259067357494
2020-07-09,0.6497461928934047
2020-07-10,0.7406015037594015
2020-07-13,0.6171874999999993
2020-07-14,0.6032388663967598
2020-07-15,0.8054298642533936
2020-07-16,0.855769230769225
2020-07-17,0.4615384615384598
2020-07-20,0.5131578947368426
2020-07-21,0.15508021390374357
2020-07-22,0.0
2020-07-23,0.38283828382838336
2020-07-24,0.4773662551440311
2020-07-27,0.4584980237154137
2020-07-28,0.7282051282051262
2020-07-29,0.7932960893854744
2020-07-30,0.2031250000000005
2020-07-31,0.1575757575757578
2020-08-03,0.1645569620253166
2020-08-04,0.0
2020-08-05,0.14193548387096835
2020-08-06,0.15384615384615488
2020-08-07,0.5464480874316986
2020-08-10,0.7130801687763757
2020-08-11,0.7862903225806462
2020-08-12,0.7489177489177519
2020-08-13,0.9010416666666653
2020-08-14,0.5248618784530346
2020-08-17,0.1624999999999959
2020-08-18,0.0
2020-08-19,0.42857142857142744
2020-08-20,0.6261127596439177
2020-08-21,0.827683805190385
2020-08-24,0.9646694410372716
2020-08-25,0.8648598293293847
2020-08-26,0.6109665282515012
2020-08-27,0.3252122428169635
2020-08-28,0.059610124162336825
2020-08-31,0.0
2020-09-01,0.09268547219428967
2020-09-02,0.11636642564663757
2020-09-03,0.13978494623656085
2020-09-04,0.23636363636364036
2020-09-07,0.5510204081632691
2020-09-08,0.47619047619048377
2020-09-09,0.7419354838709744
2020-09-10,0.9405940594059436
2020-09-11,0.9844559585492197
2020-09-14,0.8940397350993309
2020-09-15,0.8387096774193435
2020-09-16,0.4746835443037894
2020-09-17,0.0
2020-09-18,0.21078431372548526
2020-09-21,0.17916666666666273
2020-09-22,0.4143302180685335
2020-09-23,0.49626865671641524
2020-09-24,0.7589285714285708
2020-09-25,0.6195121951219539
2020-09-28,0.8520408163265342
2020-09-29,0.386934673366841
2020-09-30,0.5282258064516183
2020-10-09,0.4215246636771334
2020-10-12,0.5070422535211305
2020-10-13,0.6167883211678834
2020-10-14,0.9749478079331936
2020-10-15,0.9724137931034476
2020-10-16,1.0
2020-10-19,1.0
2020-10-20,0.8955223880597015
2020-10-21,0.694817658349328
2020-10-22,0.7341137123745817
2020-10-23,0.7576219512195121
2020-10-26,0.3109243697478988
2020-10-27,0.4198606271777007
2020-10-28,0.38132911392405094
2020-10-29,0.3753993610223643
2020-10-30,0.2877959927140259
2020-11-02,0.6943231441048038
2020-11-03,0.5900900900900881
2020-11-04,0.9025522041763315
2020-11-05,0.8873994638069678
2020-11-06,0.8222811671087514
2020-11-09,0.7319999999999984
2020-11-10,0.9291784702549585
2020-11-11,0.8945147679324911
2020-11-12,0.5354107648725224
2020-11-13,0.6601466992665034
2020-11-16,0.7743506493506486
2020-11-17,0.7263779527559039
2020-11-18,0.721999999999998
2020-11-19,1.0
2020-11-20,0.7604790419161673
2020-11-23,0.3611859838274925
2020-11-24,0.39694656488549657
2020-11-25,0.3322580645161295
2020-11-26,0.09712230215827415
2020-11-27,0.2615193026151937
2020-11-30,0.4464285714285709
2020-12-01,0.25992779783393327
2020-12-02,0.4089887640449429
2020-12-03,0.5185185185185179
2020-12-04,0.2620087336244531
2020-12-07,0.19823788546255852
2020-12-08,0.3600000000000085
2020-12-09,0.6887159533073973
2020-12-10,0.8450184501845044
2020-12-11,0.5857519788918205
2020-12-14,0.49115044247787537
2020-12-15,0.5162790697674403
2020-12-16,0.1693811074918541
2020-12-17,0.04850746268656887
2020-12-18,0.46768060836501835
2020-12-21,0.8144329896907203
2020-12-22,0.864553314121037
2020-12-23,0.7936507936507928
2020-12-24,0.6263390391292695
2020-12-25,0.45262116137031494
2020-12-28,0.3218111837421321
2020-12-29,0.09123170102997263
2020-12-30,0.09460968859089827
2020-12-31,0.18069639453758662
2021-01-04,0.1682028209062662
2021-01-05,0.046595188963768484
2021-01-06,0.3284813261858054
2021-01-07,0.5227765726681143
2021-01-08,0.5185995623632382
2021-01-11,0.7074569789674938
2021-01-12,1.0
2021-01-13,0.9681528662420356
2021-01-14,0.9615384615384586
2021-01-15,0.7557003257328951
2021-01-18,0.8496993987975934
2021-01-19,0.8665480427046248
2021-01-20,0.8353344768439107
2021-01-21,0.8399999999999996
2021-01-22,0.949511400651466
2021-01-25,0.35102040816326574
2021-01-26,0.1826196473551638
2021-01-27,0.29537803353209724
2021-01-28,0.22194850820156414
2021-01-29,0.20647410204647482
2021-02-01,0.3981925015926624
2021-02-02,0.5933473085059147
2021-02-03,0.22369467321603959
2021-02-04,0.2561650385155784
2021-02-05,0.0
2021-02-08,0.2417003423759548
2021-02-09,0.3894927536231886
2021-02-10,0.5189620758483032
2021-02-18,0.42553191489361747
2021-02-19,0.7814029363784678
2021-02-22,0.8574468085106395
2021-02-23,0.8792792792792801
2021-02-24,0.8417721518987351
2021-02-25,0.9708136034028478
2021-02-26,0.9704495366906954
2021-03-01,0.9197407567309669
2021-03-02,0.8909768859862297
2021-03-03,0.956037930465924
2021-03-04,0.700053303325535
2021-03-05,0.36340170091411406
2021-03-08,0.317926398681236
2021-03-09,0.42909384155337293
2021-03-10,0.2466793168880419
2021-03-11,0.23897058823529044
2021-03-12,0.3186274509803882
2021-03-15,0.33942558746736085
2021-03-16,0.010920436817470916
2021-03-17,0.0
2021-03-18,0.0
2021-03-19,0.2352941176470588
2021-03-22,0.2220019821605544
2021-03-23,0.35771065182829886
2021-03-24,0.5662650602409627
2021-03-25,0.6741803278688487
2021-03-26,0.18518518518518395
2021-03-29,0.24137931034482552
2021-03-30,0.19961612284068883
2021-03-31,0.0
2021-04-01,0.2862407862407863
2021-04-02,0.4515503875968998
2021-04-06,0.5176678445229703
2021-04-07,0.6748251748251773
2021-04-08,0.9917081260364862
2021-04-09,0.619694397283535
2021-04-12,0.5729984301412914
2021-04-13,0.549668874172189
2021-04-14,0.4915887850467293
2021-04-15,0.08854166666666304
2021-04-16,0.20312499999999364
2021-04-19,0.4783505154639132
2021-04-20,0.32905296950240315
2021-04-21,0.32362459546925365
2021-04-22,0.7032374100719411
2021-04-23,0.7174657534246572
2021-04-26,0.6562389868254305
2021-04-27,0.9440551142880783
2021-04-28,0.7076931702317983
2021-04-29,0.34292639759916727
2021-04-30,0.24085469001969148
2021-05-06,0.05657938921391129
2021-05-07,0.5404070034046917
2021-05-10,0.830303753123676
2021-05-11,0.9503060639206427
2021-05-12,0.9555895865237365
2021-05-13,1.0
2021-05-14,0.8145363408521324
2021-05-17,0.5223463687150827
2021-05-18,0.5162659123055158
2021-05-19,0.4240601503759386
2021-05-20,0.036873156342183175
2021-05-21,0.17886178861788465
2021-05-24,0.20663995325981258
2021-05-25,0.1404853570681618
2021-05-26,0.14343042917997073
2021-05-27,0.4195910086353623
2021-05-28,0.36263879095490903
2021-05-31,0.6101756449436263
2021-06-01,0.8856116947411607
2021-06-02,0.8925562075441621
2021-06-03,0.38240449221417816
2021-06-04,0.18666666666667175
2021-06-07,0.35106382978723594
2021-06-08,0.40967741935483803
2021-06-09,0.37026239067055416
2021-06-10,0.5314285714285714
2021-06-11,0.6580188679245327
2021-06-15,0.3687943262411355
2021-06-16,0.07396449704141986
2021-06-17,0.3153096465231123
2021-06-18,0.218154984801094
2021-06-21,0.31051507102437026
2021-06-22,0.40915606869231164
2021-06-23,0.8430299189666566
2021-06-24,0.7159021375011617
2021-06-25,0.8922970129503828
2021-06-28,0.8759057811831769
2021-06-29,0.4248196721311444
2021-06-30,0.09592326139088658
2021-07-01,0.11704834605598284
2021-07-02,0.016304347826091126
2021-07-05,0.13669064748201756
2021-07-06,0.6784810126582309
2021-07-07,0.8072289156626573
2021-07-08,0.73595505617978
2021-07-09,0.6770025839793244
2021-07-12,0.692874692874689
2021-07-13,0.16136363636363435
2021-07-14,0.4710743801652867
2021-07-15,0.5495381700749962
2021-07-16,0.590621559869798
2021-07-19,0.4372918721571224
2021-07-20,0.8087522424020195
2021-07-21,0.5293966767056721
2021-07-22,0.42118198038750243
2021-07-23,0.43719420025960376
2021-07-26,0.52393286093884
2021-07-27,0.03839842195995738
2021-07-28,0.04745762711865044
2021-07-29,0.05283018867925245
2021-07-30,0.22769230769230234
2021-08-02,0.44110275689223427
2021-08-03,0.7094594594594609
2021-08-04,0.9478527607361961
2021-08-05,1.0
2021-08-06,0.7734138972809698
2021-08-09,0.6159999999999956
2021-08-10,0.4633204633204622
2021-08-11,0.2829168616234333
2021-08-12,0.1961503967163887
2021-08-13,0.22243660860927594
2021-08-16,0.14084017460409146
2021-08-17,0.16640106105159672
2021-08-18,0.0002263156563299626
2021-08-19,0.27350270866212756
2021-08-20,0.3551230569335908
2021-08-23,0.665453907772531
2021-08-24,0.5559105431309905
2021-08-25,0.7985212569316098
2021-08-26,0.5178268251273379
2021-08-27,0.5754857997010484
2021-08-30,0.29286798179059337
2021-08-31,0.44305772230889395
2021-09-01,0.33500837520938004
2021-09-02,0.45454545454545325
2021-09-03,0.21513002364066244
2021-09-06,0.44852941176470373
2021-09-07,0.20634920634920204
2021-09-08,0.801801801801802
2021-09-09,0.8781456953642394
2021-09-10,0.9721407624633434
2021-09-13,0.9772998805256871
2021-09-14,0.9310344827586196
2021-09-15,0.49328449328449003
2021-09-16,0.31630971993409246
2021-09-17,0.4590163934426158
2021-09-22,0.20188425302825966
2021-09-23,0.20848156235432289
2021-09-24,0.5175516962073584
2021-09-27,0.5632565035719178
2021-09-28,0.5353921392437562
2021-09-29,0.961227325205958
2021-09-30,1.0
2021-10-08,1.0
2021-10-11,1.0
2021-10-12,1.0
2021-10-13,1.0
2021-10-14,0.8265682656826535
2021-10-15,0.624790619765493
2021-10-18,0.3288227334235457
2021-10-19,0.22034046510888491
2021-10-20,0.0
2021-10-21,0.15552459333530233
2021-10-22,0.3580960070737764
2021-10-25,0.607097192483148
2021-10-26,0.8179564646834133
2021-10-27,0.9345112088419245
2021-10-28,0.9196597821611437
2021-10-29,0.6087708015113715
2021-11-01,0.2578796561604594
2021-11-02,0.07493540051679716
2021-11-03,0.06531531531531602
2021-11-04,0.0
2021-11-05,0.004618937644344389
2021-11-08,0.05263157894737419
2021-11-09,0.4051724137931041
2021-11-10,0.3560606060606089
2021-11-11,0.6978260869565246
2021-11-12,0.5112179487179503
2021-11-15,0.4742589703588151
2021-11-16,0.25751072961373583
2021-11-17,0.47110955700108215
2021-11-18,0.22075345583730374
2021-11-19,0.5000632791526128
2021-11-22,0.5635003436431957
2021-11-23,0.7171451970063157
2021-11-24,0.5010243771515059
2021-11-25,0.6540930581984867
2021-11-26,0.22045210086660638
2021-11-29,0.0
2021-11-30,0.030054644808744983
2021-12-01,0.26645768025078187
2021-12-02,0.29209621993126983
2021-12-03,0.5193133047210272
2021-12-06,0.9489051094890517
2021-12-07,0.8380281690140855
2021-12-08,0.19650655021834212
2021-12-09,0.4468750000000023
2021-12-10,0.39590443686006976
2021-12-13,0.3022598870056519
2021-12-14,0.303398877431784
2021-12-15,0.5259507527408962
2021-12-16,0.043033191277422216
2021-12-17,0.0
2021-12-20,0.09411290356016122
2021-12-21,0.08098734291248166
2021-12-22,0.08033045553089667
2021-12-23,0.4279089764741157
2021-12-24,0.7375338701308636
2021-12-27,0.7362204724409396
2021-12-28,0.9439999999999958
2021-12-29,1.0
2021-12-30,0.7955555555555541
2021-12-31,0.31044776119402895
2022-01-04,0.48780487804878003
2022-01-05,0.48780487804878003
2022-01-06,0.427586206896551
2022-01-07,0.5882352941176469
2022-01-10,0.9625779625779628
2022-01-11,0.6305609284332688
2022-01-12,0.603734439834026
2022-01-13,0.6685823754789271
2022-01-14,0.5880952380952362
2022-01-17,0.17961165048543382
2022-01-18,0.472843450479232
2022-01-19,0.4907407407407361
2022-01-20,0.3289902280130263
2022-01-21,0.24249110970305846
2022-01-24,0.3777894629861194
2022-01-25,0.16242995990910547
2022-01-26,0.43284194075900156
2022-01-27,0.5553133896643256
2022-01-28,0.8945452843824896
2022-02-07,1.0
2022-02-08,0.8002636318006671
2022-02-09,0.4990535414313604
2022-02-10,0.4391304347826103
2022-02-11,0.3907815631262502
2022-02-14,0.0
2022-02-15,0.06415094339622543
2022-02-16,0.08252427184465762
2022-02-17,0.47402597402596763
2022-02-18,0.47096774193548485
2022-02-21,0.3967391304347814
2022-02-22,0.42036553524804215
2022-02-23,0.4687580544671321
2022-02-24,0.41914139518151855
2022-02-25,0.7309806233349124
2022-02-28,0.8932866971765088
2022-03-01,0.8940648549257484
2022-03-02,1.0
2022-03-03,1.0
2022-03-04,0.5959754375266174
2022-03-07,0.7936555387649439
2022-03-08,0.8328141225337484
2022-03-09,0.8009888751545119
2022-03-10,0.8024539877300622
2022-03-11,1.0
2022-03-14,0.5351123595505646
2022-03-15,0.22146739130434986
2022-03-16,0.18757612667478873
2022-03-17,0.12435346291262134
2022-03-18,0.0
2022-03-21,0.0
2022-03-22,0.0
2022-03-23,0.024800707079387356
2022-03-24,0.03464439351044693
2022-03-25,0.04945497052131118
2022-03-28,0.07766933186943394
2022-03-29,0.13167613769345318
2022-03-30,0.02836879432625342
2022-03-31,0.5291005291005246
2022-04-01,0.8124999999999936
2022-04-06,0.9488491048593323
2022-04-07,0.9533799533799504
2022-04-08,1.0
2022-04-11,1.0
2022-04-12,0.9158878504672967
2022-04-13,0.4154929577464842
2022-04-14,0.2516556291390843
2022-04-15,0.344927536231896
2022-04-18,0.1111111111111145
2022-04-19,0.10087719298245806
2022-04-20,0.35322195704057163
2022-04-21,0.39080791629047235
2022-04-22,0.2149723312027571
2022-04-25,0.5702484272926339
2022-04-26,0.7205248484800935
2022-04-27,0.6411294793609139
2022-04-28,0.6609377354340465
2022-04-29,0.9617621151075765
2022-05-05,0.49125320607249073
2022-05-06,0.34761541256240386
2022-05-09,0.2887788778877882
2022-05-10,0.42971887550200694
2022-05-11,0.24092409240924026
2022-05-12,0.5911111111111135
2022-05-13,0.6157407407407419
2022-05-16,0.8759493670886057
2022-05-17,0.5128205128205154
2022-05-18,0.47281323877069065
2022-05-19,0.1960784313725495
2022-05-20,0.30598669623059976
2022-05-23,0.13333333333333408
2022-05-24,0.2681058339984564
2022-05-25,0.38761934160114087
2022-05-26,0.7885756588139151
2022-05-27,0.5202978585143168
2022-05-30,0.6531001408831465
2022-05-31,0.6904685747455156
2022-06-01,0.6928189897446693
2022-06-02,0.29351254757383616
2022-06-06,0.7050210168685925
2022-06-07,0.6832971800433867
2022-06-08,0.7594728171334469
2022-06-09,0.7794561933534774
2022-06-10,0.9851973684210606
2022-06-13,0.9781021897810337
2022-06-14,1.0
2022-06-15,0.5256064690026929
2022-06-16,0.28057553956834347
2022-06-17,0.21052631578946504
2022-06-20,0.10294117647057983
2022-06-21,0.179124803728731
2022-06-22,0.2519092268042748
2022-06-23,0.5246066655593344
2022-06-24,0.6549395210081413
2022-06-27,0.9388799747383939
2022-06-28,0.8285554390036266
2022-06-29,0.8951916802007087
2022-06-30,0.8009808500472699
2022-07-01,0.4023563046277138
2022-07-04,0.14779874213836178
2022-07-05,0.28797468354429934
2022-07-06,0.5044052863436147
2022-07-07,0.6390977443609016
2022-07-08,0.6640624999999951
2022-07-11,0.5743243243243228
2022-07-12,0.6425531914893595
2022-07-13,0.3435897435897394
2022-07-14,0.22492836676217484
2022-07-15,0.3976777939042077
2022-07-18,0.663953488372093
2022-07-19,0.5547696815283994
2022-07-20,0.8615561662761211
2022-07-21,0.8971634449176282
2022-07-22,0.7577776951791297
2022-07-25,0.22261083003069596
2022-07-26,0.7636001989060144
2022-07-27,0.6311159823511233
2022-07-28,0.6847163069549101
2022-07-29,0.8487463584456202
2022-08-01,0.5984251968503975
2022-08-02,0.21900826446281405
2022-08-03,0.23110465116279447
2022-08-04,0.27830832196452865
2022-08-05,0.12464183381088305
2022-08-08,0.24953789279111804
2022-08-09,0.6928104575163246
2022-08-10,0.7842105263157805
2022-08-11,0.39962121212121215
2022-08-12,0.3761140819964383
2022-08-15,0.28900709219858695
2022-08-16,0.16412213740458537
2022-08-17,0.0
2022-08-18,0.12258064516129293
2022-08-19,0.5890052356020974
2022-08-22,0.7601170064531451
2022-08-23,0.7649589012486248
2022-08-24,0.9094602873689419
2022-08-25,0.7928852276976396
2022-08-26,0.41264932064804466
2022-08-29,0.021845338233378697
2022-08-30,0.07553242082907197
2022-08-31,0.04974496082006648
2022-09-01,0.12470382840752971
2022-09-02,0.3133802816901397
2022-09-05,0.8638743455497317
2022-09-06,0.6324786324786277
2022-09-07,0.8176291793313049
2022-09-08,0.842931937172773
2022-09-09,0.7625698324022339
2022-09-13,0.6566666666666645
2022-09-14,0.861290322580646
2022-09-15,0.5367647058823591
2022-09-16,0.3181818181818247
2022-09-19,0.2713178294573674
2022-09-20,0.6421052631579033
2022-09-21,0.5555555555555676
2022-09-22,0.6638418079096138
2022-09-23,0.599300543995505
2022-09-26,0.78864416857419
2022-09-27,0.2540897745355904
2022-09-28,0.25195433363845826
2022-09-29,0.2948776564425329
2022-09-30,0.3002609597533506
2022-10-10,0.04858294449699615
2022-10-11,0.4589168122564177
2022-10-12,0.531317096302531
2022-10-13,0.49845201238388936
2022-10-14,0.6745562130177458
2022-10-17,0.9961389961389921
2022-10-18,0.4612546125461192
2022-10-19,0.5379746835443123
2022-10-20,0.65227817745804
2022-10-21,0.5338541666666698
2022-10-24,0.45103092783505333
2022-10-25,0.5737704918032722
2022-10-26,0.3368124422707362
2022-10-27,0.0
2022-10-28,0.0012300468458061992
2022-10-31,0.3560011506241402
2022-11-01,0.6545530397067316
2022-11-02,0.6866051623710296
2022-11-03,0.6593803254799547
2022-11-04,0.7796479264471425
2022-11-07,0.7146096927763211
2022-11-08,0.4488517745302719
2022-11-09,0.4545454545454555
2022-11-10,0.5745721271393673
2022-11-11,0.23008849557522235
2022-11-14,0.1329923273657289
2022-11-15,0.1688311688311687
2022-11-16,0.1739130434782593
2022-11-17,0.19016393442622548
2022-11-18,0.04933586337760735
2022-11-21,0.34808853118711874
2022-11-22,0.4006207743791522
2022-11-23,0.4289724396053076
2022-11-24,0.4130783690445741
2022-11-25,0.9888670659614225
2022-11-28,0.9792799558455025
2022-11-29,0.9787340737714121
2022-11-30,1.0
2022-12-01,1.0
2022-12-02,1.0
2022-12-05,0.43147208121826286
2022-12-06,0.3239436619718236
2022-12-07,0.5
2022-12-08,0.3805309734513252
2022-12-09,0.37313432835820703
2022-12-12,0.60162601626016
2022-12-13,0.6324786324786246
2022-12-14,0.13114754098360887
2022-12-15,0.23157894736844245
2022-12-16,0.1555555555555806
2022-12-19,0.09952606635072009
2022-12-20,0.1063264487668051
2022-12-21,0.5920546219747709
2022-12-22,0.561355232608134
2022-12-23,0.47977069782823134
2022-12-26,0.33864697905679897
2022-12-27,0.3130710942723351
2022-12-28,0.018407589801023912
2022-12-29,0.0
2022-12-30,0.2570948312088495
2023-01-03,0.3152173913043464
2023-01-04,0.6074074074074045
2023-01-05,0.7854077253218912
2023-01-06,1.0
2023-01-09,0.9487179487179482
2023-01-10,0.952542372881355
2023-01-11,0.9542483660130716
2023-01-12,0.9634464751958219
2023-01-13,0.6161879895561362
2023-01-16,0.5053533190578162
2023-01-17,0.467221149831474
2023-01-18,0.20393243858952273
2023-01-19,0.0
2023-01-20,0.09958000075675513
2023-01-30,0.47180261237896437
2023-01-31,0.5200131983045327
2023-02-01,0.5829489518161114
2023-02-02,0.781863472707481
2023-02-03,0.729222762013548
2023-02-06,0.3028846153846203
2023-02-07,0.11740890688258085
2023-02-08,0.1705882352941059
2023-02-09,0.0
2023-02-10,0.14225941422594252
2023-02-13,0.13934426229508212
2023-02-14,0.1691542288557178
2023-02-15,0.14655172413792777
2023-02-16,0.4272300469483487
2023-02-17,0.21673003802281018
2023-02-20,0.4212598425196778
2023-02-21,0.6000502134069795
2023-02-22,0.6903112925566801
2023-02-23,0.4886488892657313
2023-02-24,0.7666788509774842
2023-02-27,0.4882262373771778
2023-02-28,0.2514764107554726
2023-03-01,0.29231680572711416
2023-03-02,0.3381051649489097
2023-03-03,0.4007021989915831
2023-03-06,0.6394557823129214
2023-03-07,0.8417266187050345
2023-03-08,0.7749999999999979
2023-03-09,0.966887417218543
2023-03-10,0.7499999999999757
2023-03-13,0.7941176470588044
2023-03-14,0.6204379562043597
2023-03-15,0.5214723926380181
2023-03-16,0.6320754716980985
2023-03-17,0.782608695652169
2023-03-20,0.6195682564645411
2023-03-21,0.6215276999304942
2023-03-22,0.6600880326006374
2023-03-23,0.20855630731981578
2023-03-24,0.0
2023-03-27,0.059438480416005746
2023-03-28,0.06088155337655831
2023-03-29,0.061306732143774426
2023-03-30,0.32117991466095114
2023-03-31,0.5378787878787825
2023-04-03,0.7288888888888849
2023-04-04,0.8122448979591741
2023-04-06,0.8968749999999955
2023-04-07,0.730650154798755
2023-04-10,0.8425655976676356
2023-04-11,0.4422110552763848
2023-04-12,0.3831521739130426
2023-04-13,0.18339100346021034
2023-04-14,0.3357664233576751
2023-04-17,0.1982378854625581
2023-04-18,0.791044776119382
2023-04-19,0.883310904785176
2023-04-20,0.8410097247493743
2023-04-21,0.7821813053941311
2023-04-24,0.551314859380356
2023-04-25,0.4893313766272076
2023-04-26,0.17868606035960888
2023-04-27,0.17479228181007567
2023-04-28,0.0
2023-05-04,0.04003265321268958
2023-05-05,0.03597122302159432
2023-05-08,0.4943181818181738
2023-05-09,0.5621301775147768
2023-05-10,0.9074074074074064
2023-05-11,0.9171270718232027
2023-05-12,1.0
2023-05-15,1.0
2023-05-16,1.0
2023-05-17,1.0
2023-05-18,0.8496318925055842
2023-05-19,0.7846927949030926
2023-05-22,0.8149666601853799
2023-05-23,0.8282946619092619
2023-05-24,0.6276353675041251
2023-05-25,0.8239368881949954
2023-05-26,0.850614139248963
2023-05-29,0.5695159558053361
2023-05-30,0.29736698040344633
2023-05-31,0.40322580645161554
2023-06-01,0.24053030303030415
2023-06-02,0.17995910020450098
2023-06-05,0.3517587939698536
2023-06-06,0.7500000000000029
2023-06-07,0.587755102040816
2023-06-08,0.8850174216027825
2023-06-09,0.5580246913580247
2023-06-12,0.6065934065934028
2023-06-13,0.5724931477701476
2023-06-14,0.726197029836583
2023-06-15,0.5383005325563555
2023-06-16,0.7859586851708825
2023-06-19,0.6058767667844563
2023-06-20,0.4834979970630283
2023-06-21,0.16839796442816465
2023-06-26,0.264835980069768
2023-06-27,0.047829731131535526
2023-06-28,0.03987730061349629
2023-06-29,0.17940199335547843
2023-06-30,0.18243243243242954
2023-07-03,0.15087719298245275
2023-07-04,0.17131474103585395
2023-07-05,0.3049645390070818
2023-07-06,0.010638297872338994
2023-07-07,0.3846153846153901
2023-07-10,0.3029045643153574
2023-07-11,0.36529680365296346
2023-07-12,0.3463203463203468
2023-07-13,0.7314356190578556
2023-07-14,0.648667251351613
2023-07-17,0.9184373748416927
2023-07-18,0.9435194115324861
2023-07-19,1.0
2023-07-20,0.9226719209276757
2023-07-21,0.6875292315925272
2023-07-24,0.6602432037996774
2023-07-25,0.5158860424593968
2023-07-26,0.45402298850574846
2023-07-27,0.5064102564102605
2023-07-28,0.9927536231884071
2023-07-31,0.7569444444444436
2023-08-01,0.5621621621621711
2023-08-02,0.5621621621621643
2023-08-03,0.6934865900383171
2023-08-04,0.5211864406779673
2023-08-07,0.6488888888888926
2023-08-08,0.8333333333333308
2023-08-09,0.5693779904306241
2023-08-10,0.23204419889501432
2023-08-11,0.20689655172411991
2023-08-14,0.3481781376518202
2023-08-15,0.22112211221123038
2023-08-16,0.21405750798722717
2023-08-17,0.24632352941176794
2023-08-18,0.593156831070793
2023-08-21,0.5120124270298934
2023-08-22,0.7954049255786064
2023-08-23,0.976481989339957
2023-08-24,0.9083364505089373
2023-08-25,0.5076973453061834
2023-08-28,0.37115901943697177
2023-08-29,0.09087260220813366
2023-08-30,0.15288818934483517
2023-08-31,0.15618221258134588
2023-09-01,0.4382022471910115
2023-09-04,0.5909090909090933
2023-09-05,0.8441558441558359
2023-09-06,0.9271255060728705
2023-09-07,0.9776247848536975
2023-09-08,0.961123110151184
2023-09-11,0.974025974025968
2023-09-12,0.9940828402366862
2023-09-13,0.6069711538461536
2023-09-14,0.5563093622795134
2023-09-15,0.5866495507060365
2023-09-18,0.6193853427896021
2023-09-19,0.26760563380282215
2023-09-20,0.6100419354068931
2023-09-21,0.6277751202612524
2023-09-22,0.5654619080907104
2023-09-25,0.47217667803075447
2023-09-26,0.849211663166001
2023-09-27,0.20266594937087112
2023-09-28,0.07658008981769479
2023-10-09,0.06603790968502934
2023-10-10,0.0
2023-10-11,0.0
2023-10-12,0.12804878048781312
2023-10-13,0.14788732394367252
2023-10-16,0.33796296296296774
2023-10-17,0.49324324324324975
2023-10-18,0.5533333333333449
2023-10-19,0.41739130434781296
2023-10-20,0.5381921675465974
2023-10-23,0.3737316014405608
2023-10-24,0.26457175492756235
2023-10-25,0.17145881886676997
2023-10-26,0.07083388246358231
2023-10-27,0.35604635191694334
2023-10-30,0.4119243416232467
2023-10-31,0.7196887325827905
2023-11-01,0.6412258990411598
2023-11-02,0.8505338078291806
2023-11-03,0.4649122807017473
2023-11-06,0.4006024096385496
2023-11-07,0.21960784313726334
2023-11-08,0.3914728682170583
2023-11-09,0.20000000000000592
2023-11-10,0.4705882352941348
2023-11-13,0.6637168141593104
2023-11-14,0.3144104803493493
2023-11-15,0.5626740947075253
2023-11-16,0.5872093023255861
2023-11-17,0.6744730679156921
2023-11-20,0.5852724894320955
2023-11-21,0.8610258477977791
2023-11-22,0.4665250296250915
2023-11-23,0.5171324171946351
2023-11-24,0.35455966905191194
2023-11-27,0.48517069727052325
2023-11-28,0.28759793804349315
2023-11-29,0.5563261376474102
2023-11-30,0.43164264656649065
2023-12-01,0.8705882352941039
2023-12-04,0.5872340425531801
2023-12-05,0.41071428571427904
2023-12-06,0.5330073349633196
2023-12-07,0.6099773242630385
2023-12-08,0.30607476635514136
2023-12-11,0.31339712918660545
2023-12-12,0.5162162162162174
2023-12-13,0.4225806451612889
2023-12-14,0.42681675267358915
2023-12-15,0.594655497339879
2023-12-18,0.8222429773823416
2023-12-19,0.4415429246414565
2023-12-20,0.4928465449284769
2023-12-21,0.2543738063899034
2023-12-22,0.4118973359324315
2023-12-25,0.4065178190878958
2023-12-26,0.5789689951438145
2023-12-27,0.26170798898070957
2023-12-28,0.3805970149253619
2023-12-29,0.14642857142855467
2024-01-02,0.02671755725190336
2024-01-03,0.2755681818181811
2024-01-04,0.6061946902654906
2024-01-05,0.5936073059360796
2024-01-08,0.9379844961240362
2024-01-09,0.7245508982035898
2024-01-10,0.5960784313725426
2024-01-11,0.5829959514169902
2024-01-12,0.48813559322032696
2024-01-15,0.12121212121211104
2024-01-16,0.6572399521249545
2024-01-17,0.6731680558038011
2024-01-18,0.5593184053084694
2024-01-19,0.616490779123848
2024-01-22,0.8051367808050683
2024-01-23,0.13109963602550273
2024-01-24,0.10246826687377111
2024-01-25,0.1628276150844637
2024-01-26,0.41217193790772055
2024-01-29,0.3257918552036162
2024-01-30,0.5714285714285604
2024-01-31,0.8586572438162469
2024-02-01,0.757475083056471
2024-02-02,0.5
2024-02-05,0.7611336032388751
2024-02-06,0.7695312500000105
2024-02-07,0.6910994764398013
2024-02-08,0.878504672897208
2024-02-19,0.8245614035087659
2024-02-20,0.482926829268282
2024-02-21,0.3425925925925827
2024-02-22,0.21212121212121074
2024-02-23,0.0
2024-02-26,0.0
2024-02-27,0.0
2024-02-28,0.08880964592692157
2024-02-29,0.11088532040198323
2024-03-01,0.13255946099521226
2024-03-04,0.3721828160543617
2024-03-05,0.6251940897777513
2024-03-06,0.2513225627623273
2024-03-07,0.2809247869240165
2024-03-08,0.43749999999998845
2024-03-11,0.5499999999999835
2024-03-12,0.4397590361445699
2024-03-13,0.5177304964538931
2024-03-14,0.6857142857142864
2024-03-15,0.6992831820821557
2024-03-18,0.46741089292548527
2024-03-19,0.49563911171680497
2024-03-20,0.6572995151063215
2024-03-21,0.2858178647842032
2024-03-22,0.06883141721741391
2024-03-25,0.22087909048157459
2024-03-26,0.4662291725234602
2024-03-27,0.5842446188941667
2024-03-28,0.7658227848101332
2024-03-29,1.0
2024-04-01,1.0
2024-04-02,0.5703703703703772
2024-04-03,0.1655172413793247
2024-04-08,0.10322580645160712
2024-04-09,0.10897435897435649
2024-04-10,0.23204419889503128
2024-04-11,0.2837837837837882
2024-04-12,0.5057471264367764
2024-04-15,0.5714285714285636
2024-04-16,0.7421874999999875
2024-04-17,0.32608695652173
2024-04-18,0.5520361990950107
2024-04-19,0.710526315789468
2024-04-22,0.7547841388887319
2024-04-23,0.5902634228783302
2024-04-24,0.8186231286779458
2024-04-25,0.6727577310994673
2024-04-26,0.32405880597297027
2024-04-29,0.33945405139317497
2024-04-30,0.3723490342884762
2024-05-06,0.1859035025437125
2024-05-07,0.28553120311910396
2024-05-08,0.5789473684210702
2024-05-09,0.15714285714287232
2024-05-10,0.35156250000000644
2024-05-13,0.5930232558139505
2024-05-14,0.547169811320753
2024-05-15,0.46511627906975994
2024-05-16,0.8267716535433108
2024-05-17,0.683333333333357
2024-05-20,0.7164179104477794
2024-05-21,0.8104340803106801
2024-05-22,0.9407270417694198
2024-05-23,0.8441569458679982
2024-05-24,0.9068151509752764
2024-05-27,0.6621659458353408
2024-05-28,0.5279239327670023
2024-05-29,0.13582914779985686
2024-05-30,0.15681616489218217
2024-05-31,0.12841033660665394
2024-06-03,0.5588235294117598
2024-06-04,0.5135135135135124
2024-06-05,0.8380952380952413
2024-06-06,0.661654135338341
2024-06-07,0.593869731800767
2024-06-11,0.22881355932203096
2024-06-12,0.3626666666666634
2024-06-13,0.24842767295598012
2024-06-14,0.3417266187050413
2024-06-17,0.32646048109965664
2024-06-18,0.7803030303030226
2024-06-19,0.5853658536585509
2024-06-20,0.12698412698413197
2024-06-21,0.0436395208120953
2024-06-24,0.18398532115448035
2024-06-25,0.38723850690421374
2024-06-26,0.38936004079932685
2024-06-27,0.9050766386045783
2024-06-28,0.9870487235950165
2024-07-01,0.9526321725291615
2024-07-02,0.6625767222054587
2024-07-03,0.5873161047101755
2024-07-04,0.45092024539877773
2024-07-05,0.0
2024-07-08,0.11965811965811944
2024-07-09,0.4698275862069058
2024-07-10,0.6437768240343412
2024-07-11,0.8454935622317599
2024-07-12,0.8873873873873903
2024-07-15,0.7071129707112971
2024-07-16,0.347826086956521
2024-07-17,0.16967509025270613
2024-07-18,0.0
2024-07-19,0.0
2024-07-22,0.1044738029556456
2024-07-23,0.17830807513660457
2024-07-24,0.506364869266335
2024-07-25,0.6999152495864033
2024-07-26,1.0
2024-07-29,0.9078079191015427
2024-07-30,0.8954638727331504
2024-07-31,0.890095021396386
2024-08-01,0.8932384341637046
2024-08-02,0.4816176470588248
2024-08-05,0.6695652173913054
2024-08-06,0.733812949640289
2024-08-07,0.4650205761316939
2024-08-08,0.3228782287822928
2024-08-09,0.5178907721280638
2024-08-12,0.3378378378378393
2024-08-13,0.205761316872426
2024-08-14,0.2958579881656733
2024-08-15,0.576051779935267
2024-08-16,0.3058823529411764
2024-08-19,0.5499999999999997
2024-08-20,0.7342952743388954
2024-08-21,0.6881914247110531
2024-08-22,0.726462923232616
2024-08-23,0.8774365771014919
2024-08-26,0.8813296167500524
2024-08-27,0.7709359308613447
2024-08-28,0.6926109068826702
2024-08-29,0.15067014262976539
2024-08-30,0.1524002358866092
2024-09-02,0.0
2024-09-03,0.0
2024-09-04,0.30825242718446505
2024-09-05,0.5792682926829291
2024-09-06,0.5555555555555599
2024-09-09,0.7725947521865971
2024-09-10,0.9644760213143893
2024-09-11,0.961904761904764
2024-09-12,0.9623352165725068
2024-09-13,1.0
2024-09-18,1.0
2024-09-19,0.8083167518929121
2024-09-20,0.6063412436589891
2024-09-23,0.5495976514811256
2024-09-24,0.5510487014603107
2024-09-25,0.16323977300881454
2024-09-26,0.20669516367572066
2024-09-27,0.31958484376679686
2024-09-30,0.6721940272566731
2024-10-08,0.6294117647058722
2024-10-09,0.5047169811320767
2024-10-10,0.45338983050847853
2024-10-11,0.48851774530272124
2024-10-14,0.06730769230769525
2024-10-15,0.0361010830324948
2024-10-16,0.08883248730964811
2024-10-17,0.09915014164306205
2024-10-18,0.037499999999997945
2024-10-21,0.06693073634895955
2024-10-22,0.0675497472079344
2024-10-23,0.0
2024-10-24,0.017071238588468464
2024-10-25,0.02319463281432956
2024-10-28,0.2679662580658757
2024-10-29,0.7088701751408878
2024-10-30,0.9567143089046983
2024-10-31,0.930986744151813
2024-11-01,0.9226804123711311
2024-11-04,0.8176795580110378
2024-11-05,0.25999999999999235
2024-11-06,0.3771043771043777
2024-11-07,0.5238095238095218
2024-11-08,0.5981087470449187
2024-11-11,0.5856481481481548
2024-11-12,0.8694158075601489
2024-11-13,0.4159292035398308
2024-11-14,0.17133956386293445
2024-11-15,0.0
2024-11-18,0.09287925696593942
2024-11-19,0.3002481389578109
2024-11-20,0.4636015325670439
2024-11-21,0.4868922299899594
2024-11-22,0.5931976477967129
2024-11-25,0.49442394283824337
2024-11-26,0.0
2024-11-27,0.25878361190500315
2024-11-28,0.5923325835701497
2024-11-29,0.7959197440845396
2024-12-02,0.9058658754909072
2024-12-03,0.7424405766607375
2024-12-04,0.6803652968036591
2024-12-05,0.7046413502109732
2024-12-06,0.6410256410256402
2024-12-09,0.2533936651583636
2024-12-10,0.41040462427744195
2024-12-11,0.4632768361581825
2024-12-12,0.21693121693120918
2024-12-13,0.10970464135020977
2024-12-16,0.13756613756613728
2024-12-17,0.054455445544558376
2024-12-18,0.0
2024-12-19,0.0
2024-12-20,0.47263285490816825
2024-12-23,0.6938273528292618
2024-12-24,0.8167638743555723
2024-12-25,0.9750683721614999
2024-12-26,0.9737436227549053
2024-12-27,0.7989596458285257
2024-12-30,0.7711776210976884
2024-12-31,0.4972390274912108
