date,FCT_Cr_Atr_Dfive
2019-09-26,
2019-09-27,
2019-09-30,
2019-10-08,
2019-10-09,
2019-10-10,
2019-10-11,
2019-10-14,
2019-10-15,
2019-10-16,
2019-10-17,-0.007267923888679868
2019-10-18,0.18076555023923965
2019-10-21,0.03858024691357948
2019-10-22,-0.292937773454951
2019-10-23,-0.3799790061946521
2019-10-24,0.16362855157787518
2019-10-25,-0.09242468300334217
2019-10-28,-0.0933747674615236
2019-10-29,0.07205461162435116
2019-10-30,0.18890905566617885
2019-10-31,-0.32919045147898496
2019-11-01,0.14409669520166915
2019-11-04,0.0041616091555385995
2019-11-05,-0.021681159420290183
2019-11-06,-0.10325579166766316
2019-11-07,0.4442819148936148
2019-11-08,0.21739926739926224
2019-11-11,0.19433369879398035
2019-11-12,0.06787837062535938
2019-11-13,0.25171581208768085
2019-11-14,-0.2158088235294106
2019-11-15,-0.5327693811564724
2019-11-18,-0.25798650168728854
2019-11-19,0.051605500342381816
2019-11-20,-0.28137692483156296
2019-11-21,-0.07238562091503367
2019-11-22,0.2724938358063052
2019-11-25,0.15485850664848053
2019-11-26,-0.04358784650290837
2019-11-27,0.2359301221197439
2019-11-28,0.08563877642825311
2019-11-29,-0.02236823848883303
2019-12-02,0.023880332637235782
2019-12-03,0.0077981651376146585
2019-12-04,-0.10692161280452456
2019-12-05,0.047862607517968975
2019-12-06,-0.07343202441071585
2019-12-09,0.09809104461130352
2019-12-10,-0.06798193023061361
2019-12-11,0.1419336792492388
2019-12-12,-0.08201274060674951
2019-12-13,0.14493224014412706
2019-12-16,-0.34939983971439914
2019-12-17,0.03812397940259886
2019-12-18,-0.23494421017277953
2019-12-19,-0.004731807970071236
2019-12-20,-0.18963482017279476
2019-12-23,0.24230121465754917
2019-12-24,-0.11573992858056079
2019-12-25,-0.09760227648467562
2019-12-26,-0.08987783595113327
2019-12-27,0.08346502317741215
2019-12-30,-0.22311021521313829
2019-12-31,0.4830739535950992
2020-01-02,0.2685044919068007
2020-01-03,0.15890690844081184
2020-01-06,0.07768632547393708
2020-01-07,0.29047168820253905
2020-01-08,-0.41933172212230446
2020-01-09,0.014233590411053293
2020-01-10,0.13256625786596876
2020-01-13,0.016935141535779408
2020-01-14,-0.1228070175438569
2020-01-15,-0.008864182692306571
2020-01-16,-0.024415010041291707
2020-01-17,-0.3423834208387765
2020-01-20,-0.20311164109256122
2020-01-21,0.016064257028112653
2020-01-22,0.12093341441167359
2020-01-23,-0.09753257894521963
2020-02-03,0.12892675522036084
2020-02-04,0.7296012656455617
2020-02-05,0.09037138653624402
2020-02-06,-0.09791672193189488
2020-02-07,-0.08659383924840647
2020-02-10,0.06871451595410608
2020-02-11,-1.002804014540456
2020-02-12,-0.25590932777488296
2020-02-13,-0.039581810530044705
2020-02-14,0.20375384958576118
2020-02-17,0.09883935449208237
2020-02-18,0.4203552289928715
2020-02-19,0.07091742094088814
2020-02-20,0.11573208012045372
2020-02-21,-0.10326061237044795
2020-02-24,-0.22534726845071928
2020-02-25,-0.05368971841622268
2020-02-26,0.18597314306503337
2020-02-27,-0.07611668671044444
2020-02-28,0.21387136384807146
2020-03-02,0.218342342342343
2020-03-03,0.17897738541753755
2020-03-04,-0.20942615336571968
2020-03-05,0.00882447639452726
2020-03-06,-0.30217931594163416
2020-03-09,-0.40663241106719294
2020-03-10,0.3507992895204235
2020-03-11,0.29065396221501366
2020-03-12,0.22458489029859066
2020-03-13,0.21783225993986433
2020-03-16,0.43785784459320465
2020-03-17,-0.6628371628371605
2020-03-18,-0.044253280530131
2020-03-19,-0.1643564897307318
2020-03-20,0.04341674268181561
2020-03-23,0.022530238376257394
2020-03-24,0.291535387689235
2020-03-25,-0.1797780398314649
2020-03-26,-0.018785844629822093
2020-03-27,-0.25624527996547597
2020-03-30,-0.24151162428322126
2020-03-31,-0.21593058012566457
2020-04-01,-0.08277149165407485
2020-04-02,0.1390548029556649
2020-04-03,0.2050989076215361
2020-04-07,-0.029747694220051905
2020-04-08,0.08889352306074183
2020-04-09,0.3302840288696672
2020-04-10,-0.28407700009779846
2020-04-13,-0.11012176124326445
2020-04-14,0.20762282154370848
2020-04-15,-0.0002922423935828558
2020-04-16,-0.3679700613428418
2020-04-17,0.102676549368854
2020-04-20,-0.10628661387670113
2020-04-21,0.05257810715663962
2020-04-22,-0.02302089010888342
2020-04-23,0.3624015328933372
2020-04-24,0.02807934342545304
2020-04-27,0.13063031537216485
2020-04-28,-0.38455337803538625
2020-04-29,-0.09049756799496281
2020-04-30,-0.4678013961879372
2020-05-06,-0.05964885109258745
2020-05-07,-0.0031868293893795377
2020-05-08,0.24431138048888773
2020-05-11,0.1925184391661413
2020-05-12,0.2319757264558298
2020-05-13,0.131154477048454
2020-05-14,-0.13808149367488218
2020-05-15,-0.0631682351536465
2020-05-18,0.0524111765316924
2020-05-19,0.15625241966705286
2020-05-20,-0.18120668347152835
2020-05-21,0.10350975041332261
2020-05-22,0.16730278951034186
2020-05-25,-0.2312483543223467
2020-05-26,-0.28717830174140846
2020-05-27,0.12857357573632028
2020-05-28,0.08742973781404828
2020-05-29,-0.3514227301562246
2020-06-01,0.10525944281187281
2020-06-02,0.20235269077751789
2020-06-03,0.0865649026320212
2020-06-04,-0.0577547504265835
2020-06-05,0.23041031526983918
2020-06-08,-0.0640157780579099
2020-06-09,-0.04974576943449899
2020-06-10,-0.27040467919598404
2020-06-11,-0.08518821428953428
2020-06-12,0.14059648902032146
2020-06-15,0.11725891189815354
2020-06-16,0.08363903334953669
2020-06-17,0.22075141983398877
2020-06-18,0.02943509274693787
2020-06-19,-0.2788505151299142
2020-06-22,-0.10952235992483217
2020-06-23,-0.1765903795762046
2020-06-24,-0.17490732820074256
2020-06-29,0.09981784594787585
2020-06-30,0.036547846721631666
2020-07-01,0.047129564041472366
2020-07-02,0.12417926157946241
2020-07-03,0.18935800454518134
2020-07-06,0.029753081603996936
2020-07-07,0.20543690645824503
2020-07-08,-0.09568072512023851
2020-07-09,-0.05130864612825247
2020-07-10,0.1316584990330268
2020-07-13,-0.13303821062442067
2020-07-14,-0.02827440331368858
2020-07-15,0.14542483660130734
2020-07-16,0.02610792178722447
2020-07-17,-0.29856453252032195
2020-07-20,0.02826109788545129
2020-07-21,-0.23518189592789884
2020-07-22,-0.10949742215726926
2020-07-23,0.2576307025790971
2020-07-24,0.09355503075570967
2020-07-27,-0.01800700576516061
2020-07-28,0.19576719576719614
2020-07-29,0.0376362767667124
2020-07-30,-0.3725580953737331
2020-07-31,-0.07532163826078327
2020-08-03,0.005765361399163997
2020-08-04,-0.0817099567099551
2020-08-05,0.07624023035787728
2020-08-06,-0.002080777465058914
2020-08-07,0.27504865065228107
2020-08-10,0.17915347364499906
2020-08-11,0.08215005881364137
2020-08-12,-0.060583048034027455
2020-08-13,0.0936572006337202
2020-08-14,-0.32023231686983766
2020-08-17,-0.24597854047006407
2020-08-18,-0.07346330676661406
2020-08-19,0.25763350802845136
2020-08-20,0.2260495519525702
2020-08-21,0.23662899632097362
2020-08-24,0.12382319016900378
2020-08-25,-0.03956610869296214
2020-08-26,-0.3634933346117774
2020-08-27,-0.3031479761531478
2020-08-28,-0.2671440003761216
2020-08-31,-0.06091633627854377
2020-09-01,0.12028941467301238
2020-09-02,0.062258813896290656
2020-09-03,0.0424349881439438
2020-09-04,0.12562845651080973
2020-09-07,0.16479222264582333
2020-09-08,-0.0450098705856528
2020-09-09,0.1646642527978922
2020-09-10,0.19718914698418635
2020-09-11,0.022310611589546486
2020-09-14,-0.14897666880253274
2020-09-15,-0.025209940602174356
2020-09-16,-0.2097238895558216
2020-09-17,-0.2884526677258985
2020-09-18,0.09913695529145428
2020-09-21,-0.0771267007272249
2020-09-22,0.21490066225165907
2020-09-23,0.08821973233737994
2020-09-24,0.21999686733149265
2020-09-25,-0.1362562875720754
2020-09-28,0.17118909351550127
2020-09-29,-0.35816326530612475
2020-09-30,0.11835016835016929
2020-10-09,-0.09101680200194372
2020-10-12,0.06802880545897382
2020-10-13,0.11031038456952588
2020-10-14,0.6152184800300482
2020-10-15,-0.09856459330143633
2020-10-16,0.06352459016393455
2020-10-19,0.2859292364990672
2020-10-20,-0.24199210968969836
2020-10-21,-0.5234519758575289
2020-10-22,0.0649290181220614
2020-10-23,0.03736559139784985
2020-10-26,-0.4995934230194322
2020-10-27,0.11020696367267345
2020-10-28,-0.056087928280220176
2020-10-29,0.0053023929080060345
2020-10-30,-0.05965956433757882
2020-11-02,0.3323898031099305
2020-11-03,-0.0847195203100986
2020-11-04,0.22632769840810055
2020-11-05,-0.06372068978250384
2020-11-06,-0.03758099671309888
2020-11-09,-0.12031566792432545
2020-11-10,0.13819796046286176
2020-11-11,-0.09663462105194406
2020-11-12,-0.10747295115545046
2020-11-13,0.07614821714925155
2020-11-16,0.1377910931076614
2020-11-17,-0.08347223749220299
2020-11-18,-0.005499959696319605
2020-11-19,0.22005501588077825
2020-11-20,-0.13846331627682934
2020-11-23,-0.3341382530023506
2020-11-24,0.03201187920704382
2020-11-25,-0.09392925635140893
2020-11-26,-0.22084232221848102
2020-11-27,0.17862226142932874
2020-11-30,0.18225425936286493
2020-12-01,-0.1433235468525699
2020-12-02,0.12083528593672119
2020-12-03,0.06340477243269026
2020-12-04,-0.09282777497823977
2020-12-07,-0.02012563934970355
2020-12-08,0.06785106579330816
2020-12-09,0.10286272701012808
2020-12-10,0.0633618519878816
2020-12-11,-0.0811786750964257
2020-12-14,-0.05169074371321585
2020-12-15,0.01660921485595541
2020-12-16,-0.16743739907251737
2020-12-17,-0.02522594364699526
2020-12-18,0.16231764574729235
2020-12-21,0.14385807251317012
2020-12-22,0.04741141338994552
2020-12-23,-0.014039785768936573
2020-12-24,-0.07321778721339715
2020-12-25,-0.11725523897726045
2020-12-28,-0.05377105088578911
2020-12-29,-0.16499411147222062
2020-12-30,-0.001800865870183646
2020-12-31,0.08224949136383555
2021-01-04,-0.026963271576097566
2021-01-05,-0.16876834030869997
2021-01-06,0.2464456193868801
2021-01-07,0.14943119762373674
2021-01-08,-0.003805123017122247
2021-01-11,0.17090369366037875
2021-01-12,0.17830698713051618
2021-01-13,-0.13089402798054542
2021-01-14,-0.061307129381424914
2021-01-15,-0.06203903429770144
2021-01-18,0.1307157146429485
2021-01-19,0.029957305874428464
2021-01-20,-0.010145883166325993
2021-01-21,0.0016078321106302654
2021-01-22,0.09023807147372462
2021-01-25,-0.4804157272739947
2021-01-26,-0.1876818525128452
2021-01-27,0.10753268247557102
2021-01-28,-0.08050870820050038
2021-01-29,0.0031740825704735867
2021-02-01,0.21106826478312907
2021-02-02,0.09985291479016897
2021-02-03,-0.16156346993472603
2021-02-04,0.023316036478576663
2021-02-05,-0.22449490260480195
2021-02-08,0.14095939532481905
2021-02-09,0.10798854017998573
2021-02-10,0.10842026825633339
2021-02-18,-0.08666721651577458
2021-02-19,0.37121169366217066
2021-02-22,0.21272526257601007
2021-02-23,0.061713880871840196
2021-02-24,-0.05676885404906878
2021-02-25,0.320062464048181
2021-02-26,-0.11143653345776428
2021-03-01,-0.34239740259459417
2021-03-02,-0.14626940015903356
2021-03-03,0.08784639514109077
2021-03-04,-0.2602148875065937
2021-03-05,-0.143057061246479
2021-03-08,-0.030303195938326265
2021-03-09,0.04838225153550728
2021-03-10,-0.06514248078898797
2021-03-11,-0.011773282850930378
2021-03-12,0.05062510087177587
2021-03-15,0.007930304757887162
2021-03-16,-0.22253429752912154
2021-03-17,-0.08476100701329764
2021-03-18,-0.006737336588681898
2021-03-19,0.1508497330404732
2021-03-22,-0.041528652391828215
2021-03-23,0.170990574853817
2021-03-24,0.14399320677521119
2021-03-25,0.05504133485521142
2021-03-26,-0.3124813287286725
2021-03-29,0.0713014829502187
2021-03-30,-0.060597014925373574
2021-03-31,-0.1948478104420095
2021-04-01,0.20667408125630002
2021-04-02,0.16833256836143154
2021-04-06,0.04940250655785631
2021-04-07,0.1232653061224503
2021-04-08,0.26843190076461093
2021-04-09,-0.32050380114868715
2021-04-12,-0.030528127753503716
2021-04-13,-0.024589119633075165
2021-04-14,-0.047579031612647774
2021-04-15,-0.29844225909485106
2021-04-16,0.14413354840804926
2021-04-19,0.15002555207978313
2021-04-20,-0.12930010424495192
2021-04-21,-0.0012595470990202275
2021-04-22,0.3057697346619509
2021-04-23,0.015265069889819877
2021-04-26,-0.08436801338869525
2021-04-27,0.09989839480958741
2021-04-28,-0.07863472769849479
2021-04-29,-0.1952281500143393
2021-04-30,-0.026347580452057408
2021-05-06,-0.05206161479234215
2021-05-07,0.1778641505473764
2021-05-10,0.2346836025113094
2021-05-11,0.07020603066464728
2021-05-12,0.03335671922017154
2021-05-13,0.1481993711688941
2021-05-14,-0.23165348520276316
2021-05-17,-0.26194189170968973
2021-05-18,-0.004968418515936754
2021-05-19,-0.06403157373649912
2021-05-20,-0.2690208825539704
2021-05-21,0.11702465657328155
2021-05-24,0.026966363503070453
2021-05-25,-0.0734925272103283
2021-05-26,0.0021660004411712327
2021-05-27,0.1995938819446822
2021-05-28,-0.021059748891781985
2021-05-31,0.1029857303994274
2021-06-01,0.07449226174943918
2021-06-02,0.0032599073862319295
2021-06-03,-0.17151414497006634
2021-06-04,-0.13643457237222545
2021-06-07,0.09581964454752537
2021-06-08,0.03947734040121737
2021-06-09,-0.04350979919057357
2021-06-10,0.13027239358619336
2021-06-11,0.07012616712653301
2021-06-15,-0.15726995835850277
2021-06-16,-0.1496044550848331
2021-06-17,0.11958731471267875
2021-06-18,-0.0573010610832574
2021-06-21,0.05358875816329166
2021-06-22,0.04649332467657044
2021-06-23,0.21491237087091572
2021-06-24,-0.08094922273936432
2021-06-25,0.06807198362999282
2021-06-28,-0.019372384505460603
2021-06-29,-0.18149491697691278
2021-06-30,-0.20893565837246458
2021-07-01,0.02575963226378824
2021-07-02,-0.041039994315228395
2021-07-05,0.046849189807194554
2021-07-06,0.3380002313877458
2021-07-07,0.05474690950499749
2021-07-08,-0.02779849013546446
2021-07-09,-0.022071848267522565
2021-07-12,0.010943698066539796
2021-07-13,-0.3636308189328606
2021-07-14,0.23266524719187096
2021-07-15,0.07544005389483506
2021-07-16,0.03438509114642231
2021-07-19,-0.14327553006342414
2021-07-20,0.36325540805645185
2021-07-21,-0.29271482269219384
2021-07-22,-0.08874718555368274
2021-07-23,0.011949434289958474
2021-07-26,0.06496173833051391
2021-07-27,-0.2890836389442174
2021-07-28,0.03359639157897161
2021-07-29,0.019543497223675026
2021-07-30,0.06085602826099616
2021-08-02,0.11435006799637867
2021-08-03,0.13764068776264837
2021-08-04,0.14178655577150617
2021-08-05,0.031947457321934866
2021-08-06,-0.1271021180468377
2021-08-09,-0.10883020818329382
2021-08-10,-0.062261690041820444
2021-08-11,-0.05216475184841207
2021-08-12,-0.015633595882982528
2021-08-13,0.011671546224147088
2021-08-16,-0.0748124545398136
2021-08-17,0.028535191799362168
2021-08-18,-0.18509407555339485
2021-08-19,0.1402700203311152
2021-08-20,0.07161686693874614
2021-08-23,0.2721289519369102
2021-08-24,-0.0814804904618277
2021-08-25,0.23078225312862388
2021-08-26,-0.282839635035181
2021-08-27,0.07541299498663696
2021-08-30,-0.33758786323427614
2021-08-31,0.17984836392657605
2021-09-01,-0.1107748460689654
2021-09-02,0.1250493654369264
2021-09-03,-0.19433311865032704
2021-09-06,0.19028557225645124
2021-09-07,-0.08445378151260524
2021-09-08,0.4602649393090599
2021-09-09,0.17704882180941509
2021-09-10,0.07882439897494166
2021-09-13,0.08519077402323452
2021-09-14,-0.031818552663784846
2021-09-15,-0.6305190058479583
2021-09-16,-0.1551619996434268
2021-09-17,0.11779950496886712
2021-09-22,-0.24974685022236617
2021-09-23,0.0100450959593059
2021-09-24,0.2696664228936322
2021-09-27,0.03389452315320383
2021-09-28,-0.02531562215183078
2021-09-29,0.25211060963937304
2021-09-30,0.10009884972548239
2021-10-08,-0.02189268574769486
2021-10-11,0.028618730197663853
2021-10-12,-0.053461906295060285
2021-10-13,-0.03333765982297186
2021-10-14,-0.12733350598541254
2021-10-15,-0.09870359067063618
2021-10-18,-0.19702259844431502
2021-10-19,-0.11811366760025391
2021-10-20,-0.1528531429732109
2021-10-21,0.1210336234344101
2021-10-22,0.16616267291261128
2021-10-25,0.19381395716620956
2021-10-26,0.12192587212024461
2021-10-27,0.048302362515445584
2021-10-28,-0.06596503141553633
2021-10-29,-0.1567946886628684
2021-11-01,-0.12836554156519733
2021-11-02,-0.08556559970621913
2021-11-03,-0.03654153366086579
2021-11-04,-0.08611300655094678
2021-11-05,0.050494880445600285
2021-11-08,0.07459966262063356
2021-11-09,0.13630531552762132
2021-11-10,-0.031333504076491214
2021-11-11,0.1912504950555992
2021-11-12,-0.09984699246413216
2021-11-15,-0.031033268521212395
2021-11-16,-0.20397302941280399
2021-11-17,0.20599454020732938
2021-11-18,-0.24221520773601826
2021-11-19,0.28157729703494716
2021-11-22,0.06916296802626555
2021-11-23,0.11950850937533591
2021-11-24,-0.19881039076208668
2021-11-25,0.09835885457733874
2021-11-26,-0.24982234019653354
2021-11-29,-0.12800515271277904
2021-11-30,0.011984001122316307
2021-12-01,0.13802146660517223
2021-12-02,0.01884544156568915
2021-12-03,0.09473339160839142
2021-12-06,0.08671139688752291
2021-12-07,-0.021110440465279563
2021-12-08,-0.18299616323683143
2021-12-09,0.09025806753782044
2021-12-10,-0.020789266599322828
2021-12-13,-0.0622702329743298
2021-12-14,-0.00029591398029247575
2021-12-15,0.11234317472372005
2021-12-16,-0.17381849849086334
2021-12-17,-0.08682801947907033
2021-12-20,0.0782925312986868
2021-12-21,-0.040798286432545766
2021-12-22,-0.004817564006621587
2021-12-23,0.1867143745446347
2021-12-24,0.15303077669736148
2021-12-27,-0.0036819018193559004
2021-12-28,0.09693447718334718
2021-12-29,0.043949347805390275
2021-12-30,-0.13604577638935053
2021-12-31,-0.23355867876415715
2022-01-04,0.12209399580862554
2022-01-05,0.00043551121259573916
2022-01-06,-0.04470546724662971
2022-01-07,0.12968981619008238
2022-01-10,0.29946462555158315
2022-01-11,-0.26349859750100235
2022-01-12,-0.03299163426416771
2022-01-13,0.061749278205099005
2022-01-14,-0.08986633068776873
2022-01-17,-0.26467140458814864
2022-01-18,0.1865534041684454
2022-01-19,0.009136021558379958
2022-01-20,-0.07897834394904238
2022-01-21,-0.08693347613214977
2022-01-24,0.10838826979412325
2022-01-25,-0.058201087468220954
2022-01-26,0.08732718976264897
2022-01-27,0.05589528780116945
2022-01-28,0.09102938364502147
2022-02-07,0.17261816582422182
2022-02-08,-0.06617370552946089
2022-02-09,-0.21353990850186902
2022-02-10,-0.04528099034841944
2022-02-11,-0.044273439712967225
2022-02-14,-0.18272439850652064
2022-02-15,0.0753569070701354
2022-02-16,0.03058331653586066
2022-02-17,0.14563067862380324
2022-02-18,-0.002230398121766071
2022-02-21,-0.05194295047758763
2022-02-22,0.015584210795361477
2022-02-23,0.03269479831380449
2022-02-24,-0.026075236618992442
2022-02-25,0.24894802533868404
2022-02-28,0.09023571671580755
2022-03-01,-0.0052554278014445704
2022-03-02,0.15796553410866887
2022-03-03,-0.08213164421946804
2022-03-04,-0.30875009498826556
2022-03-07,0.2648830218123962
2022-03-08,0.09319827278238288
2022-03-09,-0.111055264940824
2022-03-10,-0.0006891136668035792
2022-03-11,0.15996135251836568
2022-03-14,-0.42544611699964674
2022-03-15,-0.24718305278298086
2022-03-16,-0.06159624485521921
2022-03-17,-0.14763974654011602
2022-03-18,-0.18092544446354208
2022-03-21,0.0422192604886055
2022-03-22,0.0843667504303362
2022-03-23,0.07091014650622823
2022-03-24,0.08589312485083493
2022-03-25,0.07624438516249565
2022-03-28,0.08012194353129927
2022-03-29,0.04845965687883263
2022-03-30,-0.03582162399991491
2022-03-31,0.1557949251858594
2022-04-01,0.142346412249109
2022-04-06,0.1907479572595862
2022-04-07,0.02912869704236223
2022-04-08,0.024444079420160345
2022-04-11,-0.05227012457403986
2022-04-12,-0.11666120063803347
2022-04-13,-0.26729768135029247
2022-04-14,-0.08344845320750471
2022-04-15,0.037924783763978794
2022-04-18,-0.17575525132646153
2022-04-19,-0.04618015366873479
2022-04-20,0.20787122964533955
2022-04-21,0.03163210197125614
2022-04-22,-0.17395934875293717
2022-04-25,0.3413386968816886
2022-04-26,0.16434522593592077
2022-04-27,-0.11602202322576
2022-04-28,0.014131367644178345
2022-04-29,0.2782230498943387
2022-05-05,-0.4210448051832561
2022-05-06,-0.1281723768690863
2022-05-09,-0.09690755279488102
2022-05-10,0.1561951754385944
2022-05-11,-0.17525008100847642
2022-05-12,0.31107449764166406
2022-05-13,0.01714583711227933
2022-05-16,0.1766045112568407
2022-05-17,-0.2642551710421614
2022-05-18,-0.02929443180565856
2022-05-19,-0.2120356273921152
2022-05-20,0.07402457058355069
2022-05-23,-0.13184166925282648
2022-05-24,0.14250338587812328
2022-05-25,0.08126935199934911
2022-05-26,0.23357085002557532
2022-05-27,-0.15316172623531926
2022-05-30,0.07614569408168217
2022-05-31,0.032046619472030316
2022-06-01,-0.00013259227425143835
2022-06-02,-0.25656626687318185
2022-06-06,0.32532760564626856
2022-06-07,-0.019748521649135594
2022-06-08,0.11335404993189879
2022-06-09,0.034415096803681794
2022-06-10,0.17905837890825402
2022-06-13,-0.21381089965035807
2022-06-14,0.00935360528565157
2022-06-15,-0.28573221757322315
2022-06-16,-0.14259466592026748
2022-06-17,-0.020583017791381227
2022-06-20,-0.11414929814274083
2022-06-21,0.03682247564236958
2022-06-22,0.08969888116777999
2022-06-23,0.1478107750818445
2022-06-24,0.09178227131461933
2022-06-27,0.1651614846077572
2022-06-28,-0.06781492192217947
2022-06-29,0.05093997150496973
2022-06-30,-0.08160498867159302
2022-07-01,-0.22148213217726953
2022-07-04,-0.10361811523308015
2022-07-05,0.061562301631753163
2022-07-06,0.10150400447010942
2022-07-07,0.0909044110164659
2022-07-08,0.020022792647845553
2022-07-11,-0.04744450602869291
2022-07-12,0.0762773841917318
2022-07-13,-0.29454135807977555
2022-07-14,-0.09165719823945911
2022-07-15,0.16346928209848352
2022-07-18,0.28809242577545424
2022-07-19,-0.1337869629638324
2022-07-20,0.18358849471257607
2022-07-21,0.016803766998020192
2022-07-22,-0.12121662718907236
2022-07-25,-0.2188247769563016
2022-07-26,0.1636191949213884
2022-07-27,-0.04872303342323701
2022-07-28,0.028604444956513674
2022-07-29,0.09675218730131124
2022-08-01,-0.09550637824259428
2022-08-02,-0.31995334256761787
2022-08-03,0.01901031237484887
2022-08-04,0.038538357449042694
2022-08-05,-0.1200057137230843
2022-08-08,0.14075474846352662
2022-08-09,0.2345354454555676
2022-08-10,0.06487921482187775
2022-08-11,-0.20810255462256225
2022-08-12,-0.028221563093903876
2022-08-15,-0.07467328634402925
2022-08-16,-0.08369335838549169
2022-08-17,-0.11512991173995019
2022-08-18,0.18017077798861414
2022-08-19,0.24711943686777552
2022-08-22,0.12378204141902285
2022-08-23,0.006815679863762372
2022-08-24,0.06423551319537818
2022-08-25,-0.06664093023657425
2022-08-26,-0.2285860612213419
2022-08-29,-0.2203229954242682
2022-08-30,0.03970002321792483
2022-08-31,-0.02949166386594682
2022-09-01,0.05403209299538342
2022-09-02,0.11039393069641737
2022-09-05,0.20432888490407616
2022-09-06,-0.06579632835774316
2022-09-07,0.12979880563059812
2022-09-08,0.038298748353096046
2022-09-09,-0.06405522278409809
2022-09-13,-0.08105369807497426
2022-09-14,0.10376300876892129
2022-09-15,-0.16644174538910977
2022-09-16,-0.07875609418495404
2022-09-19,-0.03131754505171881
2022-09-20,0.20983807866200815
2022-09-21,-0.06649018243752389
2022-09-22,0.050778521687018796
2022-09-23,-0.0256654189384544
2022-09-26,0.13675665278229232
2022-09-27,-0.36592538420471377
2022-09-28,-0.00554753671331021
2022-09-29,0.028628110301810762
2022-09-30,-0.00010198270443475405
2022-10-10,-0.18429183158095547
2022-10-11,0.3015787940006845
2022-10-12,0.042626986216691476
2022-10-13,-0.019588818223650575
2022-10-14,0.101758387985934
2022-10-17,0.12176737238827835
2022-10-18,-0.24634764215269053
2022-10-19,0.04060203939753071
2022-10-20,0.0862818365330924
2022-10-21,-0.08354851144272545
2022-10-24,-0.05121320757620165
2022-10-25,0.06404536589632846
2022-10-26,-0.12587443215611008
2022-10-27,-0.15001740350491988
2022-10-28,0.02652018143291782
2022-10-31,0.1364777084809363
2022-11-01,0.18745182185948683
2022-11-02,0.02075400396699085
2022-11-03,-0.00540973217347171
2022-11-04,0.19236671621742196
2022-11-07,-0.11855212317574725
2022-11-08,-0.22642493593020782
2022-11-09,0.003363863447127788
2022-11-10,0.08728608470181595
2022-11-11,-0.16546456424358177
2022-11-14,-0.13738620750084338
2022-11-15,0.05554698473708592
2022-11-16,0.0015308206050268225
2022-11-17,0.009740942325211038
2022-11-18,-0.2842727857484374
2022-11-21,0.34667446467569313
2022-11-22,0.056804089267627776
2022-11-23,0.03162904566707273
2022-11-24,-0.011653707626967371
2022-11-25,0.36377705119614706
2022-11-28,-0.18362275814388437
2022-11-29,-0.007016344712443237
2022-11-30,0.043515332780771
2022-12-01,-0.001288812357806016
2022-12-02,-0.09465499391619568
2022-12-05,-0.11911998674493993
2022-12-06,-0.04849279161205554
2022-12-07,0.0821948679531101
2022-12-08,-0.07605633802817047
2022-12-09,-0.003028028028027924
2022-12-12,0.12528772564225563
2022-12-13,0.013221133643986766
2022-12-14,-0.24686301057180365
2022-12-15,0.07553115301982122
2022-12-16,-0.058061405887489634
2022-12-19,-0.01226646383446414
2022-12-20,0.011852295813096724
2022-12-21,0.1857612483959924
2022-12-22,-0.009885142044075992
2022-12-23,-0.02072831250167994
2022-12-26,-0.056052004047028085
2022-12-27,-0.017084195589962995
2022-12-28,-0.13183923898436883
2022-12-29,-0.07160896259852159
2022-12-30,0.152871088388905
2023-01-03,0.046846902584219544
2023-01-04,0.16710366015148773
2023-01-05,0.09306001188354421
2023-01-06,0.22098426477209676
2023-01-09,-0.09706243489696724
2023-01-10,0.02193345720652921
2023-01-11,-0.02674611531220618
2023-01-12,0.06275344180224934
2023-01-13,-0.261709612882356
2023-01-16,-0.07585379195778871
2023-01-17,-0.03525004361818795
2023-01-18,-0.25012255931644795
2023-01-19,-0.2062712810923614
2023-01-20,0.1597284941510223
2023-01-30,0.3220781100776227
2023-01-31,0.04716737876207388
2023-02-01,0.055395556349087216
2023-02-02,0.15265241168583946
2023-02-03,-0.06369994237943653
2023-02-06,-0.28982155860687614
2023-02-07,-0.11777587289096414
2023-02-08,0.07653390875462485
2023-02-09,-0.1254306532508153
2023-02-10,0.05901629927478843
2023-02-13,-0.01935378054781184
2023-02-14,0.040206304164423494
2023-02-15,-0.046206475126305976
2023-02-16,0.18231523270187033
2023-02-17,-0.16604283998554087
2023-02-20,0.15782922579038994
2023-02-21,0.1449727663317489
2023-02-22,0.0645623237489307
2023-02-23,-0.15825736052477204
2023-02-24,0.17941068291766196
2023-02-27,-0.18315176048336185
2023-02-28,-0.1492866319637666
2023-03-01,0.022024934565879804
2023-03-02,0.03639972716666051
2023-03-03,0.037885232016049854
2023-03-06,0.1137233734524909
2023-03-07,0.07931086046313049
2023-03-08,-0.04478282381126107
2023-03-09,0.10679121115089824
2023-03-10,-0.12727697053332765
2023-03-13,0.031018918110438602
2023-03-14,-0.06319736188282152
2023-03-15,-0.033867741982067004
2023-03-16,0.06642035658121848
2023-03-17,0.10656225218081473
2023-03-20,-0.09487224950746781
2023-03-21,0.0033019028370350444
2023-03-22,0.02209260655546265
2023-03-23,-0.3339103375609526
2023-03-24,-0.2652697104095275
2023-03-27,0.09039838324880152
2023-03-28,-0.00020118190191435736
2023-03-29,-0.005838841933138304
2023-03-30,0.29263990861928924
2023-03-31,0.13035014842493403
2023-04-03,0.17279808183417586
2023-04-04,0.08140164919825812
2023-04-06,0.15313707998810921
2023-04-07,-0.16840378498409725
2023-04-10,0.1318126410503758
2023-04-11,-0.42871972820721527
2023-04-12,-0.06222099568925421
2023-04-13,-0.14370513798431558
2023-04-14,0.1361621084300352
2023-04-17,-0.06426201586147635
2023-04-18,0.23051712921479742
2023-04-19,0.03185578313492647
2023-04-20,-0.004549350283902232
2023-04-21,-0.039637947292527176
2023-04-24,-0.03960922521863784
2023-04-25,-0.014019520879352692
2023-04-26,-0.09387640917139994
2023-04-27,-0.005610566525627959
2023-04-28,-0.12830011254004672
2023-05-04,0.03965201407398152
2023-05-05,-0.02711588591677874
2023-05-08,0.23078216731896933
2023-05-09,0.038700809160084615
2023-05-10,0.18824660049343755
2023-05-11,0.02715651665279911
2023-05-12,0.17031917821298362
2023-05-15,-0.12554081867732028
2023-05-16,0.08900927487352672
2023-05-17,-0.0423047754875692
2023-05-18,-0.08364073475313073
2023-05-19,-0.1311138603070501
2023-05-22,0.03249133515473681
2023-05-23,0.003216807357660015
2023-05-24,-0.09890716538762923
2023-05-25,0.14658210091821544
2023-05-26,0.05129144083386149
2023-05-29,-0.19198464372670554
2023-05-30,-0.29477153372582054
2023-05-31,0.12830911021464164
2023-06-01,-0.17740909751489842
2023-06-02,-0.027283242030016842
2023-06-05,0.18683990903211192
2023-06-06,0.26120805218552284
2023-06-07,-0.10831994735925718
2023-06-08,0.19753999377528703
2023-06-09,-0.1767197527471201
2023-06-12,0.053370809401600286
2023-06-13,-0.04399607072967736
2023-06-14,0.1805166963349618
2023-06-15,-0.1989988038945052
2023-06-16,0.19803061823116924
2023-06-19,-0.16984759410715397
2023-06-20,-0.09248474046780218
2023-06-21,-0.21977471421088074
2023-06-26,0.09379626793699108
2023-06-27,-0.1258520612846526
2023-06-28,-0.08048281219123705
2023-06-29,0.12080131458121718
2023-06-30,-0.012091210343328274
2023-07-03,-0.011770105056411562
2023-07-04,0.02859301126310304
2023-07-05,0.1302331092193203
2023-07-06,-0.18762137018470496
2023-07-07,0.21126395190994207
2023-07-10,-0.07602379875439351
2023-07-11,0.05276493598861469
2023-07-12,-0.019939205326766712
2023-07-13,0.28378191390995
2023-07-14,-0.0995679946437249
2023-07-17,0.1473132709120083
2023-07-18,0.10486602856749937
2023-07-19,0.10487808112776116
2023-07-20,-0.1733767310049488
2023-07-21,-0.11037328092511767
2023-07-24,-0.040037788900181885
2023-07-25,-0.11048990495457679
2023-07-26,-0.026623668607055534
2023-07-27,0.019631246967492546
2023-07-28,0.14924299636782132
2023-07-31,-0.06963244100461297
2023-08-01,-0.055726767964857336
2023-08-02,-0.0014126292796159678
2023-08-03,0.08453472974599681
2023-08-04,-0.09751612903225754
2023-08-07,0.059312592458117985
2023-08-08,0.0690294056491174
2023-08-09,-0.1089431151562891
2023-08-10,-0.1348942068701785
2023-08-11,-0.027908084163903106
2023-08-14,0.05522453220425394
2023-08-15,-0.10115913230666615
2023-08-16,-0.023270328944266075
2023-08-17,0.041121299748871694
2023-08-18,0.25919885331778386
2023-08-21,-0.07279967574430359
2023-08-22,0.22745188723073778
2023-08-23,0.11817562887720634
2023-08-24,-0.020202152123227263
2023-08-25,-0.3313051232208657
2023-08-28,-0.13755633658440847
2023-08-29,-0.2827146614095054
2023-08-30,0.06762456748999893
2023-08-31,-7.439161405401601e-05
2023-09-01,0.3019703980230266
2023-09-04,0.12664622584000715
2023-09-05,0.12660424939504955
2023-09-06,0.2937230449102124
2023-09-07,0.12440247331491935
2023-09-08,-0.17285316009010346
2023-09-11,0.06729816160311912
2023-09-12,0.24258450078506855
2023-09-13,-0.5922299557623754
2023-09-14,-0.08267375434066078
2023-09-15,0.03830414395251069
2023-09-18,0.04143616119932779
2023-09-19,-0.39221517314300974
2023-09-20,0.3314721122237474
2023-09-21,0.019419588678594377
2023-09-22,-0.05905243408730502
2023-09-25,-0.08409265448116579
2023-09-26,0.15513464909068966
2023-09-27,-0.3040068196568609
2023-09-28,-0.08072167861640238
2023-10-09,-0.0584082850063125
2023-10-10,-0.12607123345266694
2023-10-11,-0.003066570461711709
2023-10-12,0.20834697993075268
2023-10-13,0.03140592920110134
2023-10-16,0.11430369127516576
2023-10-17,0.05920909654345348
2023-10-18,0.018444741883842874
2023-10-19,-0.036237054266008484
2023-10-20,0.026796638057637358
2023-10-23,-0.02754465752811125
2023-10-24,-0.03241284049130172
2023-10-25,-0.021590440063686434
2023-10-26,-0.07568629338250535
2023-10-27,0.08689580556078169
2023-10-30,0.024463671612617914
2023-10-31,0.16363292398712426
2023-11-01,-0.02948229672333691
2023-11-02,0.12227776937240786
2023-11-03,-0.23047609270919364
2023-11-06,-0.04596656692099059
2023-11-07,-0.08090175388767822
2023-11-08,0.09160639425070263
2023-11-09,-0.09129205993707767
2023-11-10,0.13222870879121243
2023-11-13,0.04803271521050629
2023-11-14,-0.13274533458072918
2023-11-15,0.1676868361500708
2023-11-16,0.01710218168371753
2023-11-17,0.09330637328152726
2023-11-20,-0.07432933431992172
2023-11-21,0.2775071637553892
2023-11-22,-0.394362966556548
2023-11-23,0.05344090056890548
2023-11-24,-0.17016174357592184
2023-11-27,0.13847619441781123
2023-11-28,-0.15534619598465507
2023-11-29,0.16864717954264294
2023-11-30,-0.052740763956888155
2023-12-01,0.2268560819233592
2023-12-04,-0.15369620226801803
2023-12-05,-0.09921708257047898
2023-12-06,0.0954417497369094
2023-12-07,0.07146339918946781
2023-12-08,-0.267076389443445
2023-12-11,0.00016850619260452837
2023-12-12,0.17625260212069105
2023-12-13,-0.06644008095660428
2023-12-14,0.005081252810147548
2023-12-15,0.08328024909003479
2023-12-18,0.098078972799379
2023-12-19,-0.1735002549699423
2023-12-20,0.02916613382314402
2023-12-21,-0.16596069411238604
2023-12-22,0.11046095070246557
2023-12-25,-0.0008593910211882466
2023-12-26,0.10365159373595115
2023-12-27,-0.23000119561935883
2023-12-28,0.11840613190690372
2023-12-29,-0.16836939102564125
2024-01-02,-0.06109549090849814
2024-01-03,0.13254786450662767
2024-01-04,0.2310878808410602
2024-01-05,-0.009198423127461995
2024-01-08,0.23349460496497593
2024-01-09,-0.07686983963318313
2024-01-10,-0.1458168633003567
2024-01-11,-0.012895800280431698
2024-01-12,-0.056470588235294585
2024-01-15,-0.23944002786605528
2024-01-16,0.427837335705413
2024-01-17,0.011874123783933025
2024-01-18,-0.09764881399040032
2024-01-19,0.04669968303823792
2024-01-22,0.14208870869145634
2024-01-23,-0.5183202448892182
2024-01-24,-0.1042854420311547
2024-01-25,0.08068558270611478
2024-01-26,0.19618709016815264
2024-01-29,-0.08981227432062677
2024-01-30,0.21086088724862037
2024-01-31,0.20982084401711393
2024-02-01,-0.05965657311668969
2024-02-02,-0.21711276112221464
2024-02-05,0.15712545676005402
2024-02-06,0.006985971774706955
2024-02-07,-0.08488919007776863
2024-02-08,0.09626180482686345
2024-02-19,-0.008946634948982464
2024-02-20,-0.17651584000483211
2024-02-21,-0.06733963710708038
2024-02-22,-0.09537590437244119
2024-02-23,-0.12118377736119834
2024-02-26,-0.05820576688207087
2024-02-27,0.014007586071448669
2024-02-28,0.07425989064188906
2024-02-29,0.051097291401454456
2024-03-01,0.03534558869300092
2024-03-04,0.12949454760242676
2024-03-05,0.07711000400623412
2024-03-06,-0.1393403072442181
2024-03-07,0.02167719232049746
2024-03-08,0.062370501488391905
2024-03-11,0.05277001479532658
2024-03-12,-0.05444326071782306
2024-03-13,0.03539574880256932
2024-03-14,0.12129028308764468
2024-03-15,0.009989071887495843
2024-03-18,-0.15495942823478623
2024-03-19,0.018230140341357406
2024-03-20,0.08546819242276782
2024-03-21,-0.18437933339598306
2024-03-22,-0.10593892723947052
2024-03-25,0.09672185429040657
2024-03-26,0.08973759765204452
2024-03-27,0.06781186305261849
2024-03-28,0.07810094164061263
2024-03-29,0.06930127084612833
2024-04-01,-0.011892296185489572
2024-04-02,-0.1582207530899703
2024-04-03,-0.18035404491223733
2024-04-08,-0.04222207922704119
2024-04-09,0.003613661254587614
2024-04-10,0.0462679189322804
2024-04-11,0.04090710658732185
2024-04-12,0.1000271274153802
2024-04-15,0.017000949612960614
2024-04-16,0.08739716299251489
2024-04-17,-0.2027411332179927
2024-04-18,0.15371563899362817
2024-04-19,0.1979079684246888
2024-04-22,0.06410646986699972
2024-04-23,-0.1815830381066279
2024-04-24,0.23121616937530437
2024-04-25,-0.17176842360375075
2024-04-26,-0.33956623597719165
2024-04-29,0.020306314324711257
2024-04-30,0.029295101770948108
2024-05-06,-0.10966359001022474
2024-05-07,0.08314700201211725
2024-05-08,0.1493328563753787
2024-05-09,-0.18039962804200765
2024-05-10,0.09305337156599533
2024-05-13,0.11691870441870414
2024-05-14,-0.02739284724285954
2024-05-15,-0.041987850449009434
2024-05-16,0.1494185741776629
2024-05-17,-0.06496166991923799
2024-05-20,0.015351436341999106
2024-05-21,0.08498768010204179
2024-05-22,0.16168593349847776
2024-05-23,-0.07023881726401666
2024-05-24,0.056324632623074786
2024-05-27,-0.19011893375605965
2024-05-28,-0.10586566291389526
2024-05-29,-0.20312545360519568
2024-05-30,0.030366408970555397
2024-05-31,-0.002536844458957282
2024-06-03,0.17861903162757084
2024-06-04,-0.017860771293714592
2024-06-05,0.17633088203587294
2024-06-06,-0.06511627906977337
2024-06-07,-0.049148408375943996
2024-06-11,-0.31206425200744853
2024-06-12,0.1303872459014441
2024-06-13,-0.0684765022673528
2024-06-14,0.08797342192691145
2024-06-17,-0.020602295783657364
2024-06-18,0.22357376661568865
2024-06-19,-0.09576107230157704
2024-06-20,-0.22535803104365434
2024-06-21,-0.0413188061308043
2024-06-24,0.08604941212952072
2024-06-25,0.10597910941654096
2024-06-26,0.0014250619017917888
2024-06-27,0.25448828300008297
2024-06-28,0.23688662612656008
2024-07-01,-0.056522228589523375
2024-07-02,-0.21996672870518402
2024-07-03,-0.04917587224253033
2024-07-04,-0.13294716402468418
2024-07-05,-0.27458720934275765
2024-07-08,0.05725660149163205
2024-07-09,0.23030487199116828
2024-07-10,0.11236802413272809
2024-07-11,0.1305656091175083
2024-07-12,0.0249901766644242
2024-07-15,-0.10419604965059594
2024-07-16,-0.2577435060730862
2024-07-17,-0.15946378551420656
2024-07-18,-0.16190200527949045
2024-07-19,-0.12029079581168273
2024-07-22,0.13667003556236884
2024-07-23,0.14884180428733038
2024-07-24,0.2999682290765533
2024-07-25,0.17515171719701642
2024-07-26,0.3475412970096702
2024-07-29,-0.11564022354894804
2024-07-30,-0.023315702671238985
2024-07-31,-0.08396729878990954
2024-08-01,-0.010283976242316112
2024-08-02,-0.3293317326930797
2024-08-05,0.17538940102629247
2024-08-06,0.09549619506134613
2024-08-07,-0.28006936702588225
2024-08-08,-0.20826551964659284
2024-08-09,0.2892595415701322
2024-08-12,-0.2559130620072445
2024-08-13,-0.1569901113864149
2024-08-14,0.16447259185463542
2024-08-15,0.27091698080126014
2024-08-16,-0.2228667053658794
2024-08-19,0.1672531436427141
2024-08-20,0.09525677943915913
2024-08-21,-0.016882496275122748
2024-08-22,0.02543689077318126
2024-08-23,0.055425384065501765
2024-08-26,-0.0011058822774567545
2024-08-27,-0.05460164685097642
2024-08-28,-0.023951884984788667
2024-08-29,-0.3508863883934905
2024-08-30,0.0013848297944918549
2024-09-02,-0.1739498604048352
2024-09-03,-0.08709158376794546
2024-09-04,0.3191594956300872
2024-09-05,0.30508917758450166
2024-09-06,-0.02076638972984893
2024-09-09,0.24444838986493225
2024-09-10,0.5070720502901251
2024-09-11,-0.18605708859692316
2024-09-12,-0.043082762115085924
2024-09-13,0.08257102695104059
2024-09-18,0.05302555318487864
2024-09-19,-0.4663451622393098
2024-09-20,-0.18009460406200156
2024-09-23,-0.06477784214939428
2024-09-24,-0.0007734685398222974
2024-09-25,-0.2466088423564035
2024-09-26,0.052041322874796084
2024-09-27,0.07776206938287078
2024-09-30,0.1815906875061173
2024-10-08,-0.039415767078134024
2024-10-09,-0.0590377411127002
2024-10-10,-0.042148047578789864
2024-10-11,0.03044531257249688
2024-10-14,-0.40202978401810907
2024-10-15,-0.06941639001637634
2024-10-16,0.15218113882266315
2024-10-17,0.02589516660337643
2024-10-18,-0.10420332612895442
2024-10-21,0.13137376093778466
2024-10-22,-0.014054363001875826
2024-10-23,-0.0854478822642433
2024-10-24,0.0423786266661407
2024-10-25,0.07083054474888538
2024-10-28,0.1450727036452862
2024-10-29,0.21306206525632831
2024-10-30,0.16352123255502035
2024-10-31,-0.01350174822343957
2024-11-01,0.0009487483637067445
2024-11-04,-0.08062062216600854
2024-11-05,-0.35737267880124696
2024-11-06,0.10639644488682656
2024-11-07,0.1365069020919395
2024-11-08,0.08711113221642089
2024-11-11,-0.008616763616034057
2024-11-12,0.20205920205920386
2024-11-13,-0.4121440722541044
2024-11-14,-0.2419246449531834
2024-11-15,-0.17380298886744075
2024-11-18,0.09556556062661196
2024-11-19,0.1911998157134312
2024-11-20,0.17912521847959847
2024-11-21,0.017637194350913682
2024-11-22,0.08256451575116153
2024-11-25,-0.08128029795834332
2024-11-26,-0.21417198323447525
2024-11-27,0.09637241047056261
2024-11-28,0.13863532945319249
2024-11-29,0.12239438742403981
2024-12-02,0.1339147670833012
2024-12-03,-0.056760535162476304
2024-12-04,-0.0781335022495998
2024-12-05,0.02415833126143075
2024-12-06,-0.08122266998199709
2024-12-09,-0.2592145916453016
2024-12-10,0.1205801082996063
2024-12-11,0.030577282678101413
2024-12-12,-0.15835568836519626
2024-12-13,-0.14112149532710022
2024-12-16,0.045020380259529175
2024-12-17,-0.09257274440025406
2024-12-18,-0.11478200891434658
2024-12-19,0.07442664625347138
2024-12-20,0.4186575813910561
2024-12-23,0.22143879964651347
2024-12-24,0.1282751778240948
2024-12-25,0.14325528722456457
2024-12-26,0.005346713867780689
2024-12-27,-0.341040188101109
2024-12-30,-0.05095343755097745
2024-12-31,-0.12521116104590221
