date,FCT_Demark_Atr_Dfive
2013-03-22,
2013-03-25,
2013-03-26,
2013-03-27,
2013-03-28,
2013-03-29,
2013-04-01,
2013-04-02,
2013-04-03,
2013-04-08,0.37833888398015275
2013-04-09,0.4999999999999967
2013-04-10,0.23636363636363428
2013-04-11,0.016949152542368805
2013-04-12,0.016393442622946817
2013-04-15,0.07692307692308255
2013-04-16,0.2631578947368419
2013-04-17,0.6896551724137902
2013-04-18,0.967213114754095
2013-04-19,1.0
2013-04-22,0.8115942028985471
2013-04-23,0.7187500000000042
2013-04-24,0.4117647058823648
2013-04-25,0.03174603174603533
2013-04-26,3.87748963008888e-15
2013-05-02,0.05882352941176974
2013-05-03,0.05357142857143243
2013-05-06,0.05084745762712173
2013-05-07,0.2647058823529424
2013-05-08,0.24999999999999659
2013-05-09,0.142857142857142
2013-05-10,0.2352941176470641
2013-05-13,0.7608695652173977
2013-05-14,0.7659574468085157
2013-05-15,0.8615384615384651
2013-05-16,1.0
2013-05-17,1.0
2013-05-20,0.658536585365847
2013-05-21,0.5949367088607519
2013-05-22,0.3417721518987243
2013-05-23,0.09722222222221745
2013-05-24,0.0
2013-05-27,0.040816326530607176
2013-05-28,0.03773584905659944
2013-05-29,0.18421052631579182
2013-05-30,0.2333333333333371
2013-05-31,0.5517241379310388
2013-06-03,0.6060606060606186
2013-06-04,0.8000000000000057
2013-06-05,0.5172413793103608
2013-06-06,0.8200000000000084
2013-06-07,0.7804878048780588
2013-06-13,0.6666666666666704
2013-06-14,0.6976744186046551
2013-06-17,0.9183673469387726
2013-06-18,0.35849056603773527
2013-06-19,0.3333333333333327
2013-06-20,0.4769230769230796
2013-06-21,0.5211267605633819
2013-06-24,0.3548387096774213
2013-06-25,0.7435897435897431
2013-06-26,0.8333333333333313
2013-06-27,0.43902439024389583
2013-06-28,0.16666666666666494
2013-07-01,0.17777777777777673
2013-07-02,0.12049734869262614
2013-07-03,0.08720738542696752
2013-07-04,0.35517007461963146
2013-07-05,0.5641933497536972
2013-07-08,0.5936183997408466
2013-07-09,0.3800845604315508
2013-07-10,0.790772451955439
2013-07-11,0.7621152865159061
2013-07-12,0.8358197821870826
2013-07-15,0.8333333333333397
2013-07-16,0.918367346938779
2013-07-17,0.35135135135135187
2013-07-18,0.19565217391304437
2013-07-19,0.0
2013-07-22,0.07499999999999396
2013-07-23,0.0714285714285662
2013-07-24,0.11999999999999096
2013-07-25,0.23076923076921285
2013-07-26,0.21428571428569995
2013-07-29,0.0
2013-07-30,0.2941176470588036
2013-07-31,0.1999999999999893
2013-08-01,0.20833333333333107
2013-08-02,0.20833333333333212
2013-08-05,0.22727272727272788
2013-08-06,1.2348792275744997e-14
2013-08-07,0.18181818181821124
2013-08-08,0.6666666666666815
2013-08-09,0.8666666666666742
2013-08-12,0.9482758620689695
2013-08-13,1.0
2013-08-14,1.0
2013-08-15,1.0
2013-08-16,1.0
2013-08-19,1.0
2013-08-20,0.9583333333333353
2013-08-21,0.5000000000000023
2013-08-22,0.33333333333333814
2013-08-23,0.1891891891891938
2013-08-26,0.0
2013-08-27,0.0
2013-08-28,0.48484848484847987
2013-08-29,0.6065573770491769
2013-08-30,0.6271186440677872
2013-09-02,0.7037037037036964
2013-09-03,0.8888888888888797
2013-09-04,0.3404255319148969
2013-09-05,0.2340425531914925
2013-09-06,0.3181818181818317
2013-09-09,0.2131147540983708
2013-09-10,0.05000000000000681
2013-09-11,0.06521739130435544
2013-09-12,0.06521739130435475
2013-09-13,0.0
2013-09-16,0.11904761904761285
2013-09-17,0.2631578947368255
2013-09-18,0.5952380952380839
2013-09-23,0.7391304347826038
2013-09-24,1.0
2013-09-25,0.9487179487179557
2013-09-26,0.6530612244898061
2013-09-27,0.4358974358974455
2013-09-30,0.24242424242424948
2013-10-08,0.3243243243243355
2013-10-09,0.3428571428571497
2013-10-10,0.7333333333333317
2013-10-11,0.846153846153841
2013-10-14,0.9599999999999913
2013-10-15,0.923076923076888
2013-10-16,0.8
2013-10-17,0.1666666666666701
2013-10-18,0.10000000000000124
2013-10-21,0.0
2013-10-22,0.0
2013-10-23,0.30612244897959534
2013-10-24,0.4807692307692285
2013-10-25,0.6538461538461474
2013-10-28,0.5762711864406744
2013-10-29,0.8333333333333315
2013-10-30,0.5454545454545348
2013-10-31,0.39215686274508804
2013-11-01,0.21568627450980063
2013-11-04,0.3260869565217313
2013-11-05,0.0909841845471878
2013-11-06,0.180076976694833
2013-11-07,0.3369622074015778
2013-11-08,0.7083321324610091
2013-11-11,0.5336081925787972
2013-11-12,0.632141169056251
2013-11-13,0.5939631542041257
2013-11-14,0.4272583011467467
2013-11-15,0.0
2013-11-18,0.0
2013-11-19,0.0
2013-11-20,0.13043478260869573
2013-11-21,0.3000000000000002
2013-11-22,0.5
2013-11-25,0.6923076923076922
2013-11-26,0.5624999999999952
2013-11-27,0.5624999999999989
2013-11-28,0.4615384615384676
2013-11-29,0.6000000000000103
2013-12-02,0.27272727272729014
2013-12-03,0.4444444444444749
2013-12-04,0.3750000000000157
2013-12-05,0.2142857142857139
2013-12-06,0.6153846153846124
2013-12-09,0.7857142857142821
2013-12-10,0.656249999999996
2013-12-11,0.4871794871794872
2013-12-12,0.6410256410256444
2013-12-13,0.6888888888888927
2013-12-16,0.5555555555555598
2013-12-17,0.6511627906976796
2013-12-18,0.8333333333333358
2013-12-19,0.8285714285714312
2013-12-20,0.3571428571428677
2013-12-23,0.5200000000000101
2013-12-24,0.5555555555555605
2013-12-25,0.612903225806456
2013-12-26,0.37837837837837845
2013-12-27,0.38888888888888334
2013-12-30,0.42105263157893963
2013-12-31,0.4499999999999942
2014-01-02,0.3243243243243151
2014-01-03,0.5624999999999887
2014-01-06,0.7826086956521742
2014-01-07,0.8000000000000033
2014-01-08,0.5000000000000099
2014-01-09,0.705882352941189
2014-01-10,0.56250000000001
2014-01-13,0.6000000000000052
2014-01-14,0.3548387096774221
2014-01-15,0.4583333333333338
2014-01-16,0.0
2014-01-17,0.0
2014-01-20,0.619047619047617
2014-01-21,0.7027027027027003
2014-01-22,0.7727272727272705
2014-01-23,0.7555555555555558
2014-01-24,0.8245614035087722
2014-01-27,0.36206896551724055
2014-01-28,0.5466666666666657
2014-01-29,0.4925373134328349
2014-01-30,0.5076923076923078
2014-02-07,0.38461538461538614
2014-02-10,0.8484848484848533
2014-02-11,0.250000000000007
2014-02-12,0.2162162162162224
2014-02-13,0.3333333333333381
2014-02-14,0.23076923076923278
2014-02-17,0.2727272727272728
2014-02-18,0.41666666666666524
2014-02-19,0.4838709677419315
2014-02-20,0.4074074074074015
2014-02-21,0.9999999999999698
2014-02-24,0.3999999999999585
2014-02-25,0.49999999999996725
2014-02-26,0.4285714285714127
2014-02-27,0.27272727272726915
2014-02-28,0.4285714285714196
2014-03-03,0.22222222222221855
2014-03-04,0.5882352941176461
2014-03-05,0.6153846153846144
2014-03-06,0.7419354838709672
2014-03-07,0.7922077922077925
2014-03-10,0.9682539682539685
2014-03-11,0.9591836734693882
2014-03-12,0.9696969696969701
2014-03-13,0.7692307692307707
2014-03-14,0.5755347142568007
2014-03-17,0.637299021782767
2014-03-18,0.33689995622781177
2014-03-19,0.07074143957437715
2014-03-20,0.3641802278802981
2014-03-21,0.3543755524687453
2014-03-24,0.34368421052631354
2014-03-25,0.5828142371952028
2014-03-26,0.8475847473359788
2014-03-27,0.5399999999999965
2014-03-28,0.7111111111111108
2014-03-31,0.6976744186046515
2014-04-01,0.34042553191489455
2014-04-02,0.16666666666666857
2014-04-03,0.5217391304347857
2014-04-04,0.4883720930232602
2014-04-08,0.5600000000000046
2014-04-09,0.8750000000000003
2014-04-10,0.9999999999999966
2014-04-11,0.37735849056603865
2014-04-14,0.3529411764705866
2014-04-15,0.17647058823529188
2014-04-16,0.2881355932203381
2014-04-17,0.1290322580645166
2014-04-18,0.6379310344827563
2014-04-21,0.513888888888889
2014-04-22,0.5211267605633814
2014-04-23,0.5405405405405416
2014-04-24,0.6666666666666686
2014-04-25,0.23809523809523914
2014-04-28,0.37037037037036963
2014-04-29,0.4583333333333318
2014-04-30,0.20370370370370175
2014-05-05,0.24561403508771748
2014-05-06,0.45161290322580633
2014-05-07,0.4687500000000024
2014-05-08,0.4193548387096799
2014-05-09,0.9333333333333338
2014-05-12,0.9166666666666676
2014-05-13,0.9411764705882346
2014-05-14,0.526315789473684
2014-05-15,0.6363636363636366
2014-05-16,0.703703703703701
2014-05-19,0.49999999999999545
2014-05-20,0.3333333333333319
2014-05-21,0.5714285714285741
2014-05-22,0.6470588235294128
2014-05-23,0.37209302325581517
2014-05-26,0.5555555555555571
2014-05-27,0.625
2014-05-28,0.51351351351351
2014-05-29,0.21428571428571344
2014-05-30,0.29999999999999977
2014-06-03,0.0
2014-06-04,0.05555555555555184
2014-06-05,0.08823529411764365
2014-06-06,0.1249999999999963
2014-06-09,0.24999999999999695
2014-06-10,0.33333333333333315
2014-06-11,0.2105263157894781
2014-06-12,0.11111111111111321
2014-06-13,0.32142857142857584
2014-06-16,0.3870967741935534
2014-06-17,0.6250000000000052
2014-06-18,0.6250000000000026
2014-06-19,0.8928571428571427
2014-06-20,0.9117647058823525
2014-06-23,0.781249999999999
2014-06-24,0.45945945945945743
2014-06-25,0.527777777777776
2014-06-26,0.41176470588235076
2014-06-27,0.06060606060606072
2014-06-30,0.058823529411764816
2014-07-01,0.1739130434782608
2014-07-02,0.24000000000000007
2014-07-03,0.3333333333333332
2014-07-04,0.6153846153846153
2014-07-07,1.0
2014-07-08,1.0
2014-07-09,0.8947368421052563
2014-07-10,0.7894736842105192
2014-07-11,0.8333333333333287
2014-07-14,0.6666666666666631
2014-07-15,0.238095238095243
2014-07-16,0.2380952380952461
2014-07-17,0.22727272727273481
2014-07-18,0.0
2014-07-21,0.0
2014-07-22,0.0
2014-07-23,0.09999999999999613
2014-07-24,0.09712722298221252
2014-07-25,0.08442330558858444
2014-07-28,0.4600280504908859
2014-07-29,0.49923896499239784
2014-07-30,0.39447066756575055
2014-07-31,0.6557801969932657
2014-08-01,0.6746666666666666
2014-08-04,0.6257668711656417
2014-08-05,0.7377938517178988
2014-08-06,0.8333333333333309
2014-08-07,0.6521739130434724
2014-08-08,0.8846153846153811
2014-08-11,0.5
2014-08-12,0.24999999999999992
2014-08-13,0.30769230769230693
2014-08-14,0.47826086956521924
2014-08-15,0.5555555555555572
2014-08-18,0.7954545454545456
2014-08-19,1.0
2014-08-20,1.0
2014-08-21,0.625000000000001
2014-08-22,0.20930232558139708
2014-08-25,0.09756097560976087
2014-08-26,0.024390243902441884
2014-08-27,0.11111111111110938
2014-08-28,0.16129032258064221
2014-08-29,0.31249999999999734
2014-09-01,0.3333333333333241
2014-09-02,0.7083333333333286
2014-09-03,0.46153846153846
2014-09-04,0.6486486486486491
2014-09-05,0.7804878048780471
2014-09-09,0.8478260869565221
2014-09-10,0.7500000000000011
2014-09-11,0.7500000000000038
2014-09-12,0.4285714285714315
2014-09-15,0.24137931034483015
2014-09-16,0.043478260869565216
2014-09-17,0.03448275862068937
2014-09-18,0.12499999999999813
2014-09-19,0.41176470588234615
2014-09-22,0.7575757575757532
2014-09-23,0.7948717948717914
2014-09-24,0.9117647058823538
2014-09-25,0.934782608695653
2014-09-26,0.9361702127659585
2014-09-29,0.5098039215686301
2014-09-30,0.33928571428571586
2014-10-08,0.44262295081967323
2014-10-09,0.44262295081967185
2014-10-10,0.3606557377049168
2014-10-13,0.6792452830188651
2014-10-14,0.8571428571428558
2014-10-15,0.7777777777777762
2014-10-16,0.2916666666666654
2014-10-17,0.4081632653061224
2014-10-20,0.12244897959183745
2014-10-21,0.14285714285714315
2014-10-22,0.14285714285714318
2014-10-23,0.2592592592592603
2014-10-24,0.0370370370370365
2014-10-27,0.0769230769230766
2014-10-28,0.0
2014-10-29,0.0
2014-10-30,0.3157894736842082
2014-10-31,0.3999999999999963
2014-11-03,0.5263157894736804
2014-11-04,0.7333333333333265
2014-11-05,0.8823529411764715
2014-11-06,0.6923076923076955
2014-11-07,0.64285714285714
2014-11-10,0.3846153846153911
2014-11-11,0.4285714285714344
2014-11-12,0.11764705882352851
2014-11-13,0.12499999999999897
2014-11-14,0.13333333333333217
2014-11-17,0.14285714285713874
2014-11-18,0.3684210526315755
2014-11-19,0.5873414954088235
2014-11-20,0.5072696374622289
2014-11-21,0.6962823452341937
2014-11-24,0.8322654462242574
2014-11-25,0.6685680332739123
2014-11-26,0.6932805454745359
2014-11-27,0.9633221434787976
2014-11-28,0.9544612534732893
2014-12-01,0.9646198129047697
2014-12-02,1.0
2014-12-03,1.0
2014-12-04,0.84615384615385
2014-12-05,0.6875000000000095
2014-12-08,0.15000000000000846
2014-12-09,0.0909090909090963
2014-12-10,0.0
2014-12-11,0.0
2014-12-12,0.19047619047618763
2014-12-15,0.5833333333333253
2014-12-16,0.4666666666666649
2014-12-17,0.4666666666666689
2014-12-18,0.33333333333333776
2014-12-19,0.1500000000000031
2014-12-22,0.5142857142857155
2014-12-23,0.7105263157894753
2014-12-24,0.8245614035087717
2014-12-25,0.9411764705882338
2014-12-26,1.0
2014-12-29,0.6599999999999995
2014-12-30,0.6730769230769218
2014-12-31,0.3658536585365822
2015-01-05,0.4799999999999985
2015-01-06,0.5999999999999995
2015-01-07,0.7499999999999966
2015-01-08,0.4912280701754368
2015-01-09,0.4745762711864402
2015-01-12,0.3396226415094335
2015-01-13,0.0
2015-01-14,2.69177631729407e-15
2015-01-15,0.027027027027032562
2015-01-16,0.0370370370370446
2015-01-19,0.08333333333334429
2015-01-20,0.4000000000000383
2015-01-21,0.2500000000000126
2015-01-22,0.10000000000000533
2015-01-23,0.09090909090909527
2015-01-26,0.0
2015-01-27,0.2857142857142847
2015-01-28,0.33333333333333326
2015-01-29,0.3333333333333358
2015-01-30,0.3333333333333358
2015-02-02,0.5
2015-02-03,0.0
2015-02-04,0.21428571428571144
2015-02-05,0.3333333333333335
2015-02-06,0.5714285714285673
2015-02-09,0.7222222222222217
2015-02-10,1.0
2015-02-11,0.6250000000000022
2015-02-12,0.4999999999999961
2015-02-13,0.40000000000000185
2015-02-16,0.058823529411768695
2015-02-17,0.23809523809523553
2015-02-25,0.5454545454545392
2015-02-26,0.7199999999999964
2015-02-27,0.7199999999999964
2015-03-02,1.0
2015-03-03,0.7000000000000022
2015-03-04,0.46666666666667406
2015-03-05,0.5294117647058881
2015-03-06,0.400000000000004
2015-03-09,0.5555555555555568
2015-03-10,0.7777777777777785
2015-03-11,0.8076923076923062
2015-03-12,0.4193548387096787
2015-03-13,0.46428571428571674
2015-03-16,0.22222222222222168
2015-03-17,0.0
2015-03-18,0.12000000000000248
2015-03-19,0.3999999999999983
2015-03-20,0.4285714285714245
2015-03-23,0.8000000000000028
2015-03-24,0.8888888888888978
2015-03-25,0.9166666666666727
2015-03-26,0.9333333333333385
2015-03-27,0.9629629629629658
2015-03-30,0.9599999999999974
2015-03-31,0.9999999999999944
2015-04-01,0.7383714382250248
2015-04-02,0.6071669136467709
2015-04-03,0.06452630748599714
2015-04-07,0.05588958731893928
2015-04-08,0.09175759169186583
2015-04-09,0.11025114515874523
2015-04-10,0.12164517253398724
2015-04-13,0.6912470480688657
2015-04-14,0.8124999999999952
2015-04-15,0.6470588235294086
2015-04-16,0.8333333333333347
2015-04-17,0.7142857142857162
2015-04-20,0.4782608695652197
2015-04-21,0.5
2015-04-22,0.7931034482758628
2015-04-23,0.6249999999999999
2015-04-24,0.9142857142857149
2015-04-27,0.9062500000000008
2015-04-28,0.9375000000000009
2015-04-29,0.9361702127659581
2015-04-30,1.0
2015-05-04,1.0
2015-05-05,1.0
2015-05-06,0.7714285714285695
2015-05-07,0.4146341463414621
2015-05-08,0.661971830985916
2015-05-11,0.3690476190476216
2015-05-12,0.3061224489795928
2015-05-13,0.3092783505154646
2015-05-14,0.46875000000000056
2015-05-15,0.1485148514851487
2015-05-18,0.18750000000000003
2015-05-19,0.1785714285714284
2015-05-20,0.22499999999999934
2015-05-21,0.03999999999999925
2015-05-22,0.24489795918366983
2015-05-25,0.27906976744185574
2015-05-26,0.6666666666666642
2015-05-27,0.599999999999997
2015-05-28,0.583333333333332
2015-05-29,0.5
2015-06-01,0.6750000000000014
2015-06-02,0.44117647058823733
2015-06-03,0.4545454545454552
2015-06-04,0.7878787878787857
2015-06-05,0.774193548387096
2015-06-08,0.3870967741935514
2015-06-09,0.42857142857142716
2015-06-10,0.6341463414634162
2015-06-11,0.36585365853659046
2015-06-12,0.2857142857142874
2015-06-15,0.41025641025641046
2015-06-16,0.5000000000000034
2015-06-17,0.4444444444444509
2015-06-18,0.6538461538461591
2015-06-19,1.0
2015-06-23,0.9473684210526252
2015-06-24,0.9411764705882283
2015-06-25,0.2400000000000014
2015-06-26,0.17857142857142344
2015-06-29,0.057142857142857384
2015-06-30,0.43859649122806565
2015-07-01,0.49206349206348654
2015-07-02,0.6458333333333317
2015-07-03,0.7868852459016433
2015-07-06,0.9655172413793139
2015-07-07,0.9545454545454594
2015-07-08,0.9659090909090945
2015-07-09,1.0
2015-07-10,1.0
2015-07-13,0.8554913294797672
2015-07-14,0.8439306358381485
2015-07-15,0.659090909090908
2015-07-16,0.04733727810651005
2015-07-17,0.0
2015-07-20,0.060975609756097504
2015-07-21,0.1005917159763302
2015-07-22,0.1736111111111094
2015-07-23,0.4901960784313657
2015-07-24,0.6944444444444389
2015-07-27,0.46874999999999867
2015-07-28,0.17391304347826106
2015-07-29,0.04999999999999518
2015-07-30,0.40000000000000424
2015-07-31,0.4166666666666719
2015-08-03,0.41666666666666713
2015-08-04,0.7586206896551728
2015-08-05,0.44444444444444947
2015-08-06,0.040000000000003526
2015-08-07,0.14545454545455064
2015-08-10,0.15094339622642136
2015-08-11,0.2146342182456086
2015-08-12,0.6421318944575695
2015-08-13,0.9389509777382493
2015-08-14,0.8701700972930024
2015-08-17,0.9459373034737807
2015-08-18,0.7840429020621486
2015-08-19,0.3694623366899246
2015-08-20,0.2594116784864634
2015-08-21,0.2672396771008777
2015-08-24,0.2608695652173969
2015-08-25,0.33928571428572357
2015-08-26,0.9615384615384669
2015-08-27,0.9433962264150975
2015-08-28,0.9857142857142842
2015-08-31,0.6374999999999985
2015-09-01,0.6666666666666646
2015-09-02,0.3506493506493484
2015-09-07,0.35064935064934893
2015-09-08,0.11940298507462636
2015-09-09,0.29545454545454236
2015-09-10,0.11111111111110772
2015-09-11,0.1999999999999924
2015-09-14,0.40624999999999273
2015-09-15,0.37142857142856767
2015-09-16,0.3529411764705872
2015-09-17,0.4285714285714289
2015-09-18,0.4642857142857166
2015-09-21,0.2857142857142919
2015-09-22,0.8000000000000038
2015-09-23,0.3333333333333403
2015-09-24,0.4347826086956583
2015-09-25,0.28125000000000594
2015-09-28,0.20512820512820648
2015-09-29,0.052631578947367974
2015-09-30,0.06896551724137884
2015-10-08,0.0
2015-10-09,0.4750000000000001
2015-10-12,0.7045454545454585
2015-10-13,0.7560975609756134
2015-10-14,0.8461538461538465
2015-10-15,0.916666666666663
2015-10-16,0.34999999999999803
2015-10-19,0.04651162790697386
2015-10-20,0.17021276595744644
2015-10-21,0.12500000000000225
2015-10-22,0.3492063492063505
2015-10-23,0.6603773584905693
2015-10-26,0.8333333333333368
2015-10-27,0.6904761904761937
2015-10-28,0.7727272727272727
2015-10-29,0.4
2015-10-30,0.10869565217391032
2015-11-02,0.10416666666666435
2015-11-03,0.19565217391304154
2015-11-04,0.0869565217391304
2015-11-05,0.19354838709677083
2015-11-06,0.5217391304347772
2015-11-09,0.7058823529411561
2015-11-10,0.4705882352940919
2015-11-11,0.4444444444444238
2015-11-12,0.3529411764705699
2015-11-13,0.388888888888875
2015-11-16,0.49999999999999406
2015-11-17,0.708333333333334
2015-11-18,0.9655172413793065
2015-11-19,1.0
2015-11-20,1.0
2015-11-23,1.0
2015-11-24,1.0
2015-11-25,1.0
2015-11-26,1.0
2015-11-27,1.0
2015-11-30,1.0
2015-12-01,0.8531736264938288
2015-12-02,0.4863173525668159
2015-12-03,0.3361722956436578
2015-12-04,0.3131947433722415
2015-12-07,0.08015625218767118
2015-12-08,0.08064516129032372
2015-12-09,0.19607843137255568
2015-12-10,0.3333333333333457
2015-12-11,0.10638297872341138
2015-12-14,0.20000000000001
2015-12-15,0.3030303030303136
2015-12-16,0.09259259259259414
2015-12-17,0.09433962264151083
2015-12-18,0.42222222222221867
2015-12-21,0.37209302325580984
2015-12-22,0.3571428571428547
2015-12-23,0.9545454545454587
2015-12-24,0.9545454545454587
2015-12-25,0.2500000000000039
2015-12-28,0.2000000000000013
2015-12-29,0.4166666666666646
2015-12-30,0.48148148148148173
2015-12-31,0.5882352941176465
2016-01-04,0.8805970149253709
2016-01-05,0.9833333333333351
2016-01-06,0.7894736842105275
2016-01-07,0.6111111111111082
2016-01-08,0.3877551020408142
2016-01-11,0.0
2016-01-12,0.33333333333333215
2016-01-13,0.5
2016-01-14,0.6206896551724166
2016-01-15,0.7200000000000057
2016-01-18,0.9830508474576293
2016-01-19,0.7400000000000001
2016-01-20,0.5192307692307669
2016-01-21,0.3928571428571398
2016-01-22,0.5217391304347784
2016-01-25,0.19999999999999807
2016-01-26,0.24137931034482574
2016-01-27,0.3469387755102038
2016-01-28,0.4772727272727275
2016-01-29,0.15555555555555767
2016-02-01,0.34782608695652956
2016-02-02,0.2222222222222283
2016-02-03,0.11111111111111352
2016-02-04,0.021276595744683095
2016-02-05,0.02941176470588534
2016-02-15,0.232558139534883
2016-02-16,0.555555555555554
2016-02-17,0.8095238095238104
2016-02-18,0.9487179487179492
2016-02-19,1.0
2016-02-22,1.0
2016-02-23,1.0
2016-02-24,1.0
2016-02-25,1.0
2016-02-26,1.0
2016-02-29,0.619047619047619
2016-03-01,0.5238095238095263
2016-03-02,0.2926829268292715
2016-03-03,0.14705882352941388
2016-03-04,0.19444444444444123
2016-03-07,0.5517241379310324
2016-03-08,0.9010989010989006
2016-03-09,1.0
2016-03-10,1.0
2016-03-11,0.9999999999999983
2016-03-14,0.9999999999999983
2016-03-15,0.455882352941177
2016-03-16,0.3309352517985615
2016-03-17,0.11504424778760886
2016-03-18,0.13793103448275773
2016-03-21,0.026086956521739757
2016-03-22,0.09523809523809902
2016-03-23,0.5777777777777777
2016-03-24,0.4406779661016965
2016-03-25,0.29113924050633055
2016-03-28,0.29113924050633133
2016-03-29,0.2716049382716057
2016-03-30,0.0
2016-03-31,0.0
2016-04-01,0.1926061779340083
2016-04-05,0.2751742966088285
2016-04-06,0.5330591480435372
2016-04-07,0.8236723972320756
2016-04-08,1.0
2016-04-11,1.0
2016-04-12,1.0
2016-04-13,1.0
2016-04-14,1.0
2016-04-15,1.0
2016-04-18,1.0
2016-04-19,1.0
2016-04-20,1.0
2016-04-21,1.0
2016-04-22,1.0
2016-04-25,0.9111111111111111
2016-04-26,0.9294117647058823
2016-04-27,0.853658536585367
2016-04-28,0.5792682926829272
2016-04-29,0.4496124031007751
2016-05-03,0.5931034482758618
2016-05-04,0.16969696969696932
2016-05-05,0.21874999999999858
2016-05-06,0.47712418300653503
2016-05-09,0.6099999999999999
2016-05-10,0.41777777777777747
2016-05-11,0.6418918918918914
2016-05-12,0.491620111731844
2016-05-13,0.4347826086956531
2016-05-16,0.11170212765957506
2016-05-17,0.1739130434782624
2016-05-18,0.23489932885905998
2016-05-19,0.4532374100719405
2016-05-20,0.2606060606060586
2016-05-23,0.7032258064516128
2016-05-24,0.6973684210526302
2016-05-25,0.5949367088607588
2016-05-26,0.445945945945947
2016-05-27,0.6226415094339637
2016-05-30,0.0
2016-05-31,0.0
2016-06-01,0.0
2016-06-02,0.0
2016-06-03,0.0
2016-06-06,0.13888888888888776
2016-06-07,0.25641025641025356
2016-06-08,0.26315789473683787
2016-06-13,0.6304347826086943
2016-06-14,0.8630136986301352
2016-06-15,0.6973684210526324
2016-06-16,0.6883116883116909
2016-06-17,0.7162162162162201
2016-06-20,0.41975308641975406
2016-06-21,0.0
2016-06-22,0.4070796460176986
2016-06-23,0.4144144144144133
2016-06-24,0.5038167938931291
2016-06-27,0.7067669172932323
2016-06-28,0.8468468468468487
2016-06-29,0.4285714285714299
2016-06-30,0.4678899082568816
2016-07-01,0.2520325203252029
2016-07-04,0.029126213592232005
2016-07-05,0.30468749999999867
2016-07-06,0.5227272727272724
2016-07-07,0.6146788990825695
2016-07-08,0.9191919191919206
2016-07-11,0.8504672897196245
2016-07-12,0.8048780487804864
2016-07-13,0.7108433734939739
2016-07-14,0.6521739130434755
2016-07-15,0.4038461538461548
2016-07-18,0.8351648351648367
2016-07-19,0.5118110236220478
2016-07-20,0.44827586206896586
2016-07-21,0.4482758620689668
2016-07-22,0.4452054794520552
2016-07-25,0.08620689655172531
2016-07-26,0.1388888888888903
2016-07-27,0.47826086956521846
2016-07-28,0.2804878048780497
2016-07-29,0.4333333333333334
2016-08-01,0.5
2016-08-02,0.5909090909090905
2016-08-03,0.3624999999999975
2016-08-04,0.47540983606556914
2016-08-05,0.27659574468084747
2016-08-08,0.7341772151898721
2016-08-09,0.8018867924528298
2016-08-10,0.9534883720930233
2016-08-11,0.9847328244274821
2016-08-12,0.8486842105263145
2016-08-15,0.7706422018348602
2016-08-16,0.5820862423626014
2016-08-17,0.1053240388420449
2016-08-18,0.45135678329423573
2016-08-19,0.635291191147429
2016-08-22,0.35609290298592683
2016-08-23,0.3312814707373733
2016-08-24,0.33101603647975103
2016-08-25,0.05148229186307114
2016-08-26,0.07837623661136496
2016-08-29,0.3603603603603595
2016-08-30,0.31250000000000006
2016-08-31,0.5714285714285714
2016-09-01,0.7165354330708661
2016-09-02,0.7567567567567572
2016-09-05,0.7230769230769236
2016-09-06,0.9591836734693876
2016-09-07,0.9466666666666667
2016-09-08,0.8831168831168873
2016-09-09,0.5555555555555596
2016-09-12,0.5087719298245682
2016-09-13,0.7333333333333374
2016-09-14,0.315384615384617
2016-09-19,0.3823529411764698
2016-09-20,0.5859872611464959
2016-09-21,0.4943820224719079
2016-09-22,0.46428571428571186
2016-09-23,0.8120300751879678
2016-09-26,0.7080291970802906
2016-09-27,0.37748344370860787
2016-09-28,0.45669291338582585
2016-09-29,0.35514018691588867
2016-09-30,0.0851063829787258
2016-10-10,0.15476190476190702
2016-10-11,0.5000000000000078
2016-10-12,0.5641025641025668
2016-10-13,0.19230769230769224
2016-10-14,0.7125000000000004
2016-10-17,0.7486338797814218
2016-10-18,0.8025751072961378
2016-10-19,0.8357142857142863
2016-10-20,1.0
2016-10-21,0.7469387755102048
2016-10-24,0.6652360515021444
2016-10-25,0.6517857142857139
2016-10-26,0.5937500000000003
2016-10-27,0.5714285714285762
2016-10-28,0.9148936170212753
2016-10-31,1.0
2016-11-01,1.0
2016-11-02,0.8169642857142871
2016-11-03,0.6066945606694556
2016-11-04,0.38118811881187925
2016-11-07,0.564459930313586
2016-11-08,0.6234939759036124
2016-11-09,0.8384615384615367
2016-11-10,0.9537313432835813
2016-11-11,1.0
2016-11-14,1.0
2016-11-15,1.0
2016-11-16,0.7358803986710964
2016-11-17,0.4494382022471911
2016-11-18,0.4178217821782166
2016-11-21,0.20400728597449735
2016-11-22,0.07107438016528748
2016-11-23,0.08498023715414788
2016-11-24,0.19012345679012033
2016-11-25,0.07157894736842088
2016-11-28,0.08542713567839157
2016-11-29,0.09659090909090902
2016-11-30,0.2116246746699032
2016-12-01,0.11628266129329068
2016-12-02,0.43326754153447367
2016-12-05,0.676594439294144
2016-12-06,0.8236640229266725
2016-12-07,0.8361253254606144
2016-12-08,0.6901139364938768
2016-12-09,0.5018659325157011
2016-12-12,0.4431635034873735
2016-12-13,0.46448087431694324
2016-12-14,0.24203821656051255
2016-12-15,0.36190476190476395
2016-12-16,0.2087912087912107
2016-12-19,0.0
2016-12-20,0.20338983050847229
2016-12-21,0.14754098360655635
2016-12-22,0.2781690140845081
2016-12-23,0.4926108374384239
2016-12-26,0.6393442622950837
2016-12-27,0.47430830039525934
2016-12-28,0.7836538461538464
2016-12-29,0.5128205128205113
2016-12-30,0.41949152542372686
2017-01-03,0.1647509578544032
2017-01-04,0.1972477064220154
2017-01-05,0.0
2017-01-06,0.0718562874251447
2017-01-09,0.2584269662921338
2017-01-10,0.518867924528302
2017-01-11,0.4867256637168084
2017-01-12,0.8831168831168748
2017-01-13,0.629213483146065
2017-01-16,0.7708333333333314
2017-01-17,0.8450704225352104
2017-01-18,0.8829268292682944
2017-01-19,0.8862559241706182
2017-01-20,1.0
2017-01-23,0.6250000000000003
2017-01-24,0.2987012987012996
2017-01-25,0.2898089171974523
2017-01-26,0.342182890855457
2017-02-03,0.2875399361022365
2017-02-06,0.41474654377880316
2017-02-07,0.6249999999999984
2017-02-08,0.5921052631578968
2017-02-09,0.3150684931506848
2017-02-10,0.0
2017-02-13,0.18965517241378907
2017-02-14,0.25925925925925947
2017-02-15,0.4516129032258052
2017-02-16,0.6948051948051952
2017-02-17,0.5631578947368449
2017-02-20,0.44848484848485615
2017-02-21,0.4000000000000062
2017-02-22,0.33742331288344113
2017-02-23,0.09574468085106444
2017-02-24,0.4662576687116591
2017-02-27,0.4175824175824141
2017-02-28,0.4418604651162713
2017-03-01,0.5384615384615313
2017-03-02,0.6327683615819121
2017-03-03,0.3884892086330855
2017-03-06,0.5766423357664182
2017-03-07,0.6357142857142819
2017-03-08,0.17412935323382864
2017-03-09,0.36619718309858956
2017-03-10,0.3939393939393928
2017-03-13,0.47136563876651943
2017-03-14,0.4058577405857771
2017-03-15,0.8043478260869625
2017-03-16,0.6938775510204166
2017-03-17,0.7083333333333506
2017-03-20,0.1414141414141434
2017-03-21,0.22222222222222032
2017-03-22,0.11267605633802452
2017-03-23,0.18918918918918487
2017-03-24,0.14432989690721032
2017-03-27,0.6790123456790063
2017-03-28,0.6904761904761878
2017-03-29,0.7523809523809506
2017-03-30,0.557251908396948
2017-03-31,0.7531081106888478
2017-04-05,0.5233159436207263
2017-04-06,0.442548023846324
2017-04-07,0.6297442365225556
2017-04-10,0.8698371776042588
2017-04-11,0.8672707487097701
2017-04-12,0.9567203984782501
2017-04-13,1.0
2017-04-14,0.8906733701091585
2017-04-17,0.5686274509803904
2017-04-18,0.5147058823529401
2017-04-19,0.18750000000000255
2017-04-20,0.36274509803921645
2017-04-21,0.28793774319066445
2017-04-24,0.4417670682730932
2017-04-25,0.3956043956043949
2017-04-26,0.5826446280991734
2017-04-27,0.28749999999999726
2017-04-28,0.38547486033519096
2017-05-02,0.1416309012875534
2017-05-03,0.23348017621145312
2017-05-04,0.24347826086956476
2017-05-05,0.3696969696969717
2017-05-08,0.41558441558441567
2017-05-09,1.0
2017-05-10,0.8214285714285767
2017-05-11,0.6666666666666721
2017-05-12,0.6153846153846184
2017-05-15,0.8484848484848533
2017-05-16,0.7941176470588256
2017-05-17,0.7200000000000039
2017-05-18,0.2588235294117667
2017-05-19,0.30769230769230965
2017-05-22,0.07647058823529573
2017-05-23,0.23115577889447453
2017-05-24,0.336585365853657
2017-05-25,0.6831683168316875
2017-05-26,0.4552845528455282
2017-05-31,0.8200000000000002
2017-06-01,0.6931216931216913
2017-06-02,0.5427135678391954
2017-06-05,0.5734597156398091
2017-06-06,0.6797752808988737
2017-06-07,0.06403940886699497
2017-06-08,0.06735751295336798
2017-06-09,0.14534883720930283
2017-06-12,0.06629834254143686
2017-06-13,0.05741626794258424
2017-06-14,0.5586206896551741
2017-06-15,0.6438356164383573
2017-06-16,0.5774647887323938
2017-06-19,0.7900552486187841
2017-06-20,0.9545454545454527
2017-06-21,0.7021276595744668
2017-06-22,0.6515151515151488
2017-06-23,0.6515151515151519
2017-06-26,0.2049180327868875
2017-06-27,0.08490566037735557
2017-06-28,0.2317073170731726
2017-06-29,0.5845070422535241
2017-06-30,0.6433566433566443
2017-07-03,1.0
2017-07-04,1.0
2017-07-05,0.992647058823525
2017-07-06,0.4797297297297253
2017-07-07,0.40522875816993364
2017-07-10,0.3618421052631583
2017-07-11,0.0
2017-07-12,0.0
2017-07-13,0.48837209302326284
2017-07-14,0.5737704918032844
2017-07-17,0.7540106951871698
2017-07-18,0.7704918032786859
2017-07-19,0.8975609756097527
2017-07-20,0.6722222222222182
2017-07-21,0.741228070175434
2017-07-24,0.5903614457831228
2017-07-25,0.69677419354838
2017-07-26,0.3963414634146308
2017-07-27,0.49618320610686795
2017-07-28,0.1219512195121968
2017-07-31,0.46610169491526215
2017-08-01,0.3435114503816857
2017-08-02,0.5172413793103523
2017-08-03,0.7218045112782
2017-08-04,0.6004024780018166
2017-08-07,0.44228927858178463
2017-08-08,0.7286150976633312
2017-08-09,0.8553999900715
2017-08-10,0.6820578361266743
2017-08-11,0.8669670265120722
2017-08-14,0.6800636186622537
2017-08-15,0.6260047901834048
2017-08-16,0.3629365923743536
2017-08-17,0.599378881987578
2017-08-18,0.35238095238095196
2017-08-21,0.5900621118012412
2017-08-22,0.5
2017-08-23,0.6453488372093027
2017-08-24,0.3696969696969691
2017-08-25,0.5397923875432519
2017-08-28,0.32352941176470523
2017-08-29,0.6262295081967197
2017-08-30,0.5085910652920946
2017-08-31,0.7259615384615382
2017-09-01,0.6428571428571432
2017-09-04,0.8246445497630337
2017-09-05,0.31746031746031744
2017-09-06,0.42857142857142827
2017-09-07,0.5192307692307698
2017-09-08,0.5779816513761475
2017-09-11,0.34500000000000136
2017-09-12,0.5307692307692303
2017-09-13,0.4000000000000018
2017-09-14,0.12765957446808673
2017-09-15,0.35263157894737085
2017-09-18,0.325242718446602
2017-09-19,0.3401015228426393
2017-09-20,0.5089285714285672
2017-09-21,0.7854889589905318
2017-09-22,0.5098039215686236
2017-09-25,0.6703296703296694
2017-09-26,0.7092391304347828
2017-09-27,0.5602094240837723
2017-09-28,0.2468750000000038
2017-09-29,0.399103139013456
2017-10-09,0.15340909090908847
2017-10-10,0.050761421319793866
2017-10-11,0.23636363636363267
2017-10-12,0.4105263157894735
2017-10-13,0.5789473684210583
2017-10-16,0.5384615384615424
2017-10-17,0.819354838709681
2017-10-18,0.5764705882352975
2017-10-19,0.5474860335195529
2017-10-20,0.3289473684210528
2017-10-23,0.37037037037037185
2017-10-24,0.0
2017-10-25,0.13559322033898674
2017-10-26,0.05633802816901544
2017-10-27,0.04968944099379016
2017-10-30,0.03940886699507495
2017-10-31,0.0402010050251266
2017-11-01,0.0
2017-11-02,0.47540983606557313
2017-11-03,0.5117647058823487
2017-11-06,0.7608695652173815
2017-11-07,0.6481481481481418
2017-11-08,0.5769230769230762
2017-11-09,0.1782178217821768
2017-11-10,0.4814814814814817
2017-11-13,0.31775700934579476
2017-11-14,0.39534883720930647
2017-11-15,0.807228915662652
2017-11-16,0.565400843881858
2017-11-17,0.42016806722689154
2017-11-20,0.5101214574898794
2017-11-21,0.5519999999999997
2017-11-22,0.286624203821655
2017-11-23,0.7033898305084751
2017-11-24,1.0
2017-11-27,0.8461538461538497
2017-11-28,0.8580645161290349
2017-11-29,0.4790874524714849
2017-11-30,0.4541832669322725
2017-12-01,0.2100610589629097
2017-12-04,0.3893772479772355
2017-12-05,0.35002611342994794
2017-12-06,0.7104196246111935
2017-12-07,0.8127639138919361
2017-12-08,1.0
2017-12-11,1.0
2017-12-12,1.0
2017-12-13,0.9060821032993394
2017-12-14,0.3776824034334802
2017-12-15,0.16666666666667024
2017-12-18,0.1787439613526543
2017-12-19,0.0448430493273503
2017-12-20,0.09047619047618481
2017-12-21,0.20879120879119456
2017-12-22,0.22093023255812622
2017-12-25,0.302083333333332
2017-12-26,0.41428571428571237
2017-12-27,0.613207547169813
2017-12-28,0.45774647887324454
2017-12-29,0.6122448979591842
2018-01-02,0.2991452991452988
2018-01-03,0.36363636363636287
2018-01-04,0.17488789237667834
2018-01-05,0.2727272727272702
2018-01-08,0.1584699453551916
2018-01-09,0.2685185185185187
2018-01-10,0.15789473684210656
2018-01-11,0.22727272727272713
2018-01-12,0.0
2018-01-15,0.0
2018-01-16,0.7637795275590509
2018-01-17,0.7404580152671778
2018-01-18,0.7080291970802999
2018-01-19,0.6178343949044637
2018-01-22,0.752941176470594
2018-01-23,0.23308270676692033
2018-01-24,0.21678321678321888
2018-01-25,0.3987730061349688
2018-01-26,0.44217687074830037
2018-01-29,0.24817518248174877
2018-01-30,0.3148148148148115
2018-01-31,0.5163934426229447
2018-02-01,0.2180451127819515
2018-02-02,0.42941176470587794
2018-02-05,0.5706214689265543
2018-02-06,0.7133757961783456
2018-02-07,0.5286624203821698
2018-02-08,0.7433628318584102
2018-02-09,0.5405405405405507
2018-02-12,0.11650485436893242
2018-02-13,0.009009009009004837
2018-02-14,0.011111111111105885
2018-02-22,0.3776223776223787
2018-02-23,0.32727272727272505
2018-02-26,0.5999999999999941
2018-02-27,0.740740740740733
2018-02-28,0.7954545454545396
2018-03-01,0.40157480314960275
2018-03-02,0.44736842105263186
2018-03-05,0.23300970873786278
2018-03-06,0.09195402298850659
2018-03-07,0.3875968992248101
2018-03-08,0.7087378640776706
2018-03-09,0.8730158730158727
2018-03-12,1.0
2018-03-13,0.8999999999999968
2018-03-14,0.8760330578512355
2018-03-15,0.7685185185185196
2018-03-16,0.4035087719298259
2018-03-19,0.3523809523809512
2018-03-20,0.5954198473282452
2018-03-21,0.3703703703703696
2018-03-22,0.42499999999999827
2018-03-23,0.7966804979253099
2018-03-26,0.6603053435114495
2018-03-27,0.5432098765432106
2018-03-28,0.6960784313725513
2018-03-29,0.7669172932330844
2018-03-30,0.3686635944700466
2018-04-02,0.5101010101010097
2018-04-03,0.5372340425531887
2018-04-04,0.5561224489795883
2018-04-09,0.1839622641509399
2018-04-10,0.20634920634920292
2018-04-11,0.09473684210526151
2018-04-12,0.21837947183666975
2018-04-13,0.127035695809621
2018-04-16,0.4305204802869933
2018-04-17,0.7582616694130465
2018-04-18,0.8625987206063777
2018-04-19,0.8454221845777037
2018-04-20,1.0
2018-04-23,1.0
2018-04-24,0.6240790528138995
2018-04-25,0.6101694915254288
2018-04-26,0.471014492753625
2018-04-27,0.32031250000000133
2018-05-02,5.781092086395671e-15
2018-05-03,8.551198711126925e-15
2018-05-04,0.05882352941176015
2018-05-07,0.5174825174825163
2018-05-08,0.4302325581395343
2018-05-09,0.5248226950354573
2018-05-10,0.46835443037974395
2018-05-11,0.4096385542168655
2018-05-14,0.0
2018-05-15,0.3128205128205119
2018-05-16,0.4054054054054045
2018-05-17,0.5303030303030277
2018-05-18,0.6049999999999992
2018-05-21,1.0
2018-05-22,0.7080291970802924
2018-05-23,0.7740112994350286
2018-05-24,0.6331360946745613
2018-05-25,0.5617283950617317
2018-05-28,0.556250000000002
2018-05-29,0.8086419753086453
2018-05-30,0.5099337748344382
2018-05-31,0.684848484848482
2018-06-01,0.6686390532544357
2018-06-04,0.4333333333333313
2018-06-05,0.19889502762430744
2018-06-06,0.2264150943396213
2018-06-07,0.0
2018-06-08,0.02857142857142709
2018-06-11,0.037735849056601975
2018-06-12,0.31395348837209436
2018-06-13,0.4722222222222204
2018-06-14,0.6415094339622582
2018-06-15,0.6833333333333309
2018-06-19,0.9510489510489475
2018-06-20,0.8759689922480591
2018-06-21,0.8805970149253712
2018-06-22,0.9218750000000082
2018-06-25,0.915254237288144
2018-06-26,0.12149532710280912
2018-06-27,0.12149532710280919
2018-06-28,0.009259259259257743
2018-06-29,0.009259259259257607
2018-07-02,0.17054263565891892
2018-07-03,0.2820512820512859
2018-07-04,0.40506329113923856
2018-07-05,0.3950617283950597
2018-07-06,0.4666666666666676
2018-07-09,0.1515151515151492
2018-07-10,0.26851851851852004
2018-07-11,0.261682242990657
2018-07-12,0.3010752688172067
2018-07-13,0.21428571428571774
2018-07-16,0.9090909090909067
2018-07-17,0.8666666666666567
2018-07-18,0.06896551724137616
2018-07-19,0.33750000000000113
2018-07-20,0.2596153846153842
2018-07-23,0.2596153846153813
2018-07-24,0.24271844660194103
2018-07-25,0.7173913043478244
2018-07-26,0.4174757281553348
2018-07-27,0.6788990825688042
2018-07-30,0.772727272727271
2018-07-31,0.7914110429447826
2018-08-01,0.7039999999999997
2018-08-02,0.9734513274336324
2018-08-03,0.918604651162798
2018-08-06,0.8813559322034001
2018-08-07,0.9090909090909174
2018-08-08,0.8749999999999991
2018-08-09,0.6308098736894245
2018-08-10,0.784668830599174
2018-08-13,0.553141938211963
2018-08-14,0.4204554882601831
2018-08-15,0.5577486315490153
2018-08-16,0.7829540480187948
2018-08-17,0.7495180025642559
2018-08-20,0.9993782626547023
2018-08-21,1.0
2018-08-22,1.0
2018-08-23,0.9551282051282033
2018-08-24,0.6512820512820539
2018-08-27,0.5286624203821689
2018-08-28,0.34210526315789763
2018-08-29,0.0
2018-08-30,0.0
2018-08-31,0.0
2018-09-03,0.0
2018-09-04,0.0
2018-09-05,0.0
2018-09-06,0.33009708737864085
2018-09-07,0.5660377358490554
2018-09-10,0.6122448979591789
2018-09-11,0.8439716312056705
2018-09-12,0.9726775956284137
2018-09-13,0.7499999999999984
2018-09-14,0.6344086021505384
2018-09-17,0.541284403669725
2018-09-18,0.2892156862745122
2018-09-19,0.0
2018-09-20,0.16097560975609693
2018-09-21,0.1914893617021282
2018-09-25,0.21556886227545083
2018-09-26,0.30081300813007816
2018-09-27,0.7500000000000018
2018-09-28,0.31249999999999983
2018-10-08,0.6732673267326762
2018-10-09,0.8172043010752705
2018-10-10,0.907608695652176
2018-10-11,0.9086021505376359
2018-10-12,0.9657142857142816
2018-10-15,0.7062499999999955
2018-10-16,0.7116564417177876
2018-10-17,0.2123893805309696
2018-10-18,0.10576923076923232
2018-10-19,0.22321428571428903
2018-10-22,0.3611111111111128
2018-10-23,0.3333333333333317
2018-10-24,0.3150684931506797
2018-10-25,0.4457831325301167
2018-10-26,0.28749999999999587
2018-10-29,0.39361702127659604
2018-10-30,0.3052631578947387
2018-10-31,0.5576923076923148
2018-11-01,0.3061224489795977
2018-11-02,0.7051282051282115
2018-11-05,0.5000000000000054
2018-11-06,0.6025641025641062
2018-11-07,0.6989247311827997
2018-11-08,0.7951807228915675
2018-11-09,0.2600000000000008
2018-11-12,0.44117647058823717
2018-11-13,0.4183673469387808
2018-11-14,0.41237113402061626
2018-11-15,0.38999999999999685
2018-11-16,0.812499999999996
2018-11-19,0.25974025974025544
2018-11-20,0.1888888888888812
2018-11-21,0.2315789473684272
2018-11-22,0.22000000000000713
2018-11-23,0.2980769230769309
2018-11-26,0.8239436619718328
2018-11-27,0.9383561643835633
2018-11-28,0.6804733727810649
2018-11-29,0.7142857142857131
2018-11-30,0.7032258064516103
2018-12-03,0.7160493827160466
2018-12-04,0.6315789473684171
2018-12-05,0.8990825688073378
2018-12-06,0.8448275862068902
2018-12-07,0.8947368421052593
2018-12-10,0.24590163934426498
2018-12-11,0.2719665271966563
2018-12-12,0.2441860465116285
2018-12-13,0.44762715544471876
2018-12-14,0.2705975917567592
2018-12-17,0.5490575472313377
2018-12-18,0.5837388845518547
2018-12-19,0.7258618158430061
2018-12-20,0.37456586765310423
2018-12-21,0.5948421279306598
2018-12-24,0.5495804376755875
2018-12-25,0.5417910377602405
2018-12-26,0.24666666666667225
2018-12-27,0.5145631067961252
2018-12-28,0.3163265306122484
2019-01-02,0.4608695652173942
2019-01-03,0.3089430894308971
2019-01-04,0.5833333333333348
2019-01-07,0.37383177570093296
2019-01-08,0.4166666666666652
2019-01-09,0.16216216216216275
2019-01-10,0.1512605042016815
2019-01-11,0.24060150375939815
2019-01-14,0.4080000000000031
2019-01-15,0.411290322580648
2019-01-16,0.6086956521739174
2019-01-17,0.7671232876712296
2019-01-18,0.2857142857142893
2019-01-21,0.3814432989690708
2019-01-22,0.48598130841121506
2019-01-23,0.5564516129032219
2019-01-24,0.6791044776119378
2019-01-25,1.0
2019-01-28,0.6481481481481491
2019-01-29,0.6545454545454537
2019-01-30,0.5102040816326537
2019-01-31,0.7500000000000006
2019-02-01,0.7433155080213911
2019-02-11,0.955156950672646
2019-02-12,0.9557522123893809
2019-02-13,1.0
2019-02-14,0.5256410256410242
2019-02-15,0.46987951807228606
2019-02-18,0.20873786407766678
2019-02-19,0.09663865546218289
2019-02-20,0.0
2019-02-21,0.0
2019-02-22,0.0894308943089454
2019-02-25,0.07746478873239629
2019-02-26,0.27522935779816904
2019-02-27,0.40625000000000067
2019-02-28,0.4444444444444405
2019-03-01,0.4318181818181768
2019-03-04,1.0
2019-03-05,0.8765432098765396
2019-03-06,0.7294117647058763
2019-03-07,0.6559139784946223
2019-03-08,0.7288135593220326
2019-03-11,0.2982456140350878
2019-03-12,0.2931034482758644
2019-03-13,0.2956521739130475
2019-03-14,0.3684210526315837
2019-03-15,0.06349206349206511
2019-03-18,0.08080808080808281
2019-03-19,0.25471698113207164
2019-03-20,0.4017857142857108
2019-03-21,0.3274336283185795
2019-03-22,0.5211267605633781
2019-03-25,0.7547169811320785
2019-03-26,0.37500000000000394
2019-03-27,0.14634146341463675
2019-03-28,0.18750000000000394
2019-03-29,0.17142857142856952
2019-04-01,0.5396825396825347
2019-04-02,0.8510638297872226
2019-04-03,0.6851851851851783
2019-04-04,0.5211267605633776
2019-04-08,0.5781250000000048
2019-04-09,0.32500000000000695
2019-04-10,0.2904171297616936
2019-04-11,0.6138859610349919
2019-04-12,1.0
2019-04-15,1.0
2019-04-16,0.5907988107036698
2019-04-17,0.5101075903814575
2019-04-18,0.34126289387275444
2019-04-19,0.18684614434663488
2019-04-22,0.05103247898723781
2019-04-23,0.07936507936507994
2019-04-24,0.2068965517241464
2019-04-25,0.2142857142857221
2019-04-26,0.12727272727273628
2019-04-29,0.2500000000000171
2019-04-30,0.285714285714308
2019-05-06,0.43181818181818354
2019-05-07,0.8750000000000022
2019-05-08,0.617647058823528
2019-05-09,0.5820895522388005
2019-05-10,0.6285714285714206
2019-05-13,0.3999999999999899
2019-05-14,0.2999999999999946
2019-05-15,0.7882352941176416
2019-05-16,0.816091954022984
2019-05-17,0.8584070796460145
2019-05-20,1.0
2019-05-21,0.9680851063829837
2019-05-22,0.9620253164557017
2019-05-23,0.9696969696969744
2019-05-24,0.9625000000000057
2019-05-27,0.9739130434782649
2019-05-28,0.9411764705882357
2019-05-29,0.4936708860759512
2019-05-30,0.3970588235294125
2019-05-31,0.3043478260869562
2019-06-03,0.0
2019-06-04,0.0
2019-06-05,0.0
2019-06-06,0.13924050632911303
2019-06-10,0.1940298507462706
2019-06-11,0.5849056603773557
2019-06-12,0.8823529411764718
2019-06-13,1.0
2019-06-14,0.8354430379746864
2019-06-17,0.609523809523812
2019-06-18,0.37096774193548576
2019-06-19,0.017699115044249612
2019-06-20,0.11200000000000225
2019-06-21,0.11764705882353158
2019-06-24,0.31858407079645873
2019-06-25,0.4675324675324643
2019-06-26,0.5806451612903252
2019-06-27,0.6486486486486442
2019-06-28,0.720588235294115
2019-07-01,0.6199999999999963
2019-07-02,0.6666666666666641
2019-07-03,1.0
2019-07-04,0.6470588235294134
2019-07-05,0.5443037974683544
2019-07-08,0.3714285714285705
2019-07-09,0.3465346534653479
2019-07-10,0.01010101010101117
2019-07-11,0.2815533980582548
2019-07-12,0.3118279569892494
2019-07-15,0.6179775280898886
2019-07-16,0.6633663366336643
2019-07-17,0.893333333333333
2019-07-18,0.4588235294117672
2019-07-19,0.521739130434787
2019-07-22,0.318840579710151
2019-07-23,0.11538461538461882
2019-07-24,0.2921348314606706
2019-07-25,0.4262295081967184
2019-07-26,0.30357142857141994
2019-07-29,0.22368421052630735
2019-07-30,0.4637681159420188
2019-07-31,0.19480519480519223
2019-08-01,0.3580246913580197
2019-08-02,0.5051546391752563
2019-08-05,0.6710526315789498
2019-08-06,0.5294117647058829
2019-08-07,0.9066666666666632
2019-08-08,0.8999999999999972
2019-08-09,0.5443037974683583
2019-08-12,0.6974789915966385
2019-08-13,0.7217391304347849
2019-08-14,0.6279069767441832
2019-08-15,0.48387096774192745
2019-08-16,0.7624999999999916
2019-08-19,0.2570993501599012
2019-08-20,0.22099309656490648
2019-08-21,0.2930646814393441
2019-08-22,0.47627738637506545
2019-08-23,0.31102507943363955
2019-08-26,0.6990960525460184
2019-08-27,0.840220853998366
2019-08-28,0.7568986347477369
2019-08-29,0.6473638453832563
2019-08-30,0.8395061728395011
2019-09-02,0.34999999999999576
2019-09-03,0.22857142857142118
2019-09-04,0.17777777777777365
2019-09-05,0.31313131313130976
2019-09-06,0.15000000000000013
2019-09-09,0.40259740259740234
2019-09-10,0.3924050632911416
2019-09-11,0.7272727272727325
2019-09-12,0.4606741573033736
2019-09-16,0.607594936708862
2019-09-17,0.37647058823529506
2019-09-18,0.47311827956989055
2019-09-19,0.21839080459769536
2019-09-20,0.6796874999999951
2019-09-23,0.679687499999996
2019-09-24,0.9015544041450745
2019-09-25,0.9064039408866964
2019-09-26,1.0
2019-09-27,0.7336956521739137
2019-09-30,0.7792792792792798
2019-10-08,0.46236559139784933
2019-10-09,0.41520467836257574
2019-10-10,0.2905027932960928
2019-10-11,0.3714285714285744
2019-10-14,0.053846153846157985
2019-10-15,0.0693069306930747
2019-10-16,0.09615384615384581
2019-10-17,0.28723404255319157
2019-10-18,0.41836734693877864
2019-10-21,0.48235294117647415
2019-10-22,0.46590909090909377
2019-10-23,0.31313131313131615
2019-10-24,0.13207547169811606
2019-10-25,0.0
2019-10-28,0.191304347826087
2019-10-29,0.35849056603773155
2019-10-30,0.3518518518518481
2019-10-31,0.6290322580645132
2019-11-01,0.7870370370370366
2019-11-04,0.7415730337078648
2019-11-05,0.7526881720430124
2019-11-06,1.0
2019-11-07,0.5492957746478906
2019-11-08,0.5555555555555584
2019-11-11,0.4204545454545444
2019-11-12,0.1808510638297874
2019-11-13,0.11494252873563103
2019-11-14,0.3283582089552189
2019-11-15,0.18666666666666082
2019-11-18,0.38235294117647184
2019-11-19,0.792207792207792
2019-11-20,0.6781609195402303
2019-11-21,0.5595238095238125
2019-11-22,0.7200000000000014
2019-11-25,0.7083333333333346
2019-11-26,0.4749999999999878
2019-11-27,0.6999999999999936
2019-11-28,0.6562499999999968
2019-11-29,0.424242424242418
2019-12-02,0.10204081632651617
2019-12-03,0.020833333333335417
2019-12-04,0.07843137254902066
2019-12-05,0.08602150537634527
2019-12-06,0.08695652173913224
2019-12-09,0.1805555555555548
2019-12-10,0.5416666666666725
2019-12-11,0.4210526315789505
2019-12-12,0.6666666666666669
2019-12-13,0.9166666666666554
2019-12-16,0.916666666666658
2019-12-17,1.0
2019-12-18,0.6511627906976727
2019-12-19,0.7368421052631607
2019-12-20,0.7317262830482151
2019-12-23,0.740990990990992
2019-12-24,0.7970588235294122
2019-12-25,0.8764553686934009
2019-12-26,0.5367647058823467
2019-12-27,0.5230557467308973
2019-12-30,0.3625907990314747
2019-12-31,0.020050125313284727
2020-01-02,0.3391655450874833
2020-01-03,0.4200000000000015
2020-01-06,0.3333333333333333
2020-01-07,0.5689655172413809
2020-01-08,0.6428571428571411
2020-01-09,0.4999999999999911
2020-01-10,0.7499999999999961
2020-01-13,1.0
2020-01-14,0.6730769230769168
2020-01-15,0.41025641025641185
2020-01-16,0.3684210526315883
2020-01-17,0.1898734177215224
2020-01-20,0.0
2020-01-21,0.0
2020-01-22,0.500000000000022
2020-01-23,0.42105263157895223
2020-02-03,0.8396226415094333
2020-02-04,0.9272727272727245
2020-02-05,0.9360465116279025
2020-02-06,0.9438775510204038
2020-02-07,0.9685863874345543
2020-02-10,0.6417112299465207
2020-02-11,0.4179104477611871
2020-02-12,0.4545454545454536
2020-02-13,0.11038961038961344
2020-02-14,0.11184210526316107
2020-02-17,0.22105263157894806
2020-02-18,0.1735537190082654
2020-02-19,0.032786885245898456
2020-02-20,0.42718446601941773
2020-02-21,0.5299145299145324
2020-02-24,0.5985401459854065
2020-02-25,0.8217821782178296
2020-02-26,0.9325842696629175
2020-02-27,0.5000000000000041
2020-02-28,0.46913580246913816
2020-03-02,0.5567010309278335
2020-03-03,0.5520833333333278
2020-03-04,0.5760869565217328
2020-03-05,0.972602739726016
2020-03-06,0.8529411764705835
2020-03-09,0.3396226415094342
2020-03-10,0.38596491228070334
2020-03-11,0.39285714285714984
2020-03-12,0.09756097560975698
2020-03-13,0.4821428571428589
2020-03-16,0.41538461538461896
2020-03-17,0.4328358208955273
2020-03-18,0.5487804878048799
2020-03-19,0.6936936936936938
2020-03-20,0.5567010309278345
2020-03-23,0.8636363636363636
2020-03-24,0.8636363636363629
2020-03-25,0.8474576271186435
2020-03-26,0.2647058823529407
2020-03-27,0.21951219512194972
2020-03-30,0.24705882352940625
2020-03-31,0.17045454545454225
2020-04-01,0.1609195402298847
2020-04-02,0.619047619047614
2020-04-03,0.9117647058823525
2020-04-07,0.9324772306940711
2020-04-08,1.0
2020-04-09,0.9245222183139867
2020-04-10,0.9095062379195217
2020-04-13,0.7260466303607882
2020-04-14,0.3630090270812454
2020-04-15,0.10267637911278771
2020-04-16,0.12446274261412897
2020-04-17,0.009711854884020156
2020-04-20,0.009090909090909665
2020-04-21,0.3805309734513331
2020-04-22,0.49438202247191304
2020-04-23,0.5714285714285757
2020-04-24,0.5825242718446584
2020-04-27,0.7826086956521693
2020-04-28,0.7014925373134272
2020-04-29,0.7014925373134302
2020-04-30,0.6666666666666632
2020-05-06,1.0
2020-05-07,0.9347826086956543
2020-05-08,0.3513513513513498
2020-05-11,0.36842105263157826
2020-05-12,0.46067415730336797
2020-05-13,0.27956989247311886
2020-05-14,0.43362831858407164
2020-05-15,0.62025316455697
2020-05-18,0.6590909090909167
2020-05-19,0.44303797468355166
2020-05-20,0.6323529411764741
2020-05-21,0.3076923076923088
2020-05-22,0.5952380952380936
2020-05-25,0.4130434782608632
2020-05-26,0.30399999999999455
2020-05-27,0.27499999999999775
2020-05-28,0.31428571428571006
2020-05-29,0.02631578947368564
2020-06-01,0.14953271028037418
2020-06-02,0.4999999999999982
2020-06-03,0.37962962962962776
2020-06-04,0.4655172413793109
2020-06-05,0.7766990291262139
2020-06-08,0.7850467289719634
2020-06-09,0.5090909090909111
2020-06-10,0.7350427350427368
2020-06-11,0.5658914728682192
2020-06-12,0.4122807017543905
2020-06-15,0.2912621359223348
2020-06-16,0.5800000000000078
2020-06-17,0.34146341463415086
2020-06-18,0.6547619047619085
2020-06-19,0.6395348837209283
2020-06-22,0.5670103092783401
2020-06-23,0.29999999999998983
2020-06-24,0.2699999999999919
2020-06-29,0.026666666666667813
2020-06-30,0.029850746268658176
2020-07-01,0.02597402597402758
2020-07-02,0.2800000000000031
2020-07-03,0.5362318840579736
2020-07-06,0.36458333333333465
2020-07-07,0.4226804123711331
2020-07-08,0.6777777777777797
2020-07-09,0.560000000000002
2020-07-10,0.5714285714285743
2020-07-13,0.9354838709677425
2020-07-14,0.9375000000000007
2020-07-15,0.8333333333333344
2020-07-16,0.7999999999999938
2020-07-17,0.46808510638297646
2020-07-20,0.19047619047618852
2020-07-21,0.5903614457831328
2020-07-22,0.6249999999999986
2020-07-23,0.5952380952381008
2020-07-24,0.7790697674418654
2020-07-27,0.907407407407412
2020-07-28,0.445454545454543
2020-07-29,0.3934426229508187
2020-07-30,0.4796747967479649
2020-07-31,0.35897435897435803
2020-08-03,0.12087912087912143
2020-08-04,0.5000000000000054
2020-08-05,0.7714285714285751
2020-08-06,0.5810810810810841
2020-08-07,0.7297297297297294
2020-08-10,0.6506024096385544
2020-08-11,0.5142857142857152
2020-08-12,0.22448979591836526
2020-08-13,0.3783783783783714
2020-08-14,0.06249999999999239
2020-08-17,0.0882352941176454
2020-08-18,0.09090909090908857
2020-08-19,0.580645161290321
2020-08-20,0.7319587628865999
2020-08-21,0.952630852092253
2020-08-24,0.9569744104365281
2020-08-25,0.8580345845634744
2020-08-26,0.42890656418964385
2020-08-27,0.1300046407627715
2020-08-28,0.1587353391126986
2020-08-31,0.09468678127314681
2020-09-01,0.28690035311342516
2020-09-02,0.5612527832626096
2020-09-03,0.866071428571424
2020-09-04,0.7685185185185112
2020-09-07,0.838383838383841
2020-09-08,0.7313432835820981
2020-09-09,0.4545454545454621
2020-09-10,0.0
2020-09-11,0.0
2020-09-14,0.423076923076923
2020-09-15,0.32835820895521933
2020-09-16,0.5185185185185128
2020-09-17,0.5609756097560858
2020-09-18,0.8210526315789433
2020-09-21,0.6363636363636324
2020-09-22,0.8076923076923062
2020-09-23,0.5972222222222299
2020-09-24,0.5857142857142937
2020-09-25,0.16363636363635914
2020-09-28,0.4038461538461599
2020-09-29,0.2592592592592663
2020-09-30,0.21538461538461606
2020-10-09,0.5363636363636385
2020-10-12,0.7279999999999998
2020-10-13,0.7443609022556386
2020-10-14,0.7615384615384589
2020-10-15,0.9478260869565225
2020-10-16,0.47328244274808967
2020-10-19,0.2857142857142879
2020-10-20,0.10526315789473724
2020-10-21,0.10309278350515512
2020-10-22,0.17924528301886852
2020-10-23,0.5789473684210547
2020-10-26,0.5076923076923123
2020-10-27,0.478260869565227
2020-10-28,0.6818181818181883
2020-10-29,0.636363636363644
2020-10-30,0.5000000000000024
2020-11-02,0.7042253521126735
2020-11-03,0.9204545454545414
2020-11-04,0.9263157894736801
2020-11-05,0.7999999999999964
2020-11-06,0.8725490196078431
2020-11-09,0.831460674157298
2020-11-10,0.49999999999999467
2020-11-11,0.3943661971830885
2020-11-12,0.5238095238095112
2020-11-13,0.42105263157893524
2020-11-16,0.6477272727272708
2020-11-17,0.9583333333333384
2020-11-18,0.4000000000000048
2020-11-19,0.38016528925620385
2020-11-20,0.3801652892562029
2020-11-23,0.12621359223301618
2020-11-24,0.38356164383561847
2020-11-25,0.8378378378378428
2020-11-26,0.8500000000000041
2020-11-27,0.8160000000000021
2020-11-30,0.8947368421052573
2020-12-01,0.8095238095238003
2020-12-02,0.8709677419354785
2020-12-03,0.8899082568807297
2020-12-04,0.9729729729729697
2020-12-07,1.0
2020-12-08,0.7899999999999995
2020-12-09,0.7990430622009554
2020-12-10,0.8028169014084496
2020-12-11,0.878612716763005
2020-12-14,0.8614457831325293
2020-12-15,0.9794520547945208
2020-12-16,0.6000000000000003
2020-12-17,0.5001007872105482
2020-12-18,0.0
2020-12-21,0.30604137326608377
2020-12-22,0.4929278087338536
2020-12-23,0.672944286302642
2020-12-24,0.7150230917262924
2020-12-25,0.9784726616734514
2020-12-28,0.771002504542368
2020-12-29,0.4257962874355718
2020-12-30,0.21052631578947642
2020-12-31,0.27441860465116613
2021-01-04,0.1612903225806455
2021-01-05,0.23622047244094496
2021-01-06,0.22900763358778659
2021-01-07,0.2439024390243912
2021-01-08,0.642307692307692
2021-01-11,0.47949526813880045
2021-01-12,0.48717948717948667
2021-01-13,0.7480519480519471
2021-01-14,0.7441860465116271
2021-01-15,0.4945454545454541
2021-01-18,0.6044444444444458
2021-01-19,0.6044444444444458
2021-01-20,0.0
2021-01-21,0.17167381974248813
2021-01-22,0.1492537313432821
2021-01-25,0.24817518248174886
2021-01-26,0.24908424908424634
2021-01-27,0.41975308641974984
2021-01-28,0.1904761904761879
2021-01-29,0.5769230769230803
2021-02-01,0.2539682539682586
2021-02-02,0.19393939393939671
2021-02-03,0.2207792207792228
2021-02-04,0.43786982248520884
2021-02-05,0.21212121212121204
2021-02-08,0.36526946107784153
2021-02-09,0.5611510791366912
2021-02-10,0.41304347826087173
2021-02-18,0.22784810126582414
2021-02-19,0.37755102040816646
2021-02-22,0.5850340136054453
2021-02-23,0.5343511450381676
2021-02-24,0.7865168539325778
2021-02-25,0.9397590361445766
2021-02-26,0.9629629629629616
2021-03-01,0.9615384615384599
2021-03-02,0.9784482758620681
2021-03-03,1.0
2021-03-04,0.8651315789473699
2021-03-05,0.7191780821917837
2021-03-08,0.4851485148514868
2021-03-09,0.14426229508196833
2021-03-10,0.15806451612903208
2021-03-11,0.30599369085173356
2021-03-12,0.4111842105263131
2021-03-15,0.4629629629629612
2021-03-16,0.8039215686274511
2021-03-17,0.6318681318681292
2021-03-18,0.34715025906735586
2021-03-19,0.21428571428571386
2021-03-22,0.45789473684210374
2021-03-23,0.1975308641975303
2021-03-24,0.18390804597701188
2021-03-25,0.296803652968036
2021-03-26,0.2610441767068273
2021-03-29,0.37201365187713387
2021-03-30,0.6134453781512632
2021-03-31,0.7602040816326534
2021-04-01,0.8309352517985619
2021-04-02,1.0
2021-04-06,0.5519480519480521
2021-04-07,0.514084507042253
2021-04-08,0.5504885993485348
2021-04-09,0.23102310231023104
2021-04-12,0.13928571428571493
2021-04-13,0.3040540540540515
2021-04-14,0.21917808219177864
2021-04-15,0.038709677419349706
2021-04-16,0.740384615384615
2021-04-19,0.780522315209879
2021-04-20,0.6047514864936389
2021-04-21,0.6035694160738173
2021-04-22,0.7471876749749728
2021-04-23,0.18633071460589345
2021-04-26,0.28167870036101106
2021-04-27,0.33550537083130094
2021-04-28,0.34622441055748543
2021-04-29,0.22224026962824328
2021-04-30,0.9270833333333336
2021-05-06,0.9339622641509437
2021-05-07,0.9797297297297287
2021-05-10,1.0
2021-05-11,1.0
2021-05-12,1.0
2021-05-13,1.0
2021-05-14,1.0
2021-05-17,0.745989304812834
2021-05-18,0.6216931216931214
2021-05-19,0.44055944055943924
2021-05-20,0.2709497206703901
2021-05-21,0.0
2021-05-24,0.1382765531062128
2021-05-25,0.2511210762331836
2021-05-26,0.3027027027027035
2021-05-27,0.43750000000000155
2021-05-28,0.47659574468085003
2021-05-31,0.21078431372548836
2021-06-01,0.38549618320610785
2021-06-02,0.45089285714285715
2021-06-03,0.35815602836879507
2021-06-04,0.5648535564853571
2021-06-07,0.681159420289856
2021-06-08,0.17543859649122753
2021-06-09,0.1626016260162594
2021-06-10,0.1568627450980386
2021-06-11,0.24825174825174612
2021-06-15,0.19174041297934996
2021-06-16,0.2599999999999995
2021-06-17,0.46302250803858647
2021-06-18,0.7733990147783266
2021-06-21,0.5942720763723168
2021-06-22,0.7211055276381928
2021-06-23,0.8169014084507044
2021-06-24,0.6545012165450109
2021-06-25,0.2578124999999975
2021-06-28,0.44204851752021296
2021-06-29,0.3173803526448341
2021-06-30,0.16089108910891087
2021-07-01,0.25068119891008234
2021-07-02,0.5056179775280927
2021-07-05,0.23102310231023396
2021-07-06,0.36940298507463026
2021-07-07,0.46261682242991026
2021-07-08,0.5878136200716866
2021-07-09,0.44485294117647095
2021-07-12,0.6648351648351633
2021-07-13,0.7067307692307677
2021-07-14,0.7313432835820874
2021-07-15,0.24553571428571452
2021-07-16,0.4316239316239309
2021-07-19,0.5252918287937749
2021-07-20,0.37209302325581345
2021-07-21,0.4074074074074076
2021-07-22,0.7719298245614
2021-07-23,0.36842105263158054
2021-07-26,0.41463414634146445
2021-07-27,0.3541666666666694
2021-07-28,0.49729729729729827
2021-07-29,0.6244131455399085
2021-07-30,0.855319148936172
2021-08-02,0.7900000000000013
2021-08-03,0.9609756097560966
2021-08-04,0.963302752293577
2021-08-05,0.7544642857142828
2021-08-06,0.660493827160487
2021-08-09,0.5297029702970236
2021-08-10,0.3863636363636273
2021-08-11,0.02575107296136901
2021-08-12,0.3108971645495878
2021-08-13,0.33386255943563997
2021-08-16,0.5755240667494426
2021-08-17,0.6263624711327654
2021-08-18,1.0
2021-08-19,1.0
2021-08-20,0.9599161311681356
2021-08-23,0.9690021712265698
2021-08-24,0.972532917817611
2021-08-25,0.9718804920913876
2021-08-26,0.7720739219712518
2021-08-27,0.8100000000000002
2021-08-30,0.4677419354838725
2021-08-31,0.2888888888888907
2021-09-01,0.0690476190476209
2021-09-02,0.2448979591836745
2021-09-03,0.17312661498707882
2021-09-06,0.5883668903803119
2021-09-07,0.715883668903801
2021-09-08,0.9378238341968883
2021-09-09,0.9479392624728827
2021-09-10,1.0
2021-09-13,0.8943396226415091
2021-09-14,0.8918918918918916
2021-09-15,0.9039999999999997
2021-09-16,0.8461538461538468
2021-09-17,0.25318246110325343
2021-09-22,0.43222506393862004
2021-09-23,0.3691358024691363
2021-09-24,0.31957390146471515
2021-09-27,0.3049555273189335
2021-09-28,0.7066381156316915
2021-09-29,0.31318681318681474
2021-09-30,0.620689655172414
2021-10-08,0.5979112271540471
2021-10-11,0.7401746724890832
2021-10-12,0.7041916167664659
2021-10-13,0.9916974169741687
2021-10-14,0.8109289617486325
2021-10-15,0.7112676056338014
2021-10-18,0.6708715596330259
2021-10-19,0.7007534983853602
2021-10-20,0.23802612481857796
2021-10-21,0.4986111111111115
2021-10-22,0.7859618717504333
2021-10-25,0.6545307443365694
2021-10-26,0.651428571428571
2021-10-27,0.800401203610832
2021-10-28,0.5481818181818174
2021-10-29,0.07768361581920825
2021-11-01,0.07246376811594132
2021-11-02,0.12763320941759668
2021-11-03,0.22686230248307032
2021-11-04,0.4880952380952388
2021-11-05,0.35142857142857153
2021-11-08,0.45054945054945017
2021-11-09,0.25381679389312956
2021-11-10,0.12893323100537235
2021-11-11,0.0
2021-11-12,0.0
2021-11-15,0.1760722347629803
2021-11-16,0.32996632996633035
2021-11-17,0.8163265306122429
2021-11-18,0.4301075268817219
2021-11-19,0.36764705882353116
2021-11-22,0.08380952380952439
2021-11-23,0.008000000000000913
2021-11-24,0.32147742818057423
2021-11-25,0.5167652859960556
2021-11-26,0.7721139430284856
2021-11-29,0.8728813559322043
2021-11-30,0.8135860979462878
2021-12-01,0.3622250970245796
2021-12-02,0.32687338501291974
2021-12-03,0.0
2021-12-06,0.1263444335418011
2021-12-07,0.24948731384209785
2021-12-08,0.6779811362212225
2021-12-09,0.7354977654356398
2021-12-10,0.7487129798187385
2021-12-13,0.7412924461760648
2021-12-14,0.4987279721470667
2021-12-15,0.2381134158078455
2021-12-16,0.4147727272727277
2021-12-17,0.3578431372549025
2021-12-20,0.19902912621359145
2021-12-21,0.21298701298701217
2021-12-22,0.30177514792899307
2021-12-23,0.04830917874396149
2021-12-24,0.19076923076923216
2021-12-27,0.34121621621621856
2021-12-28,0.5062500000000022
2021-12-29,0.43161094224924196
2021-12-30,0.8527918781725885
2021-12-31,0.7039106145251376
2022-01-04,0.34939759036144497
2022-01-05,0.09629629629629582
2022-01-06,0.10441767068273052
2022-01-07,0.37359550561797805
2022-01-10,0.4024024024024046
2022-01-11,0.5153846153846176
2022-01-12,0.7777777777777776
2022-01-13,0.8690909090909088
2022-01-14,0.4173228346456682
2022-01-17,0.6185567010309259
2022-01-18,0.7494407158836679
2022-01-19,0.7755511022044087
2022-01-20,0.746606334841629
2022-01-21,1.0
2022-01-24,0.8267477203647398
2022-01-25,0.510086455331412
2022-01-26,0.2884615384615379
2022-01-27,0.20867208672086657
2022-01-28,0.0
2022-02-07,0.0
2022-02-08,0.41216216216216234
2022-02-09,0.6808905380333965
2022-02-10,0.7279843444227021
2022-02-11,0.8453815261044195
2022-02-14,1.0
2022-02-15,0.6915520628683699
2022-02-16,0.34854771784232347
2022-02-17,0.30129390018484214
2022-02-18,0.30386740331491796
2022-02-21,0.20588235294117688
2022-02-22,0.3911845730027548
2022-02-23,0.7681159420289846
2022-02-24,1.0
2022-02-25,1.0
2022-02-28,0.9589041095890414
2022-03-01,0.9346092503987256
2022-03-02,0.9286956521739148
2022-03-03,0.9199218750000021
2022-03-04,0.07650273224044049
2022-03-07,0.5518207282913175
2022-03-08,0.6217532467532468
2022-03-09,0.6362217017954719
2022-03-10,0.6434583014537102
2022-03-11,1.0
2022-03-14,0.6101895734597155
2022-03-15,0.432569974554707
2022-03-16,0.4480198019801979
2022-03-17,0.36027713625866076
2022-03-18,0.11710526315789446
2022-03-21,0.12588401697312535
2022-03-22,0.1444805194805194
2022-03-23,0.0
2022-03-24,0.0
2022-03-25,0.0
2022-03-28,0.0
2022-03-29,0.0
2022-03-30,0.0
2022-03-31,0.30396475770924897
2022-04-01,0.35025380710659604
2022-04-06,0.5855855855855809
2022-04-07,0.6492985971943868
2022-04-08,0.8531468531468523
2022-04-11,0.7192429022082032
2022-04-12,0.932989690721651
2022-04-13,0.6091370558375664
2022-04-14,0.4083526682134582
2022-04-15,0.32057416267942584
2022-04-18,0.27125506072874456
2022-04-19,0.3601486298188582
2022-04-20,0.5445223518144812
2022-04-21,0.7365791796869526
2022-04-22,0.7934756536339655
2022-04-25,1.0
2022-04-26,0.8101008341679161
2022-04-27,0.8261513317122348
2022-04-28,0.6917112686243313
2022-04-29,0.7305525493329554
2022-05-05,0.3484626647144958
2022-05-06,0.3246930422919518
2022-05-09,0.157968970380817
2022-05-10,0.20430107526881622
2022-05-11,0.034883720930232495
2022-05-12,0.3141025641025623
2022-05-13,0.43880597014924977
2022-05-16,0.7064846416382232
2022-05-17,0.5519287833827894
2022-05-18,0.7105263157894747
2022-05-19,0.361445783132532
2022-05-20,0.4516129032258091
2022-05-23,0.4086956521739121
2022-05-24,0.7137096774193531
2022-05-25,0.49494949494949414
2022-05-26,0.46815286624203817
2022-05-27,0.4280821917808214
2022-05-30,0.22991689750692526
2022-05-31,0.0
2022-06-01,0.007547169811322206
2022-06-02,0.2290748898678392
2022-06-06,0.1984732824427459
2022-06-07,0.18571428571428347
2022-06-08,0.4421768707482991
2022-06-09,0.5015197568389043
2022-06-10,0.3314121037463987
2022-06-13,0.366242038216563
2022-06-14,0.7610921501706521
2022-06-15,0.794721407624636
2022-06-16,0.7244582043343695
2022-06-17,0.9335443037974731
2022-06-20,0.9723837209302337
2022-06-21,0.9743243243243254
2022-06-22,0.9489633173843722
2022-06-23,0.9828496042216367
2022-06-24,0.9836477987421391
2022-06-27,0.6857142857142852
2022-06-28,0.5155925155925148
2022-06-29,0.38153846153846116
2022-06-30,0.23282442748091517
2022-07-01,0.046421663442940096
2022-07-04,0.05867970660146739
2022-07-05,0.06075949367088653
2022-07-06,0.4341317365269484
2022-07-07,0.27375565610859737
2022-07-08,0.4819819819819815
2022-07-11,0.46320346320346123
2022-07-12,0.4486373165618432
2022-07-13,0.18307086614173135
2022-07-14,0.21779859484777495
2022-07-15,0.0
2022-07-18,0.23132530120482023
2022-07-19,0.38461538461538536
2022-07-20,0.7156398104265421
2022-07-21,0.756892230576442
2022-07-22,0.9151515151515156
2022-07-25,0.5150000000000013
2022-07-26,0.3020594965675065
2022-07-27,0.0
2022-07-28,0.42876901798063644
2022-07-29,0.44037940379403795
2022-08-01,0.6028938906752405
2022-08-02,0.747680890538033
2022-08-03,1.0
2022-08-04,0.3449197860962574
2022-08-05,0.28934010152284345
2022-08-08,0.28205128205128277
2022-08-09,0.1855203619909502
2022-08-10,0.10823529411764597
2022-08-11,0.18623481781376294
2022-08-12,0.14886731391585648
2022-08-15,0.0
2022-08-16,0.058219178082190376
2022-08-17,0.1578947368421022
2022-08-18,0.18014886877383987
2022-08-19,0.3711268367926778
2022-08-22,0.8539606141660437
2022-08-23,0.7236939589202673
2022-08-24,0.6133088488643287
2022-08-25,0.733181962192424
2022-08-26,0.8262768757880782
2022-08-29,0.656564697064537
2022-08-30,0.8496063292384144
2022-08-31,0.7226277372262775
2022-09-01,0.7499999999999994
2022-09-02,0.4648437499999988
2022-09-05,0.3562874251496985
2022-09-06,0.11111111111110965
2022-09-07,0.227963525835864
2022-09-08,0.10746268656716323
2022-09-09,0.11214953271027943
2022-09-13,0.1599999999999992
2022-09-14,0.274809160305343
2022-09-15,0.10377358490565543
2022-09-16,0.12643678160918875
2022-09-19,0.5396825396825341
2022-09-20,0.7289719626168214
2022-09-21,0.7968749999999977
2022-09-22,0.7398373983739855
2022-09-23,0.9449541284403715
2022-09-26,0.930232558139541
2022-09-27,0.42352941176470954
2022-09-28,0.18750000000000738
2022-09-29,0.11881188118812362
2022-09-30,0.021978021978027812
2022-10-10,0.17592592592592124
2022-10-11,0.49450549450549014
2022-10-12,0.7278481012658251
2022-10-13,1.0
2022-10-14,1.0
2022-10-17,1.0
2022-10-18,1.0
2022-10-19,0.6573033707865168
2022-10-20,0.5853658536585372
2022-10-21,0.3381088825214931
2022-10-24,0.03804347826087002
2022-10-25,0.019390581717449597
2022-10-26,0.1343283582089528
2022-10-27,0.19277108433734708
2022-10-28,0.26966292134830894
2022-10-31,0.9041095890410857
2022-11-01,0.9292929292929225
2022-11-02,0.9306930693069236
2022-11-03,0.9292929292929222
2022-11-04,1.0
2022-11-07,0.9609756097560973
2022-11-08,0.6482213438735182
2022-11-09,0.5175097276264627
2022-11-10,0.5724137931034516
2022-11-11,0.38613861386138704
2022-11-14,0.3749999999999997
2022-11-15,0.6315789473684221
2022-11-16,0.8076923076922973
2022-11-17,0.4456521739130349
2022-11-18,0.028571428571428917
2022-11-21,0.23387096774193822
2022-11-22,0.25781250000000555
2022-11-23,0.35888501742160756
2022-11-24,0.43122676579926184
2022-11-25,1.0
2022-11-28,0.5038167938931345
2022-11-29,0.49612403100774705
2022-11-30,0.2454545454545401
2022-12-01,0.3805970149253666
2022-12-02,0.3475177304964432
2022-12-05,0.7187499999999892
2022-12-06,0.6805702217528985
2022-12-07,0.9356200340522085
2022-12-08,0.672768444639404
2022-12-09,0.7538796503038196
2022-12-12,0.8619357411700194
2022-12-13,0.8616616091609535
2022-12-14,0.7293949091701883
2022-12-15,0.8884629006552128
2022-12-16,0.9289921816429243
2022-12-19,0.893081761006287
2022-12-20,0.898203592814369
2022-12-21,1.0
2022-12-22,1.0
2022-12-23,0.554687499999998
2022-12-26,0.3557692307692283
2022-12-27,0.3578274760383355
2022-12-28,0.31164383561643666
2022-12-29,0.06514657980455972
2022-12-30,0.10824742268041666
2023-01-03,0.17073170731708
2023-01-04,0.2500000000000115
2023-01-05,0.11274509803922339
2023-01-06,0.20168067226892095
2023-01-09,0.28030303030303305
2023-01-10,0.2312500000000018
2023-01-11,0.08670520231213695
2023-01-12,0.3969465648854925
2023-01-13,0.35172413793103025
2023-01-16,0.4337349397590357
2023-01-17,0.5901639344262294
2023-01-18,0.5255474452554797
2023-01-19,0.24822695035461562
2023-01-20,0.30534351145038513
2023-01-30,0.34057971014492755
2023-01-31,0.4647058823529394
2023-02-01,0.7602339181286516
2023-02-02,1.0
2023-02-03,1.0
2023-02-06,0.5520833333333321
2023-02-07,0.34905660377358594
2023-02-08,0.1299435028248657
2023-02-09,0.08415841584158781
2023-02-10,0.051282051282050364
2023-02-13,0.3694267515923541
2023-02-14,0.5607476635513958
2023-02-15,0.49999999999999134
2023-02-16,0.7642276422764205
2023-02-17,0.5490196078431364
2023-02-20,0.23076923076923073
2023-02-21,0.2638036809815977
2023-02-22,0.3115942028985527
2023-02-23,0.3581081081081071
2023-02-24,0.5599999999999942
2023-02-27,0.9696969696969654
2023-02-28,0.9767441860465084
2023-03-01,1.0
2023-03-02,0.728571428571427
2023-03-03,0.7010309278350553
2023-03-06,0.43093922651933975
2023-03-07,0.13809523809524032
2023-03-08,0.0
2023-03-09,0.06535947712418728
2023-03-10,0.22826086956521863
2023-03-13,0.3860759493670902
2023-03-14,0.8503937007874026
2023-03-15,1.0
2023-03-16,1.0
2023-03-17,0.8639053254437845
2023-03-20,0.625615763546798
2023-03-21,0.5681818181818177
2023-03-22,0.20603015075376707
2023-03-23,0.10362694300517868
2023-03-24,0.11494252873562903
2023-03-27,0.19199999999998998
2023-03-28,0.02941176470587759
2023-03-29,0.10714285714284347
2023-03-30,0.0731707317073093
2023-03-31,0.06741573033707292
2023-04-03,0.5537634408602244
2023-04-04,0.6397515527950391
2023-04-06,0.6685714285714376
2023-04-07,0.8969696969697032
2023-04-10,0.9768339768339753
2023-04-11,0.6079999999999983
2023-04-12,0.5735849056603758
2023-04-13,0.5532877892975713
2023-04-14,0.5718178549039958
2023-04-17,0.19545483088028254
2023-04-18,0.3231350448851477
2023-04-19,0.43579332893580763
2023-04-20,0.5790428438935825
2023-04-21,0.35737224993634065
2023-04-24,0.5161700033340246
2023-04-25,0.505376344086027
2023-04-26,0.39823008849557673
2023-04-27,0.0
2023-04-28,0.21333333333334153
2023-05-04,0.5979381443299028
2023-05-05,0.7730061349693264
2023-05-08,0.9256965944272456
2023-05-09,1.0
2023-05-10,0.9515669515669507
2023-05-11,0.851311953352768
2023-05-12,0.7542087542087539
2023-05-15,0.17346938775510112
2023-05-16,0.0
2023-05-17,0.06948640483383758
2023-05-18,0.08666666666666799
2023-05-19,0.10954063604240327
2023-05-22,0.46052631578947556
2023-05-23,1.0
2023-05-24,0.6470588235294107
2023-05-25,0.7631578947368411
2023-05-26,0.7599999999999997
2023-05-29,0.5769230769230753
2023-05-30,0.5833333333333329
2023-05-31,0.8061224489795905
2023-06-01,0.4126984126984138
2023-06-02,0.47887323943661886
2023-06-05,0.7857142857142847
2023-06-06,0.6081081081081041
2023-06-07,0.6627906976744149
2023-06-08,0.42537313432835466
2023-06-09,0.2266009852216722
2023-06-12,0.07692307692307583
2023-06-13,0.23039215686274497
2023-06-14,0.23039215686274783
2023-06-15,0.4276729559748457
2023-06-16,0.7727272727272761
2023-06-19,0.8860759493670884
2023-06-20,0.35238095238095435
2023-06-21,0.17293233082706638
2023-06-26,0.30817610062893114
2023-06-27,0.5024630541871917
2023-06-28,0.42735042735042694
2023-06-29,0.5586592178770946
2023-06-30,0.7482993197278909
2023-07-03,0.5887850467289699
2023-07-04,0.13157894736841969
2023-07-05,0.136986301369862
2023-07-06,0.13888888888888665
2023-07-07,0.10144927536232004
2023-07-10,0.050724637681160194
2023-07-11,0.2684563758389262
2023-07-12,0.43165467625899223
2023-07-13,0.4758620689655198
2023-07-14,0.49668874172185623
2023-07-17,1.0
2023-07-18,1.0
2023-07-19,0.9210526315789465
2023-07-20,0.9277108433734925
2023-07-21,0.9351351351351338
2023-07-24,0.7906976744186024
2023-07-25,0.3254437869822448
2023-07-26,0.5299539170506905
2023-07-27,0.47179487179487445
2023-07-28,0.3488372093023284
2023-07-31,0.3899371069182432
2023-08-01,0.8795180722891633
2023-08-02,0.2765957446808595
2023-08-03,0.7518796992481206
2023-08-04,0.5952380952380958
2023-08-07,0.6023391812865488
2023-08-08,0.5903614457831313
2023-08-09,0.700680272108843
2023-08-10,0.11267605633802713
2023-08-11,0.2851575640252606
2023-08-14,0.3704031863601452
2023-08-15,0.47196234296872513
2023-08-16,0.4489945382917898
2023-08-17,0.9761205225979845
2023-08-18,0.7622187610688108
2023-08-21,0.7508249734330515
2023-08-22,0.8184445193629277
2023-08-23,0.8914963598063483
2023-08-24,0.8958333333333328
2023-08-25,0.9485294117647074
2023-08-28,0.8496240601503734
2023-08-29,0.3554216867469859
2023-08-30,0.0866141732283461
2023-08-31,0.0
2023-09-01,0.4695340501792115
2023-09-04,0.567307692307694
2023-09-05,0.850931677018634
2023-09-06,0.7828571428571439
2023-09-07,0.9160997732426314
2023-09-08,0.8247734138972823
2023-09-11,0.8122977346278328
2023-09-12,0.5460992907801425
2023-09-13,0.7156249999999993
2023-09-14,0.4040816326530589
2023-09-15,0.30841121495326906
2023-09-18,0.23006134969325007
2023-09-19,0.3558718861209937
2023-09-20,0.08992805755395508
2023-09-21,0.30281690140845097
2023-09-22,0.5826446280991742
2023-09-25,0.6322869955156958
2023-09-26,0.6255707762557101
2023-09-27,0.8106508875739649
2023-09-28,0.603174603174602
2023-10-09,0.3975903614457891
2023-10-10,0.7959183673469389
2023-10-11,0.7872340425531914
2023-10-12,0.9032258064516124
2023-10-13,0.6774193548387099
2023-10-16,0.6707818930041146
2023-10-17,0.1337792642140474
2023-10-18,0.08231707317073172
2023-10-19,0.02194357366771129
2023-10-20,0.12452830188679118
2023-10-23,0.08609271523178723
2023-10-24,0.23015873015872912
2023-10-25,0.42708333333333093
2023-10-26,0.5111111111111106
2023-10-27,0.35294117647059425
2023-10-30,0.44444444444444875
2023-10-31,0.5312499999999977
2023-11-01,0.18965517241379293
2023-11-02,0.16071428571428237
2023-11-03,0.35616438356164076
2023-11-06,0.5151515151515117
2023-11-07,0.42307692307692213
2023-11-08,0.9225352112676077
2023-11-09,0.9219858156028397
2023-11-10,0.6258503401360541
2023-11-13,0.7058823529411774
2023-11-14,0.741573033707862
2023-11-15,0.6229508196721292
2023-11-16,0.8445945945945911
2023-11-17,0.9940119760479025
2023-11-20,0.8466257668711648
2023-11-21,0.8766066838046279
2023-11-22,0.7430555555555564
2023-11-23,0.4932885906040297
2023-11-24,0.3009259259259286
2023-11-27,0.6578073089701018
2023-11-28,0.5863453815261066
2023-11-29,0.8518518518518534
2023-11-30,0.7565789473684204
2023-12-01,0.5867346938775508
2023-12-04,0.46710526315789336
2023-12-05,0.3553719008264444
2023-12-06,0.12640449438202125
2023-12-07,0.32781619905944714
2023-12-08,0.4876073325048023
2023-12-11,0.2959684052565832
2023-12-12,0.4908849478597222
2023-12-13,0.813597410734897
2023-12-14,0.6337827466523095
2023-12-15,0.5743687099725516
2023-12-18,0.6802178959657812
2023-12-19,0.5372204067257998
2023-12-20,0.0
2023-12-21,0.08561643835616277
2023-12-22,0.0929368029739761
2023-12-25,0.0776397515527936
2023-12-26,0.08445945945945783
2023-12-27,0.2755905511810946
2023-12-28,0.07462686567163707
2023-12-29,0.05917159763313225
2024-01-02,0.5497630331753558
2024-01-03,0.6713615023474198
2024-01-04,0.7107438016528954
2024-01-05,0.7926267281105974
2024-01-08,0.9718875502008005
2024-01-09,0.46735395189003504
2024-01-10,0.37074829931972747
2024-01-11,0.25089605734766973
2024-01-12,0.22012578616352213
2024-01-15,0.0
2024-01-16,0.18072289156626287
2024-01-17,0.34161490683229667
2024-01-18,0.3160919540229878
2024-01-19,0.3956834532374109
2024-01-22,0.5384615384615427
2024-01-23,0.23008849557522468
2024-01-24,0.010416666666668808
2024-01-25,0.011494252873565546
2024-01-26,0.5192307692307709
2024-01-29,0.4733727810650895
2024-01-30,0.712643678160922
2024-01-31,0.7572254335260107
2024-02-01,0.8036809815950908
2024-02-02,0.3777777777777764
2024-02-05,0.34693877551020214
2024-02-06,0.076923076923066
2024-02-07,0.008130081300809444
2024-02-08,0.21804511278195274
2024-02-19,0.7011494252873552
2024-02-20,0.7530864197530872
2024-02-21,0.8915989159891609
2024-02-22,0.9630606860158313
2024-02-23,0.8868421052631593
2024-02-26,0.8685015290519893
2024-02-27,0.9297820823244564
2024-02-28,0.4074074074074072
2024-02-29,0.313901345291479
2024-03-01,0.42886597938144194
2024-03-04,0.2994652406417106
2024-03-05,0.13821138211382064
2024-03-06,0.28363636363636296
2024-03-07,0.3376623376623376
2024-03-08,0.04878048780487773
2024-03-11,0.26168224299065346
2024-03-12,0.4285714285714273
2024-03-13,0.7303370786516834
2024-03-14,0.8157894736842081
2024-03-15,0.9162561576354684
2024-03-18,0.8615384615384595
2024-03-19,0.8669950738916238
2024-03-20,0.358208955223882
2024-03-21,0.12244897959183741
2024-03-22,0.23809523809523814
2024-03-25,0.2083333333333341
2024-03-26,0.10919540229884911
2024-03-27,0.5583333333333307
2024-03-28,0.44827586206896447
2024-03-29,0.6261682242990666
2024-04-01,0.8047808764940244
2024-04-02,0.7890625000000004
2024-04-03,0.6609442060085846
2024-04-08,0.8283828382838281
2024-04-09,0.6133828996282504
2024-04-10,0.36437008764916023
2024-04-11,0.47762911386802903
2024-04-12,0.5414539112947542
2024-04-15,0.1553740430405671
2024-04-16,0.162985914602335
2024-04-17,0.3342461778414565
2024-04-18,0.16278513319508922
2024-04-19,0.12357515713220649
2024-04-22,0.3706298003072205
2024-04-23,0.5714285714285722
2024-04-24,0.5108695652173902
2024-04-25,0.8705882352941152
2024-04-26,0.8314606741573047
2024-04-29,0.8181818181818198
2024-04-30,0.6595744680851083
2024-05-06,0.7000000000000015
2024-05-07,0.3918918918918919
2024-05-08,0.7044334975369478
2024-05-09,0.4849785407725338
2024-05-10,0.4669421487603323
2024-05-13,0.34000000000000175
2024-05-14,0.544444444444444
2024-05-15,0.20875420875420675
2024-05-16,0.4631901840490778
2024-05-17,0.4748427672955944
2024-05-20,0.5153583617747414
2024-05-21,0.37711864406779494
2024-05-22,0.828431372549018
2024-05-23,0.529801324503311
2024-05-24,0.6809815950920258
2024-05-27,0.785340314136128
2024-05-28,0.8064516129032281
2024-05-29,0.37837837837838034
2024-05-30,0.5485714285714277
2024-05-31,0.3672316384180813
2024-06-03,0.13829787234042393
2024-06-04,0.1097046413502096
2024-06-05,0.19512195121951434
2024-06-06,0.030000000000003645
2024-06-07,0.05847953216375034
2024-06-11,0.10483870967742691
2024-06-12,0.12621359223301937
2024-06-13,0.43396226415094585
2024-06-14,0.7113402061855666
2024-06-17,0.7477477477477439
2024-06-18,0.7454545454545413
2024-06-19,0.9425287356321723
2024-06-20,0.31746031746029996
2024-06-21,0.19047619047618045
2024-06-24,0.01739130434782209
2024-06-25,0.0
2024-06-26,0.13736263736264087
2024-06-27,0.13888888888889211
2024-06-28,0.17241379310345162
2024-07-01,0.31851851851852225
2024-07-02,0.49425287356322045
2024-07-03,0.2535211267605619
2024-07-04,0.5641025641025448
2024-07-05,0.9099099099099046
2024-07-08,0.7410714285714214
2024-07-09,0.7345132743362761
2024-07-10,0.8609271523178795
2024-07-11,0.8799999999999996
2024-07-12,0.40983606557377195
2024-07-15,0.6291666666666667
2024-07-16,0.6463414634146339
2024-07-17,0.46666666666666556
2024-07-18,0.39906103286384903
2024-07-19,0.7191780821917811
2024-07-22,0.2180451127819578
2024-07-23,0.25714285714286134
2024-07-24,0.27067669172932823
2024-07-25,0.22292993630573538
2024-07-26,0.0986842105263176
2024-07-29,0.1777777777777809
2024-07-30,0.3333333333333357
2024-07-31,0.6330275229357811
2024-08-01,0.8863636363636367
2024-08-02,0.9749999999999969
2024-08-05,0.9758064516129001
2024-08-06,0.685483870967736
2024-08-07,0.5463917525773135
2024-08-08,0.1199999999999974
2024-08-09,0.4605263157894744
2024-08-12,0.5858585858585863
2024-08-13,0.9418604651162799
2024-08-14,1.0
2024-08-15,0.9433962264150981
2024-08-16,0.9433497536945847
2024-08-19,0.83382022181433
2024-08-20,0.6633087579433347
2024-08-21,0.4426472930842282
2024-08-22,0.4027924457973555
2024-08-23,0.0
2024-08-26,0.414343066551393
2024-08-27,0.45157525927833086
2024-08-28,0.4267244570908721
2024-08-29,0.3933333333333313
2024-08-30,0.6126126126126092
2024-09-02,0.08264462809917161
2024-09-03,0.05769230769230786
2024-09-04,0.3725490196078436
2024-09-05,0.49514563106796067
2024-09-06,0.543859649122806
2024-09-09,0.7763975155279503
2024-09-10,0.9689922480620152
2024-09-11,0.9540229885057467
2024-09-12,0.6195652173913078
2024-09-13,0.2476190476190501
2024-09-18,0.38759689922480817
2024-09-19,0.5901639344262318
2024-09-20,0.3487394957983202
2024-09-23,0.5338345864661643
2024-09-24,0.7452229299363048
2024-09-25,0.6593059936908506
2024-09-26,0.5531135531135505
2024-09-27,0.7910447761194003
2024-09-30,0.8699690402476767
2024-10-08,0.8980582524271835
2024-10-09,0.9653465346534642
2024-10-10,1.0
2024-10-11,1.0
2024-10-14,0.6058558558558567
2024-10-15,0.17153996101364655
2024-10-16,0.1600790513834009
2024-10-17,0.25176056338028213
2024-10-18,0.20733944954128408
2024-10-21,0.26096997690531143
2024-10-22,0.6650717703349269
2024-10-23,0.5185185185185177
2024-10-24,0.0869565217391305
2024-10-25,0.07647058823529429
2024-10-28,0.26822157434402427
2024-10-29,0.27246376811594186
2024-10-30,0.3154362416107379
2024-10-31,0.7142857142857162
2024-11-01,1.0
2024-11-04,0.755813953488373
2024-11-05,0.25694444444444803
2024-11-06,0.4952830188679259
2024-11-07,0.37264150943396135
2024-11-08,0.3870967741935476
2024-11-11,0.42639593908629336
2024-11-12,0.7749999999999984
2024-11-13,0.18518518518518484
2024-11-14,0.1953124999999994
2024-11-15,0.06122448979591873
2024-11-18,0.050000000000000294
2024-11-19,0.0
2024-11-20,0.0
2024-11-21,0.264000000000002
2024-11-22,0.5746268656716413
2024-11-25,0.7745098039215682
2024-11-26,0.6422764227642275
2024-11-27,0.786764705882354
2024-11-28,0.5068493150684925
2024-11-29,0.19736842105263244
2024-12-02,0.1555555555555559
2024-12-03,0.21656050955414058
2024-12-04,0.26785714285714046
2024-12-05,0.5266272189349092
2024-12-06,0.7580645161290335
2024-12-09,1.0
2024-12-10,1.0
2024-12-11,0.7004405286343631
2024-12-12,0.5424528301886812
2024-12-13,0.5688888888888887
2024-12-16,0.538095238095238
2024-12-17,0.13300492610837367
2024-12-18,0.38752362948960023
2024-12-19,0.5152611705475116
2024-12-20,0.40977862716993
2024-12-23,0.28108791903858155
2024-12-24,0.49465915711788677
2024-12-25,0.1735659922034543
2024-12-26,0.053524374176549164
2024-12-27,0.048471290082029155
2024-12-30,0.3628997250759656
2024-12-31,0.33146067415730246
