date,FCT_Cr_Atr_Dfive
2013-03-22,
2013-03-25,
2013-03-26,
2013-03-27,
2013-03-28,
2013-03-29,
2013-04-01,
2013-04-02,
2013-04-03,
2013-04-08,
2013-04-09,0.05958021806180472
2013-04-10,-0.20279720279720403
2013-04-11,-0.21553486259368926
2013-04-12,-0.01941747572815775
2013-04-15,0.0432549504950559
2013-04-16,0.20614086487753314
2013-04-17,0.38334940921148203
2013-04-18,0.26920555456225564
2013-04-19,0.031917475728159124
2013-04-22,-0.12975186407530387
2013-04-23,-0.12789666962136975
2013-04-24,-0.29885057471264254
2013-04-25,-0.36960025789813333
2013-04-26,-0.012499999999999031
2013-05-02,0.10994988387727873
2013-05-03,-0.06259679917398481
2013-05-06,-0.07624113475177753
2013-05-07,0.3107978519370914
2013-05-08,-0.023529411764707905
2013-05-09,-0.13813670523678462
2013-05-10,0.12318087318087721
2013-05-13,0.5148376259798415
2013-05-14,-0.007988202040066311
2013-05-15,0.20534759358288546
2013-05-16,0.26227988878590597
2013-05-17,0.019639639639634995
2013-05-20,-0.5336071069393225
2013-05-21,-0.0989689169865268
2013-05-22,-0.3418181818181854
2013-05-23,-0.27765567765567534
2013-05-24,-0.15536231884057616
2013-05-27,0.20273419294702455
2013-05-28,-0.0642303433001071
2013-05-29,0.2257894736842196
2013-05-30,0.06208112874779616
2013-05-31,0.22711670480549057
2013-06-03,0.04619799139168708
2013-06-04,0.09523809523809335
2013-06-05,-0.16469057258530764
2013-06-06,0.37880156579343033
2013-06-07,-0.11842105263157926
2013-06-13,-0.10762527233116147
2013-06-14,0.03846153846153848
2013-06-17,0.23778998778998084
2013-06-18,-0.5609756097560896
2013-06-19,-0.04301075268817179
2013-06-20,0.17186849771119717
2013-06-21,0.060548362528558775
2013-06-24,-0.19294294294294204
2013-06-25,0.31056910569105534
2013-06-26,0.05193932411674207
2013-06-27,-0.28527393855026784
2013-06-28,-0.27609323432343036
2013-07-01,0.01607937050975252
2013-07-02,-0.013124156545211277
2013-07-03,-0.07877197617446556
2013-07-04,0.2850737524061645
2013-07-05,0.14991115182134312
2013-07-08,0.016546780484508958
2013-07-09,-0.1368758434547881
2013-07-10,0.4854278203303169
2013-07-11,-0.09793402682363414
2013-07-12,0.1068181992111053
2013-07-15,0.005034460436844062
2013-07-16,0.06666666666666497
2013-07-17,-0.5850759410081509
2013-07-18,-0.1693503089309112
2013-07-19,-0.10317542946382305
2013-07-22,0.05253802093619939
2013-07-23,-0.029844961240306722
2013-07-24,0.1329061595700676
2013-07-25,0.11999483337638729
2013-07-26,-0.014932126696830986
2013-07-29,-0.10281124497991784
2013-07-30,0.11794019933554097
2013-07-31,-0.11008130081300554
2013-08-01,0.012658227848106121
2013-08-02,-0.00841346153845976
2013-08-05,0.0174863387978169
2013-08-06,-0.12315270935959798
2013-08-07,0.18303030303030438
2013-08-08,0.2807017543859647
2013-08-09,0.3345462328767099
2013-08-12,0.21939309382629682
2013-08-13,0.20626959247648202
2013-08-14,0.05025053686470979
2013-08-15,-0.2734553775743755
2013-08-16,-0.2588942544594447
2013-08-19,-0.12126171700639554
2013-08-20,-0.16121212121211775
2013-08-21,-0.16043967658405195
2013-08-22,-0.07971014492753561
2013-08-23,-0.09127697841726615
2013-08-26,-0.09895104895105258
2013-08-27,-0.08105263157894628
2013-08-28,0.3815178110480074
2013-08-29,0.10922847399829597
2013-08-30,0.019946808510634018
2013-09-02,0.05740740740740926
2013-09-03,0.16124871001031982
2013-09-04,-0.47892518440462717
2013-09-05,-0.07808701993193864
2013-09-06,0.06841526045488588
2013-09-09,-0.1586679116090855
2013-09-10,-0.1626383226557969
2013-09-11,0.051667659321017745
2013-09-12,-0.020406081012146582
2013-09-13,-0.18375680580762604
2013-09-16,0.22938550420167536
2013-09-17,0.16157267900702565
2013-09-18,0.3222679200940104
2013-09-23,0.1628519905673495
2013-09-24,0.23952738990332995
2013-09-25,-0.09699292452829603
2013-09-26,-0.2166945373467004
2013-09-27,-0.2588824779836001
2013-09-30,-0.13683788121990198
2013-10-08,0.06651549508692366
2013-10-09,0.018867924528296342
2013-10-10,0.2517576509511904
2013-10-11,0.046471037416819405
2013-10-14,0.05532212885153847
2013-10-15,-0.14814814814815042
2013-10-16,-0.019230769230763573
2013-10-17,-0.17615433270081315
2013-10-18,-0.08502810424118196
2013-10-21,-0.04286365709074439
2013-10-22,-0.1904761904761798
2013-10-23,0.23981900452487567
2013-10-24,0.18910937869122202
2013-10-25,0.19151103565363725
2013-10-28,-0.06497948016415414
2013-10-29,0.30875576036865005
2013-10-30,-0.3744343891402623
2013-10-31,-0.18866374589265084
2013-11-01,-0.20653029110935
2013-11-04,0.14302981466558415
2013-11-05,-0.2346910592003274
2013-11-06,0.17241071973994182
2013-11-07,0.1239724085523467
2013-11-08,0.2825080224072279
2013-11-11,-0.1313269234630637
2013-11-12,0.06879244168881321
2013-11-13,-0.031064565893789094
2013-11-14,-0.1317399574591386
2013-11-15,-0.33713548649009234
2013-11-18,0.04374551766922209
2013-11-19,0.047619047619046305
2013-11-20,0.06334745762711912
2013-11-21,0.1243364638628019
2013-11-22,0.10284510010537448
2013-11-25,0.08196721311475462
2013-11-26,-0.04687500000000236
2013-11-27,-0.001667129758263948
2013-11-28,-0.04838709677419183
2013-11-29,0.045913461538463915
2013-12-02,-0.11267239136091636
2013-12-03,0.06382415254237739
2013-12-04,-0.01584699453552394
2013-12-05,-0.09677419354839135
2013-12-06,0.24776785714285635
2013-12-09,0.15044858523119423
2013-12-10,-0.08361581920904193
2013-12-11,-0.16190476190475822
2013-12-12,0.19513484928609648
2013-12-13,0.051439232409382474
2013-12-16,-0.15672396359959562
2013-12-17,0.10416666666666838
2013-12-18,0.15266781411359726
2013-12-19,-0.03953712632594118
2013-12-20,-0.4169154228855718
2013-12-23,0.10822898032200312
2013-12-24,0.024228395061724806
2013-12-25,0.04567105631829611
2013-12-26,-0.17838874680307093
2013-12-27,-0.002469135802475292
2013-12-30,0.03296703296703126
2013-12-31,0.03160493827160703
2014-01-02,-0.10635280771412789
2014-01-03,0.19551458447991438
2014-01-06,0.11227305737110356
2014-01-07,0.012908777969023816
2014-01-08,-0.1822222222222204
2014-01-09,0.17073170731707693
2014-01-10,-0.11896011977678242
2014-01-13,0.023529411764702815
2014-01-14,-0.17422498984703094
2014-01-15,0.07654320987654142
2014-01-16,-0.20914634146341637
2014-01-17,0.029497239174659507
2014-01-20,0.3561643835616419
2014-01-21,0.05958461014640759
2014-01-22,0.09567901234567856
2014-01-23,0.007692307692309136
2014-01-24,0.1475341320702139
2014-01-27,-0.6016189290161876
2014-01-28,0.27126688572471613
2014-01-29,-0.08333333333333291
2014-01-30,0.01876400298730508
2014-02-07,-0.1340206185566992
2014-02-10,0.32708719851577117
2014-02-11,-0.4202091384405529
2014-02-12,-0.05747126436781567
2014-02-13,0.0973241771252646
2014-02-14,-0.18604651162790684
2014-02-17,0.07551020408163034
2014-02-18,0.17924528301886528
2014-02-19,0.05747126436781405
2014-02-20,-0.048780487804879355
2014-02-21,0.21073786965259686
2014-02-24,-0.19328743545611013
2014-02-25,0.01250000000000152
2014-02-26,-0.012345679012343968
2014-02-27,-0.04999999999999838
2014-02-28,0.04109811565951757
2014-03-03,-0.16138628588427653
2014-03-04,0.37211538461538474
2014-03-05,0.0345679012345679
2014-03-06,0.2021739130434782
2014-03-07,0.12288977159881116
2014-03-10,0.18165784832451515
2014-03-11,-0.2959057071960289
2014-03-12,0.11851851851851902
2014-03-13,-0.23658949745906238
2014-03-14,-0.23921427808339857
2014-03-17,0.055927308968160686
2014-03-18,-0.2885513869563562
2014-03-19,-0.34258429146995373
2014-03-20,0.3940844131874014
2014-03-21,-0.032109595298796305
2014-03-24,-0.004018257059109957
2014-03-25,0.32158083997178255
2014-03-26,0.27161099258967686
2014-03-27,-0.4038717273225414
2014-03-28,0.12264462809917513
2014-03-31,-0.020651420651419616
2014-04-01,-0.2581027667984172
2014-04-02,-0.10485516115870905
2014-04-03,0.24874835309617802
2014-04-04,-0.024251968503936176
2014-04-08,0.054382826475850056
2014-04-09,0.1363636363636342
2014-04-10,0.10030511060259165
2014-04-11,-0.3790352504638205
2014-04-14,-0.01574803149606518
2014-04-15,-0.14871481028151848
2014-04-16,0.07619047619047765
2014-04-17,-0.17141208156983434
2014-04-18,0.5116185087896539
2014-04-21,-0.10769230769230609
2014-04-22,0.009981851179674567
2014-04-23,0.025661375661375413
2014-04-24,0.1398081356436387
2014-04-25,-0.4985108266924261
2014-04-28,0.1592386994448832
2014-04-29,0.08857336037863356
2014-04-30,-0.2653133903133915
2014-05-05,0.046846324736791636
2014-05-06,0.21138211382114028
2014-05-07,0.012283395481466834
2014-05-08,-0.029607843137255212
2014-05-09,0.17356254856255088
2014-05-12,-0.04045977011494289
2014-05-13,0.04807692307692034
2014-05-14,-0.13722428264688713
2014-05-15,0.04960396039604001
2014-05-16,0.047041847041844546
2014-05-19,-0.10306306306306359
2014-05-20,-0.0961538461538439
2014-05-21,0.13400055601890654
2014-05-22,0.05563413484205444
2014-05-23,-0.18757763975155217
2014-05-26,0.15306306306306364
2014-05-27,0.048076923076922115
2014-05-28,-0.08812899638587998
2014-05-29,-0.23674752920035916
2014-05-30,0.09746774964166435
2014-06-03,-0.23772727272727356
2014-06-04,0.02666666666666491
2014-06-05,0.04050994876683084
2014-06-06,0.07740686985970206
2014-06-09,0.07406292337799081
2014-06-10,0.05562200956937999
2014-06-11,-0.07014492753622842
2014-06-12,-0.14935064935064765
2014-06-13,0.1693657219972995
2014-06-16,0.0541422048271362
2014-06-17,0.2080472921434007
2014-06-18,0.004517221908524459
2014-06-19,0.20393120393120212
2014-06-20,0.046635576282476845
2014-06-23,-0.13919413919413928
2014-06-24,-0.2653673163418295
2014-06-25,0.06598806598806617
2014-06-26,-0.1070412517780939
2014-06-27,-0.30258366568406314
2014-06-30,-0.03668911733427876
2014-07-01,0.1845130066545677
2014-07-02,0.0407695831424647
2014-07-03,0.07121971595655804
2014-07-04,0.1506849315068496
2014-07-07,0.14218362282878438
2014-07-08,0.12433257055682526
2014-07-09,-0.09279661016949353
2014-07-10,-0.05738705738705754
2014-07-11,0.06578947368421267
2014-07-14,-0.11092117758784448
2014-07-15,-0.26331639375117344
2014-07-16,-0.003985507246373098
2014-07-17,-0.019135093761959335
2014-07-18,-0.12828947368421478
2014-07-21,0.04938271604938058
2014-07-22,0.07056277056276693
2014-07-23,0.04622688655671979
2014-07-24,-0.011084467849342812
2014-07-25,-0.037120733249047494
2014-07-28,0.16427969671441028
2014-07-29,0.02609744331886527
2014-07-30,-0.07555041721122048
2014-07-31,0.23129918374355554
2014-08-01,0.024993867577406917
2014-08-04,-0.08363453542408669
2014-08-05,0.1415642482234258
2014-08-06,0.07146693263771735
2014-08-07,-0.21439963545226776
2014-08-08,0.18273497377975123
2014-08-11,-0.26357199055861324
2014-08-12,-0.2686567164179107
2014-08-13,0.05580762250453654
2014-08-14,0.2002513615416876
2014-08-15,0.11411411411411408
2014-08-18,0.23974501108647284
2014-08-19,0.16658642272508534
2014-08-20,-0.05854885057471046
2014-08-21,-0.3159294978383795
2014-08-22,-0.45392953929539454
2014-08-25,-0.10443722943722568
2014-08-26,-0.08225806451613146
2014-08-27,0.0773026315789446
2014-08-28,0.13851014299966563
2014-08-29,0.1661335465813696
2014-09-01,0.01253132832079714
2014-09-02,0.26818181818182185
2014-09-03,-0.1921969101859115
2014-09-04,0.21612903225806826
2014-09-05,0.1766848816029136
2014-09-09,0.12258771929824805
2014-09-10,-0.24117032392894652
2014-09-11,0.02212467076382972
2014-09-12,-0.34102564102564203
2014-09-15,-0.14096185737976752
2014-09-16,-0.07211538461538523
2014-09-17,-0.09822361546499707
2014-09-18,0.11683569979715835
2014-09-19,0.20769230769230573
2014-09-22,0.3111007462686563
2014-09-23,0.06998123827392184
2014-09-24,0.08750425604358426
2014-09-25,0.1283079390537302
2014-09-26,-0.01666666666666499
2014-09-29,-0.49077380952380867
2014-09-30,-0.22994416691154973
2014-10-08,0.14638392150656704
2014-10-09,0.014424492198996969
2014-10-10,-0.10376344086021616
2014-10-13,0.36861471861471673
2014-10-14,0.13477439168438543
2014-10-15,-0.13247803653604776
2014-10-16,-0.439841452499679
2014-10-17,0.13595522168213411
2014-10-20,-0.3363060989643266
2014-10-21,0.025188536953242344
2014-10-22,-0.010501050105010259
2014-10-23,0.20012626262626376
2014-10-24,-0.1821917808219169
2014-10-27,0.17721518987341842
2014-10-28,-0.107977207977206
2014-10-29,-0.010513296227584373
2014-10-30,0.1901595744680818
2014-10-31,0.06226415094339525
2014-11-03,0.07843137254901841
2014-11-04,0.11077441077440875
2014-11-05,0.11224489795918724
2014-11-06,-0.16099290780141567
2014-11-07,-0.013988288874432799
2014-11-10,-0.1329768270944697
2014-11-11,0.02027972027971996
2014-11-12,-0.20105820105820282
2014-11-13,0.01205673758865233
2014-11-14,0.008245877061468572
2014-11-17,0.009090909090903404
2014-11-18,0.12820512820512997
2014-11-19,0.13200832945393026
2014-11-20,-0.03802281368821325
2014-11-21,0.13320420972864552
2014-11-24,0.1087996288448768
2014-11-25,-0.18126267873930305
2014-11-26,0.01685206940646745
2014-11-27,0.2857145037725174
2014-11-28,-0.08972594885907809
2014-12-01,0.059731839686596636
2014-12-02,0.028294642209622523
2014-12-03,0.0077962577962611065
2014-12-04,-0.2527308838133078
2014-12-05,-0.04054054054053954
2014-12-08,-0.2920910075839692
2014-12-09,-0.06454608776410702
2014-12-10,-0.04488416988417303
2014-12-11,0.008133971291864606
2014-12-12,0.11461461461461397
2014-12-15,0.22073822243807928
2014-12-16,-0.0475131981105851
2014-12-17,-0.0003246753246730176
2014-12-18,-0.1114478114478087
2014-12-19,-0.1379038613081184
2014-12-22,0.35736677115987364
2014-12-23,0.24352194606028654
2014-12-24,0.29987195902688524
2014-12-25,0.14061864061863863
2014-12-26,0.09643848288621719
2014-12-29,-0.5880382775119616
2014-12-30,-0.004135649296941324
2014-12-31,-0.38281373635068716
2015-01-05,0.11401098901099013
2015-01-06,0.16739130434782734
2015-01-07,0.14191033138401388
2015-01-08,-0.2948717948717947
2015-01-09,-0.02387640449438072
2015-01-12,-0.17694805194805274
2015-01-13,-0.48767123287671327
2015-01-14,0.0370370370370411
2015-01-15,0.17307692307692496
2015-01-16,0.10613207547169923
2015-01-19,0.07117882117882281
2015-01-20,0.24993538382010888
2015-01-21,-0.05882352941176861
2015-01-22,-0.08173076923077205
2015-01-23,-0.025576519916143958
2015-01-26,-0.18202146690518772
2015-01-27,0.2044025157232704
2015-01-28,0.05882352941176592
2015-01-29,-0.008928571428568302
2015-01-30,-0.0068376068376066745
2015-02-02,0.13576367064738842
2015-02-03,-0.3055555555555537
2015-02-04,0.09677419354838467
2015-02-05,0.10084033613445426
2015-02-06,0.16556776556776132
2015-02-09,0.15523215523215542
2015-02-10,0.1388888888888871
2015-02-11,-0.2331378299120183
2015-02-12,-0.10835913312693898
2015-02-13,-0.08571428571427946
2015-02-16,-0.32264957264957295
2015-02-17,0.13793103448275404
2015-02-25,0.3484848484848451
2015-02-26,0.22894736842105545
2015-02-27,-0.006832298136646382
2015-03-02,0.1944444444444492
2015-03-03,-0.2655906089508393
2015-03-04,-0.2609016999260896
2015-03-05,0.05512820512820443
2015-03-06,-0.10684551341350779
2015-03-09,0.16279069767441762
2015-03-10,0.2476595744680853
2015-03-11,0.030923344947734056
2015-03-12,-0.44149184149184084
2015-03-13,0.06129685916920129
2015-03-16,-0.3091321610890577
2015-03-17,-0.17714285714285727
2015-03-18,0.10876623376623731
2015-03-19,0.3196969696969669
2015-03-20,0.023809523809522195
2015-03-23,0.19762351469669204
2015-03-24,0.032752613240420024
2015-03-25,0.05909090909090613
2015-03-26,0.04710144927536379
2015-03-27,0.23076923076923025
2015-03-30,-0.05128205128205698
2015-03-31,0.04310364068135347
2015-04-01,-0.2543341567482571
2015-04-02,-0.16017101769043346
2015-04-03,-0.3865137136882437
2015-04-07,-0.05996143368736358
2015-04-08,0.026741148675630304
2015-04-09,0.03911676544390834
2015-04-10,0.029736235081738248
2015-04-13,0.41155843640738254
2015-04-14,0.05996143368736576
2015-04-15,-0.10101010101010112
2015-04-16,0.14364876385336833
2015-04-17,-0.05454545454545353
2015-04-20,-0.22696779964221572
2015-04-21,0.009345794392522233
2015-04-22,0.1574074074074055
2015-04-23,-0.10364145658263209
2015-04-24,0.20109717868338522
2015-04-27,-0.02884615384615338
2015-04-28,0.11847375447965872
2015-04-29,-0.03518518518518614
2015-04-30,0.025210084033613096
2015-05-04,-0.04655172413793382
2015-05-05,0.0056818181818190745
2015-05-06,-0.1730172889851751
2015-05-07,-0.1613412228796821
2015-05-08,0.19607843137254935
2015-05-11,-0.2584699453551885
2015-05-12,-0.10308441558441661
2015-05-13,-0.005161972117222038
2015-05-14,0.20831091984938116
2015-05-15,-0.4341736694677879
2015-05-18,0.08704137392661958
2015-05-19,-0.08528971028971143
2015-05-20,0.08565382987727446
2015-05-21,-0.22727272727272785
2015-05-22,0.3534798534798522
2015-05-25,0.048440065681443864
2015-05-26,0.32386877828054583
2015-05-27,-0.05591267434808986
2015-05-28,-0.002153110047846074
2015-05-29,-0.07967032967032847
2015-06-01,0.16091954022988728
2015-06-02,-0.20178253119429673
2015-06-03,0.009865868528986776
2015-06-04,0.23535469107551393
2015-06-05,-0.02600554785020602
2015-06-08,-0.2533156498673738
2015-06-09,0.02799736495388349
2015-06-10,0.1680560589585637
2015-06-11,-0.22636133389615753
2015-06-12,-0.10753482482060234
2015-06-15,0.13948100092678312
2015-06-16,0.07966751918158954
2015-06-17,-0.04494382022471803
2015-06-18,0.11689712660586556
2015-06-19,0.12782608695652237
2015-06-23,-0.033805123406248555
2015-06-24,-0.027450980392157757
2015-06-25,-0.2854364736387258
2015-06-26,-0.05661263800799309
2015-06-29,-0.15195121951219506
2015-06-30,0.32915318230852497
2015-07-01,0.0646026831785339
2015-07-02,0.14395070948469485
2015-07-03,0.21651162790698228
2015-07-06,0.4296435272045055
2015-07-07,-0.30637254901960886
2015-07-08,0.10933786078098477
2015-07-09,0.6129099973760123
2015-07-10,-0.14269624573378867
2015-07-13,-0.3907487860976263
2015-07-14,-0.020318272236431366
2015-07-15,-0.3139863433011536
2015-07-16,-1.002870920713243
2015-07-17,-0.1558751828376427
2015-07-20,0.16502369152007101
2015-07-21,0.06027667984189603
2015-07-22,0.1779919130389117
2015-07-23,0.3646653682219761
2015-07-24,0.10698869475848087
2015-07-27,-0.12608486017357537
2015-07-28,-0.214568764568763
2015-07-29,-0.039205332981323185
2015-07-30,0.21658393086964978
2015-07-31,0.01383079582845425
2015-08-03,-0.002757352941180388
2015-08-04,0.17793190416141375
2015-08-05,-0.16350991417578956
2015-08-06,-0.3791432942376367
2015-08-07,0.08004109461100335
2015-08-10,0.0019311797752840157
2015-08-11,0.05770234434048298
2015-08-12,0.5411019732277464
2015-08-13,0.319567664610908
2015-08-14,-0.10277413952679063
2015-08-17,0.18758044029228926
2015-08-18,-0.16805551850706102
2015-08-19,-0.6551999421644252
2015-08-20,-0.10258653253543372
2015-08-21,0.010484982900285125
2015-08-24,0.041036849320184865
2015-08-25,0.10258042119879918
2015-08-26,0.5242165242165231
2015-08-27,-0.006756756756760095
2015-08-28,0.14925170068026777
2015-08-31,-0.3523481681829375
2015-09-01,0.049350324837579826
2015-09-02,-0.4087928813956193
2015-09-07,-0.0012432432432424216
2015-09-08,-0.20183234584156137
2015-09-09,0.21215295966474457
2015-09-10,-0.13297101449275417
2015-09-11,0.1348266074293453
2015-09-14,0.08072727272727269
2015-09-15,-0.029114270092945205
2015-09-16,-0.0057424118129600354
2015-09-17,0.04772727272727366
2015-09-18,0.018354803401533455
2015-09-21,-0.06346801346801233
2015-09-22,0.15674078681387024
2015-09-23,-0.15077932731747296
2015-09-24,0.04688057040998202
2015-09-25,-0.10549964054636894
2015-09-28,-0.09436564223798616
2015-09-29,-0.11318540644335622
2015-09-30,0.06366076221148807
2015-10-08,-0.07155589508530488
2015-10-09,0.3564278187565857
2015-10-12,0.2155411655874222
2015-10-13,0.03890876565295166
2015-10-14,0.06899055918663477
2015-10-15,0.042332667332665344
2015-10-16,-0.48357494347652674
2015-10-19,-0.3179347826086959
2015-10-20,0.11153846153846433
2015-10-21,-0.06186136426401209
2015-10-22,0.2449095022624416
2015-10-23,0.3780628756356922
2015-10-26,0.14626288659793774
2015-10-27,-0.15682382133995137
2015-10-28,0.09972478549457248
2015-10-29,-0.420076726342708
2015-10-30,-0.34142857142857086
2015-11-02,-0.057123542335640314
2015-11-03,0.13724340175952937
2015-11-04,-0.14221702707967976
2015-11-05,0.22181964573268542
2015-11-06,0.29380952380951947
2015-11-09,0.09836065573769791
2015-11-10,-0.1372434017595341
2015-11-11,-0.018702513150203756
2015-11-12,-0.056267806267806225
2015-11-13,0.030112044817931338
2015-11-16,0.06896551724138607
2015-11-17,0.16129032258065384
2015-11-18,0.26521298174442437
2015-11-19,0.4622687439143203
2015-11-20,-0.04076367389060927
2015-11-23,-0.028965517241383174
2015-11-24,0.08784119106699327
2015-11-25,0.06751916813836092
2015-11-26,-0.4428348074127272
2015-11-27,-0.05127431088144068
2015-11-30,0.05723578898918465
2015-12-01,-0.2346647908088723
2015-12-02,-0.3191715144701548
2015-12-03,-0.13600563640662477
2015-12-04,-0.009502631474449089
2015-12-07,-0.16620130623056262
2015-12-08,-0.01661726047317829
2015-12-09,0.12957018013198127
2015-12-10,0.1281688813495448
2015-12-11,-0.20494505494505438
2015-12-14,0.0967432950191576
2015-12-15,0.08468468468468363
2015-12-16,-0.2697710352577635
2015-12-17,0.0076335877862587255
2015-12-18,0.33015030946064916
2015-12-21,-0.0376787678767873
2015-12-22,-0.008018018018016734
2015-12-23,0.28949443616928006
2015-12-24,0.0
2015-12-25,-0.3478354280803472
2015-12-28,-0.08205303288949861
2015-12-29,0.16721518987341527
2015-12-30,0.06962631747045907
2015-12-31,0.1333333333333323
2016-01-04,0.3465797533966844
2016-01-05,0.08470764617691402
2016-01-06,-0.2575071606763364
2016-01-07,-0.2004608294930914
2016-01-08,-0.21025641025640987
2016-01-11,-0.28003423591658727
2016-01-12,0.22829900839054063
2016-01-13,0.16649886735464553
2016-01-14,0.11111111111111374
2016-01-15,0.06928948913681898
2016-01-18,0.28960113960113665
2016-01-19,-0.30000000000000077
2016-01-20,-0.17192118226601233
2016-01-21,-0.10999503968254079
2016-01-22,0.1252806466097874
2016-01-25,-0.3421631000578355
2016-01-26,0.07894736842105358
2016-01-27,0.11298701298701476
2016-01-28,0.10571073008849607
2016-01-29,-0.24585218702865552
2016-02-01,0.18273625239569613
2016-02-02,-0.12621359223300768
2016-02-03,-0.16060606060606247
2016-02-04,-0.11232130701157184
2016-02-05,0.1004273504273492
2016-02-15,0.13305322128851294
2016-02-16,0.31371359223300765
2016-02-17,0.22807017543859787
2016-02-18,0.105769230769231
2016-02-19,0.14927310488057904
2016-02-22,0.03214285714285822
2016-02-23,-0.15913120567376055
2016-02-24,-0.025771324863884504
2016-02-25,0.022766749379651553
2016-02-26,-0.09695544980218682
2016-02-29,-0.27080838323353207
2016-03-01,-0.05485886055140479
2016-03-02,-0.13019000703729758
2016-03-03,-0.04436652641421296
2016-03-04,0.018625590325284318
2016-03-07,0.15787734875077422
2016-03-08,0.4550614947965943
2016-03-09,0.13395176252319196
2016-03-10,0.13258413166298438
2016-03-11,-0.04316546762589984
2016-03-14,-0.013741827970774091
2016-03-15,-0.6909827760891594
2016-03-16,-0.16407342657342716
2016-03-17,-0.17686754551161504
2016-03-18,0.016483516483517695
2016-03-21,-0.11319200241133326
2016-03-22,0.2681916943385403
2016-03-23,0.21778293545534966
2016-03-24,-0.07010582010581967
2016-03-25,-0.14791208791208799
2016-03-28,-0.014082503556186496
2016-03-29,-0.027208918249382017
2016-03-30,-0.2359258327040863
2016-03-31,0.04976580796252869
2016-04-01,0.20818039007177835
2016-04-05,0.08431448821340592
2016-04-06,0.14693256902813642
2016-04-07,0.16361350679559178
2016-04-08,0.06434253262808405
2016-04-11,0.013570762001954645
2016-04-12,0.08930743642066509
2016-04-13,0.07449600240043588
2016-04-14,0.0044341028578572805
2016-04-15,0.14197068676501015
2016-04-18,0.1985663082437269
2016-04-19,-0.028582602190030518
2016-04-20,-0.15148247978436685
2016-04-21,0.05712267537460375
2016-04-22,-0.06368271399156761
2016-04-25,-0.31436659589525834
2016-04-26,0.06026970175043192
2016-04-27,-0.07172835193710302
2016-04-28,-0.20479014482425156
2016-04-29,-0.0896012823081549
2016-05-03,0.08661307818540845
2016-05-04,-0.28685548293391366
2016-05-05,0.04036769446656722
2016-05-06,0.18067517595132992
2016-05-09,0.1125155965063827
2016-05-10,-0.16671306042206682
2016-05-11,0.1627209986526984
2016-05-12,-0.10160130718954162
2016-05-13,-0.04302257573985225
2016-05-16,-0.2840936963453522
2016-05-17,0.11400465553516304
2016-05-18,0.031199012351805302
2016-05-19,0.15991614255765085
2016-05-20,-0.1638319098717668
2016-05-23,0.36289476445283897
2016-05-24,-0.008426966292135714
2016-05-25,-0.07638561105164758
2016-05-26,-0.12035947866183469
2016-05-27,0.10484435632161357
2016-05-30,-0.395412110294723
2016-05-31,-0.13333333333333253
2016-06-01,0.027574811823022065
2016-06-02,0.0019190305486272638
2016-06-03,-0.01812756434166396
2016-06-06,0.2504600784904989
2016-06-07,0.10510752688171998
2016-06-08,0.002936482604531627
2016-06-13,0.1228006827731111
2016-06-14,0.16086714841578653
2016-06-15,-0.0866903462415885
2016-06-16,-0.0005511719656525749
2016-06-17,0.012448132780083538
2016-06-20,-0.1761282290694069
2016-06-21,-0.26754162148370253
2016-06-22,0.26268301819188516
2016-06-23,0.005430674915320094
2016-06-24,0.07968127490039877
2016-06-27,0.19961732950662828
2016-06-28,0.09845660398048274
2016-06-29,-0.38120392311742957
2016-06-30,0.03579443628202802
2016-07-01,-0.2190255371954804
2016-07-04,-0.14141627130556905
2016-07-05,0.21500711944103862
2016-07-06,0.19260620915032664
2016-07-07,0.08551105089338683
2016-07-08,0.22856359315009933
2016-07-11,-0.01651227043718651
2016-07-12,-0.13850663044643596
2016-07-13,-0.05718954248366052
2016-07-14,-0.062244897959183865
2016-07-15,-0.11335726188949972
2016-07-18,0.24895379828507405
2016-07-19,-0.17876444577361045
2016-07-20,-0.06156930126002294
2016-07-21,0.0020215633423189897
2016-07-22,-0.004952978056427297
2016-07-25,-0.2879792485541487
2016-07-26,0.12665656022299335
2016-07-27,0.1855813886612327
2016-07-28,-0.12552210859858895
2016-07-29,0.09603651578546962
2016-08-01,0.04265256664463541
2016-08-02,0.06611570247933851
2016-08-03,-0.15505783903519688
2016-08-04,0.07111959287531718
2016-08-05,-0.07542018296574608
2016-08-08,0.24328808446455585
2016-08-09,0.08965016736277871
2016-08-10,0.1779457864650561
2016-08-11,0.033473389355743115
2016-08-12,-0.054886305271514634
2016-08-15,-0.19819004524886963
2016-08-16,-0.1628667300958931
2016-08-17,-0.17759028382279365
2016-08-18,0.11756844519189136
2016-08-19,0.08253440017160063
2016-08-22,-0.16632673027679
2016-08-23,-0.036882267489805484
2016-08-24,-0.010714363167604123
2016-08-25,-0.23572651923231847
2016-08-26,0.025939263325986936
2016-08-29,0.27292850767839844
2016-08-30,-0.061267236865071684
2016-08-31,0.24696016771488458
2016-09-01,0.11078531361550237
2016-09-02,0.05769095636287073
2016-09-05,-0.0724708368898103
2016-09-06,0.10665804783451836
2016-09-07,-0.10833333333333264
2016-09-08,-0.02242097525116314
2016-09-09,-0.15280373831775784
2016-09-12,-0.0171682551606484
2016-09-13,0.11235887400270946
2016-09-14,-0.2311359867330026
2016-09-19,0.04562796254190736
2016-09-20,0.1649425287356321
2016-09-21,-0.07551332210069533
2016-09-22,-0.026989697724442305
2016-09-23,0.23861461921163438
2016-09-26,-0.06835523526918093
2016-09-27,-0.24827586206896596
2016-09-28,0.06728199253972517
2016-09-29,-0.054493801652891694
2016-09-30,-0.12427683736875933
2016-10-10,0.050334168755221356
2016-10-11,0.14486071085494845
2016-10-12,0.014245014245013402
2016-10-13,-0.1487379042526108
2016-10-14,0.36568173472221027
2016-10-17,0.05367279988589489
2016-10-18,0.11176029371126187
2016-10-19,0.09062956014175631
2016-10-20,0.21692493511165767
2016-10-21,-0.4228810940067128
2016-10-24,-0.09842450966882776
2016-10-25,-0.035909030456175925
2016-10-26,-0.07022357723577169
2016-10-27,-0.022668919452380365
2016-10-28,0.2144077239305084
2016-10-31,0.06652192863428318
2016-11-01,-0.0143449329115332
2016-11-02,-0.09116492146596922
2016-11-03,-0.1387101458590756
2016-11-04,-0.15612326091674192
2016-11-07,0.13575387306858996
2016-11-08,0.05647230014551306
2016-11-09,0.3243505006621852
2016-11-10,0.26214288011836984
2016-11-11,0.1026066848854326
2016-11-14,-0.0988106416275427
2016-11-15,-0.08188696039163298
2016-11-16,-0.37542866220016924
2016-11-17,-0.2881749576466958
2016-11-18,-0.02120730921476665
2016-11-21,-0.18619836885030241
2016-11-22,-0.15882901203185962
2016-11-23,0.044683022943891135
2016-11-24,0.13554648103872646
2016-11-25,-0.15126638185249977
2016-11-28,0.03612084947045678
2016-11-29,0.0117137427503443
2016-11-30,0.10936816555545892
2016-12-01,-0.04944540129768511
2016-12-02,0.2285046716337643
2016-12-05,0.15883974594608258
2016-12-06,0.06594251078768287
2016-12-07,0.011572723520146398
2016-12-08,-0.05391839855173741
2016-12-09,-0.14509152182451696
2016-12-12,-0.0306747209279863
2016-12-13,0.010387687708762083
2016-12-14,-0.08854881320526778
2016-12-15,0.0630900265046598
2016-12-16,-0.10605299711507625
2016-12-19,-0.0751175214360395
2016-12-20,0.08141845035048843
2016-12-21,-0.10688859073382294
2016-12-22,0.08003677209917119
2016-12-23,0.17325826882477036
2016-12-26,0.11258557135334481
2016-12-27,-0.12385009482294917
2016-12-28,0.20163925823087742
2016-12-29,-0.1768489244312203
2016-12-30,-0.07188113260442963
2017-01-03,-0.22571321321321353
2017-01-04,0.06168377331363174
2017-01-05,-0.16334987387707506
2017-01-06,0.12696414950419313
2017-01-09,0.10943227228882613
2017-01-10,0.15461088558914585
2017-01-11,-0.01356183383048902
2017-01-12,0.12195889017448666
2017-01-13,-0.0723297310882104
2017-01-16,0.10776408149289454
2017-01-17,0.11577508257079523
2017-01-18,0.018986302173468122
2017-01-19,0.0029659172881690843
2017-01-20,0.1518146220738045
2017-01-23,-0.3150764943868398
2017-01-24,-0.3084082696024878
2017-01-25,-0.014521726434484775
2017-01-26,0.05420490664757863
2017-02-03,-0.025571847507331172
2017-02-06,0.1256166788400684
2017-02-07,0.10817995910020317
2017-02-08,-0.013121251764826217
2017-02-09,-0.15084105663530306
2017-02-10,-0.1702111324376201
2017-02-13,0.07928208891334677
2017-02-14,0.0706114398422117
2017-02-15,0.09489468315957286
2017-02-16,0.13599323897716642
2017-02-17,-0.05264601041952159
2017-02-20,-0.0856845101926662
2017-02-21,-0.03863865072656257
2017-02-22,-0.030707310690863056
2017-02-23,-0.19428761830597846
2017-02-24,0.2780552780552752
2017-02-27,-0.03937722141131712
2017-02-28,0.01947648624666917
2017-03-01,0.08115032972571912
2017-03-02,0.0651289282027176
2017-03-03,-0.17721494192082393
2017-03-06,0.11026603984293726
2017-03-07,0.03600741209436898
2017-03-08,-0.35342118396029265
2017-03-09,0.1755056863485676
2017-03-10,0.030083632498346453
2017-03-13,0.07561022120518782
2017-03-14,-0.06779856779856432
2017-03-15,0.2656060204761952
2017-03-16,-0.12088344125809483
2017-03-17,0.005368622802026787
2017-03-20,-0.25598544340164847
2017-03-21,0.05708411375917359
2017-03-22,-0.021415072185008134
2017-03-23,0.021336553945248842
2017-03-24,-0.056695789210286986
2017-03-27,0.23204416728645716
2017-03-28,0.006356358132001486
2017-03-29,0.04776165821013338
2017-03-30,-0.08468381044800129
2017-03-31,0.12103354753075843
2017-04-05,-0.14991635883383508
2017-04-06,-0.041779055385324684
2017-04-07,0.13668022891782414
2017-04-10,0.2641361345300222
2017-04-11,-0.02426350672178708
2017-04-12,0.11168223800585776
2017-04-13,0.07007556500748732
2017-04-14,-0.22805609320298567
2017-04-17,-0.26388739206139156
2017-04-18,-0.03010833963214891
2017-04-19,-0.17673396193671498
2017-04-20,0.09215369477277421
2017-04-21,-0.09177891646977923
2017-04-24,0.1384539051722029
2017-04-25,-0.04991298845119566
2017-04-26,0.17038827233122403
2017-04-27,-0.26055704093834586
2017-04-28,0.09719225374905514
2017-05-02,-0.25555564370889144
2017-05-03,0.09753203607024251
2017-05-04,0.02546494471666181
2017-05-05,0.1348356259464939
2017-05-08,0.03484832300790313
2017-05-09,0.19110795661352623
2017-05-10,-0.0728544692986357
2017-05-11,-0.06505721220527158
2017-05-12,-0.00897730817217755
2017-05-15,0.08705940065503918
2017-05-16,-0.012354092402321503
2017-05-17,-0.012302485049367408
2017-05-18,-0.24061664686664677
2017-05-19,0.032391061971569525
2017-05-22,-0.17337343392083954
2017-05-23,0.10014689843976084
2017-05-24,0.0929600755965001
2017-05-25,0.2158797593580215
2017-05-26,-0.11932023079697127
2017-05-31,0.36540580242379384
2017-06-01,-0.13744626066165525
2017-06-02,-0.12994421906693432
2017-06-05,0.032577871930236715
2017-06-06,0.0802412582073589
2017-06-07,-0.5866192630898488
2017-06-08,0.006432538255625231
2017-06-09,0.11152473005921267
2017-06-12,-0.10135982399627551
2017-06-13,-0.100025112220232
2017-06-14,0.5693874676479358
2017-06-15,0.078712252069807
2017-06-16,-0.06400286046303844
2017-06-19,0.25548744121471545
2017-06-20,0.16830512692881944
2017-06-21,-0.35001726245462506
2017-06-22,-0.05032116484326309
2017-06-23,0.002490640639473695
2017-06-26,-0.3217563374891059
2017-06-27,-0.03565051020408342
2017-06-28,0.11192990896037085
2017-06-29,0.19923442470174108
2017-06-30,0.043440685622997195
2017-07-03,0.15445659853976185
2017-07-04,0.10313991646778262
2017-07-05,-0.03250484141946817
2017-07-06,-0.3494670932415327
2017-07-07,-0.05759698983067565
2017-07-10,-0.03265608760678269
2017-07-11,-0.1975779138152597
2017-07-12,-0.0575493862677396
2017-07-13,0.35100885905354673
2017-07-14,0.05303098108913198
2017-07-17,0.19272315295312697
2017-07-18,0.021821471923747796
2017-07-19,0.15500277161862497
2017-07-20,-0.2672554032070674
2017-07-21,0.10284753762578877
2017-07-24,-0.19466988107032088
2017-07-25,0.0644118441488305
2017-07-26,-0.19690618070953292
2017-07-27,0.06605351170568667
2017-07-28,-0.13380084827453037
2017-07-31,0.11783524161106324
2017-08-01,-0.06647902317854104
2017-08-02,0.08457736199575298
2017-08-03,0.12102075312235883
2017-08-04,-0.050806853115708046
2017-08-07,-0.1010882284893881
2017-08-08,0.1711854574837137
2017-08-09,0.17632285562610936
2017-08-10,-0.16562869169413147
2017-08-11,0.20464546733168076
2017-08-14,-0.10740516535156286
2017-08-15,-0.10607700598136904
2017-08-16,-0.25370857854901574
2017-08-17,0.23829286027910887
2017-08-18,-0.25657143008634753
2017-08-21,0.2463825648036166
2017-08-22,-0.09074636763262012
2017-08-23,0.16556291390728478
2017-08-24,-0.31573653114218675
2017-08-25,0.1765256896632472
2017-08-28,-0.18517071164129906
2017-08-29,0.2732548216419167
2017-08-30,-0.1137764876350514
2017-08-31,0.13752240164610643
2017-09-01,-0.07281980106407501
2017-09-04,0.1351577416128732
2017-09-05,-0.33174001924001756
2017-09-06,0.0670942385764873
2017-09-07,0.052815040948718896
2017-09-08,0.039363061724983536
2017-09-11,-0.1453676405504215
2017-09-12,0.0964139054092312
2017-09-13,-0.0567678684376966
2017-09-14,-0.12741626794258304
2017-09-15,0.09292236332084541
2017-09-18,-0.03073127753304157
2017-09-19,0.011460895228725575
2017-09-20,0.11663867492905303
2017-09-21,0.29350993377483403
2017-09-22,-0.26486194169200916
2017-09-25,0.18610126582278863
2017-09-26,0.04730269477729022
2017-09-27,-0.17017526582783218
2017-09-28,-0.3358176260825273
2017-09-29,0.16212127963452327
2017-10-09,-0.12365492851443985
2017-10-10,-0.09092924366699544
2017-10-11,0.1401017715197762
2017-10-12,0.10697909550485218
2017-10-13,0.06838326318395814
2017-10-16,-0.015564758360979467
2017-10-17,0.15219685974402952
2017-10-18,-0.12381738466726988
2017-10-19,-0.015044917628399374
2017-10-20,-0.12210943302797767
2017-10-23,0.026729931843999397
2017-10-24,-0.10401146849294494
2017-10-25,0.08438015703823801
2017-10-26,-0.15361915956143501
2017-10-27,-0.05229664869517666
2017-10-30,-0.1072660120079116
2017-10-31,0.0016276765675221246
2017-11-01,-0.014869888475839308
2017-11-02,0.41906309652788687
2017-11-03,0.027605823158187853
2017-11-06,0.16502799519244798
2017-11-07,-0.052663566050168295
2017-11-08,-0.049627791563271954
2017-11-09,-0.26073621887986065
2017-11-10,0.15127164924325376
2017-11-13,-0.08473602438952921
2017-11-14,0.04644142507122059
2017-11-15,0.30936805130353423
2017-11-16,-0.14309709025328993
2017-11-17,-0.17596999011806386
2017-11-20,0.11106762424740535
2017-11-21,0.052917827563832204
2017-11-22,-0.24270862956994393
2017-11-23,0.24967197750703063
2017-11-24,0.22613519091847256
2017-11-27,-0.11201278614147112
2017-11-28,0.01811758311441094
2017-11-29,-0.23733814358027613
2017-11-30,-0.027027027027027625
2017-12-01,-0.2581939034487861
2017-12-04,0.18857475271240623
2017-12-05,-0.03097503843810352
2017-12-06,0.30062364207565295
2017-12-07,0.1903305813420485
2017-12-08,0.20593438025254154
2017-12-11,-0.13577230778102584
2017-12-12,0.022841614534776313
2017-12-13,-0.11170086618352419
2017-12-14,-0.43536139338316904
2017-12-15,-0.13305538277371615
2017-12-18,0.008337639090056716
2017-12-19,-0.11954178710707211
2017-12-20,0.0494560266744572
2017-12-21,0.17325920180796972
2017-12-22,0.005202597365448709
2017-12-25,0.022575475781079043
2017-12-26,0.04568522322626174
2017-12-27,0.07452030343596802
2017-12-28,-0.06744002050390413
2017-12-29,0.0906779283565386
2018-01-02,-0.248772208580096
2018-01-03,0.06802704555065654
2018-01-04,-0.18006304176517068
2018-01-05,0.11418967048193393
2018-01-08,-0.0758541528053567
2018-01-09,0.12552290886020656
2018-01-10,-0.037015344171190644
2018-01-11,0.06512408045749182
2018-01-12,-0.047431532198371824
2018-01-15,-0.026935542986914442
2018-01-16,0.37667425897278667
2018-01-17,-0.00895157388154097
2018-01-18,-0.010907788054509471
2018-01-19,-0.0479396279396286
2018-01-22,0.13260236551392962
2018-01-23,-0.4394111400007344
2018-01-24,-0.03051643192488345
2018-01-25,0.13325415676959362
2018-01-26,0.03779447897095091
2018-01-29,-0.1379498751135369
2018-01-30,0.05498293753046911
2018-01-31,0.13431701319025058
2018-02-01,-0.23081395348837036
2018-02-02,0.1658737681755568
2018-02-05,0.13885336150809557
2018-02-06,0.11924497140987572
2018-02-07,-0.1679797224299816
2018-02-08,0.13364681467817174
2018-02-09,-0.1612814844207597
2018-02-12,-0.24495643529618244
2018-02-13,-0.09471808883801724
2018-02-14,0.046612201062459814
2018-02-22,0.20094072371586028
2018-02-23,-0.07051520464729585
2018-02-26,0.2557895356596144
2018-02-27,0.1246296216773306
2018-02-28,0.04409692871231445
2018-03-01,-0.34663072776280346
2018-03-02,0.0370204508135577
2018-03-05,-0.14960861056751554
2018-03-06,-0.04819749216300837
2018-03-07,0.16123706313853484
2018-03-08,0.21610555050045288
2018-03-09,0.15741133248551753
2018-03-12,0.13200916730328666
2018-03-13,-0.048677069199459896
2018-03-14,-0.12951833463984141
2018-03-15,-0.0979397656680002
2018-03-16,-0.21865304436014166
2018-03-19,-0.020889037433156427
2018-03-20,0.1478255622158758
2018-03-21,-0.16544366674192904
2018-03-22,0.04672992551780334
2018-03-23,0.4430925654235902
2018-03-26,-0.1347853535353532
2018-03-27,-0.15886377773170055
2018-03-28,0.14202672705666128
2018-03-29,0.135974976524945
2018-03-30,-0.48043063633927585
2018-04-02,0.12875328628753152
2018-04-03,0.022207857501973197
2018-04-04,0.01717376815412906
2018-04-09,-0.34295978057719734
2018-04-10,0.008995664182444352
2018-04-11,-0.11522349294122411
2018-04-12,0.11369432957285203
2018-04-13,-0.11110646131954843
2018-04-16,0.33745447504114146
2018-04-17,0.3314668876076653
2018-04-18,0.07860030356401378
2018-04-19,-0.06960182077445766
2018-04-20,0.13129140544748955
2018-04-23,-0.055121065085328144
2018-04-24,-0.29383082094785296
2018-04-25,-0.011322016102238536
2018-04-26,-0.08285256410256725
2018-04-27,-0.09644311772743028
2018-05-02,-0.24405384006333886
2018-05-03,0.09956709956710012
2018-05-04,0.018749999999996415
2018-05-07,0.2734928032090604
2018-05-08,-0.07314733861391201
2018-05-09,0.07829059829059526
2018-05-10,-0.05198776758409733
2018-05-11,-0.06391129032257997
2018-05-14,-0.47548084894710607
2018-05-15,0.39024304662097375
2018-05-16,0.11873578060628484
2018-05-17,0.15472749361149296
2018-05-18,0.09485073131637192
2018-05-21,0.37635934751319555
2018-05-22,-0.38777265745007733
2018-05-23,0.11083431762053064
2018-05-24,-0.1592949959502724
2018-05-25,-0.0742126017567337
2018-05-28,-0.011702092492811816
2018-05-29,0.21353689567430026
2018-05-30,-0.2600446045633903
2018-05-31,0.1483920046167538
2018-06-01,-0.005850671012757786
2018-06-04,-0.20860873662246776
2018-06-05,-0.22340139431928774
2018-06-06,0.03443339679853491
2018-06-07,-0.17708263633322174
2018-06-08,0.044710749338424456
2018-06-11,0.06844054663885357
2018-06-12,0.2014020140201419
2018-06-13,0.08822670172363223
2018-06-14,0.061990087685854595
2018-06-15,0.023078048423672483
2018-06-19,0.35387823669118823
2018-06-20,-0.10737084870848747
2018-06-21,0.006881013274877883
2018-06-22,0.02077442437532871
2018-06-25,-0.03492740379734151
2018-06-26,-0.5199121344018213
2018-06-27,-0.005713166144200213
2018-06-28,-0.07262602095536862
2018-06-29,-0.0008856137888440712
2018-07-02,0.07183676213527238
2018-07-03,0.1046631396600952
2018-07-04,0.0633008854424443
2018-07-05,-0.008911973756151173
2018-07-06,0.03908128908129152
2018-07-09,-0.29501397949674146
2018-07-10,0.1435965937552211
2018-07-11,0.003210153042180419
2018-07-12,0.0467490969713803
2018-07-13,-0.039829512051733955
2018-07-16,0.22895411798233262
2018-07-17,-0.031626287538086315
2018-07-18,-0.24967998616156198
2018-07-19,0.12265506168666716
2018-07-20,-0.11109214693444226
2018-07-23,0.002152203856747298
2018-07-24,-0.01335136048673105
2018-07-25,0.4238173469817579
2018-07-26,-0.26385584633007586
2018-07-27,0.27020737327189137
2018-07-30,0.1930465367965392
2018-07-31,0.041125862196838586
2018-08-01,-0.22285189982728576
2018-08-02,0.2224921277552888
2018-08-03,-0.16802931596091256
2018-08-06,-0.13745660280313782
2018-08-07,0.050716083479965715
2018-08-08,-0.006677350427352943
2018-08-09,-0.1296354694968766
2018-08-10,0.13475761642462117
2018-08-13,-0.14965756833845276
2018-08-14,-0.08693501085471719
2018-08-15,0.08202967397121126
2018-08-16,0.19037352152349418
2018-08-17,-0.07044624918166073
2018-08-20,0.18121194328814227
2018-08-21,0.036611340716806266
2018-08-22,0.06176999614424998
2018-08-23,-0.15004176112635798
2018-08-24,-0.15811217387399154
2018-08-27,-0.1093256814921088
2018-08-28,-0.13755411255411193
2018-08-29,-0.2922685669287288
2018-08-30,-0.06725435272147957
2018-08-31,0.040738168568953084
2018-09-03,-0.02823529411764631
2018-09-04,0.04990842490842406
2018-09-05,0.10813048147485296
2018-09-06,0.20122887864823305
2018-09-07,0.1491590466747446
2018-09-10,0.025250737463125044
2018-09-11,0.2279287578688767
2018-09-12,0.2075596588955385
2018-09-13,-0.21699654264598617
2018-09-14,-0.13196684815297666
2018-09-17,-0.08036641869706034
2018-09-18,-0.30448761567773297
2018-09-19,-0.37814025577906585
2018-09-20,0.23437324969194423
2018-09-21,0.06001086661233389
2018-09-25,0.03650762262587721
2018-09-26,0.13173195967456194
2018-09-27,0.2706486882306893
2018-09-28,-0.20243753235141582
2018-10-08,0.21111111111110958
2018-10-09,0.08458208458208247
2018-10-10,0.2872481899226751
2018-10-11,-0.010772913816691869
2018-10-12,0.048945244549617586
2018-10-15,-0.32101740294511383
2018-10-16,0.0034377387318576397
2018-10-17,-0.40023014959723724
2018-10-18,-0.04352455267821223
2018-10-19,0.05554971657593098
2018-10-22,0.10162804191269224
2018-10-23,-0.006812894649386093
2018-10-24,-0.017980914113512964
2018-10-25,0.0559656050485297
2018-10-26,-0.07463126843657782
2018-10-29,0.04418908238386759
2018-10-30,-0.04954497784092753
2018-10-31,0.11784105397365195
2018-11-01,-0.07846528815158396
2018-11-02,0.1619506966773853
2018-11-05,-0.0954549920067165
2018-11-06,0.047904191616765554
2018-11-07,0.06201669298443599
2018-11-08,0.03694700600356313
2018-11-09,-0.28695069667738693
2018-11-12,0.11113931906011251
2018-11-13,-0.0116413136459983
2018-11-14,-0.00047823144597738954
2018-11-15,-0.014481421753083642
2018-11-16,0.14354043392505053
2018-11-19,-0.20685041477120758
2018-11-20,-0.06545712106352986
2018-11-21,0.029476694309413708
2018-11-22,-0.01923192861879608
2018-11-23,0.04670779302530567
2018-11-26,0.4396767901922517
2018-11-27,0.10919074875517709
2018-11-28,-0.19513451256168807
2018-11-29,0.028086925960636465
2018-11-30,-0.023367885070014804
2018-12-03,-0.03282078164132962
2018-12-04,-0.07542176253122808
2018-12-05,0.11792678498348813
2018-12-06,-0.015382325533238166
2018-12-07,0.1260237571142468
2018-12-10,-0.6021801670652653
2018-12-11,0.037851240814235854
2018-12-12,-0.06860104928280808
2018-12-13,0.3066253578399241
2018-12-14,-0.29925187004475273
2018-12-17,0.37379052455950057
2018-12-18,0.04572092975554275
2018-12-19,0.20652098639838934
2018-12-20,-0.46943660597439896
2018-12-21,0.24187408683964312
2018-12-24,-0.0506088668521541
2018-12-25,-0.011531931744348592
2018-12-26,-0.2844524321166285
2018-12-27,0.2398580121703882
2018-12-28,-0.13622076023392277
2019-01-02,0.09746745675925832
2019-01-03,-0.12816716768754363
2019-01-04,0.20862250262881088
2019-01-07,-0.15257352941176772
2019-01-08,0.036039272030651756
2019-01-09,-0.22627885102380302
2019-01-10,-0.06370354134702591
2019-01-11,0.10445632798573858
2019-01-14,0.18050799086758296
2019-01-15,0.0019801023857816367
2019-01-16,0.16655726668349832
2019-01-17,0.09178166679515537
2019-01-18,-0.3613884813780708
2019-01-21,0.08810539711056016
2019-01-22,0.09077584522181212
2019-01-23,0.07419294644522843
2019-01-24,0.1377217553688155
2019-01-25,0.2304114721271258
2019-01-28,-0.30819672131147446
2019-01-29,-0.0009415309292937768
2019-01-30,-0.1335309617918292
2019-01-31,0.36939132608423914
2019-02-01,-0.023929769185243338
2019-02-11,0.33014184397162993
2019-02-12,-0.024381466486729293
2019-02-13,0.08681495809155246
2019-02-14,-0.6818450432032709
2019-02-15,-0.07119003820574732
2019-02-18,-0.28268108681558246
2019-02-19,-0.20202020202020138
2019-02-20,-0.1280728608602444
2019-02-21,0.1978083798174463
2019-02-22,0.09915052881683993
2019-02-25,-0.10643511613040621
2019-02-26,0.24805194805194739
2019-02-27,0.11843800069114611
2019-02-28,0.03154543067226531
2019-03-01,-0.006519803061619263
2019-03-04,0.4019851116625311
2019-03-05,-0.12380952380952423
2019-03-06,-0.08412889625056438
2019-03-07,-0.036692655401507755
2019-03-08,0.08920876787610083
2019-03-11,-0.36861781670583227
2019-03-12,-0.013910761154852354
2019-03-13,-0.0047591906526049665
2019-03-14,0.06727358342489351
2019-03-15,-0.3201429825661608
2019-03-18,0.04956539735099302
2019-03-19,0.15835520559929284
2019-03-20,0.1443236189647662
2019-03-21,-0.07805183946488353
2019-03-22,0.17317680841180882
2019-03-25,0.12475961538461544
2019-03-26,-0.22222222222221705
2019-03-27,-0.07769138755980885
2019-03-28,0.04326923076923084
2019-03-29,-0.01900564273883954
2019-04-01,0.16484794275491968
2019-04-02,0.14066776135741627
2019-04-03,-0.06489234449760733
2019-04-04,-0.08542713567839123
2019-04-08,0.03910614525140212
2019-04-09,-0.14177101967799727
2019-04-10,-0.008125306584421763
2019-04-11,0.13061236934365766
2019-04-12,0.202600256260495
2019-04-15,0.048189971280577934
2019-04-16,-0.1962828849602814
2019-04-17,-0.07500277223331257
2019-04-18,-0.1818220831650888
2019-04-19,-0.09099511011089902
2019-04-22,-0.1400267059744607
2019-04-23,0.11849550380211249
2019-04-24,0.09450710108605298
2019-04-25,-0.007684969260123797
2019-04-26,-0.05133524317560728
2019-04-29,0.11119157340356013
2019-04-30,0.026667614848531022
2019-05-06,0.0616284300494759
2019-05-07,0.24046250326626323
2019-05-08,-0.09791969037252105
2019-05-09,-0.031050745142429094
2019-05-10,0.04224402666466645
2019-05-13,-0.19451812555260867
2019-05-14,-0.05144244921989591
2019-05-15,0.40962663067926625
2019-05-16,0.029877724614566222
2019-05-17,0.10880705832629152
2019-05-20,0.11940500338066526
2019-05-21,-0.09372886269204714
2019-05-22,-0.15527557632821293
2019-05-23,0.06372944461681904
2019-05-24,-0.10053796755295229
2019-05-27,0.10020859407592861
2019-05-28,-0.007417542848914211
2019-05-29,-0.33182358182357974
2019-05-30,-0.08878411503231322
2019-05-31,-0.08629779616430117
2019-06-03,-0.24402321083172102
2019-06-04,-0.030514791521082885
2019-06-05,0.1572594072594071
2019-06-06,0.05664660788978631
2019-06-10,0.057063596229568816
2019-06-11,0.1932867132867124
2019-06-12,0.22398589065255894
2019-06-13,0.050046800046800344
2019-06-14,-0.09339791672993339
2019-06-17,-0.10686630369026034
2019-06-18,-0.2208919485184071
2019-06-19,-0.3246031746031756
2019-06-20,0.06810955340367195
2019-06-21,0.008798290427058791
2019-06-24,0.21164767589075478
2019-06-25,0.1393392419657003
2019-06-26,0.06627906976744509
2019-06-27,0.05711338527103649
2019-06-28,0.03931017557950187
2019-07-01,-0.0955449189985246
2019-07-02,0.026559454191032512
2019-07-03,0.2296436770136729
2019-07-04,-0.22186733588090365
2019-07-05,-0.05386702098211905
2019-07-08,-0.1477272727272736
2019-07-09,-0.01695470018329241
2019-07-10,-0.30433858836527494
2019-07-11,0.25459352280238073
2019-07-12,0.039281705948371964
2019-07-15,0.2625231910946205
2019-07-16,0.05358343418044963
2019-07-17,0.1328839266905417
2019-07-18,-0.3306447469817627
2019-07-19,0.05722142894917963
2019-07-22,-0.1476530612244898
2019-07-23,-0.1702336854621105
2019-07-24,0.12267477203646772
2019-07-25,0.11385553129548709
2019-07-26,-0.06909844082619057
2019-07-29,-0.11421348314606826
2019-07-30,0.20844932045193565
2019-07-31,-0.24420168067226042
2019-08-01,0.14863505747126038
2019-08-02,0.147764185500036
2019-08-05,0.14038666750361106
2019-08-06,-0.1354482266975579
2019-08-07,0.3309668695064247
2019-08-08,-0.0528624037495775
2019-08-09,-0.2606698844522458
2019-08-12,0.2146332672553581
2019-08-13,0.025516138412331413
2019-08-14,-0.1705747126436859
2019-08-15,-0.11386475898484391
2019-08-16,0.21035541904343857
2019-08-19,-0.38326869963038623
2019-08-20,-0.06531296963387459
2019-08-21,0.053127247420744345
2019-08-22,0.1686575383783998
2019-08-23,-0.1539343143080737
2019-08-26,0.37968447023970747
2019-08-27,0.13301631891617144
2019-08-28,-0.09663299454717966
2019-08-29,-0.12514876644857229
2019-08-30,0.1515219769254581
2019-09-02,-0.38817966903073253
2019-09-03,-0.06474953617810922
2019-09-04,-0.10900284393885179
2019-09-05,0.1164870259481029
2019-09-06,-0.16646595413718326
2019-09-09,0.2629271437782059
2019-09-10,-0.011895365881156188
2019-09-11,0.28041819558506575
2019-09-12,-0.22348372561807034
2019-09-16,0.13340659340659095
2019-09-17,-0.21784881784881693
2019-09-18,0.09709944751380886
2019-09-19,-0.2517080541321821
2019-09-20,0.5781078107810811
2019-09-23,-0.00832579185520152
2019-09-24,0.5024580682475434
2019-09-25,-0.005158730158729488
2019-09-26,0.16684493823753088
2019-09-27,-0.5820848938826495
2019-09-30,0.11490559641546387
2019-10-08,-0.526465311004786
2019-10-09,-0.04658545588777875
2019-10-10,-0.14404215962079372
2019-10-11,0.10205326082610136
2019-10-14,-0.27573109607317675
2019-10-15,0.05166602465331406
2019-10-16,0.023473158009126218
2019-10-17,0.16355519480519443
2019-10-18,0.09367847491915599
2019-10-21,0.04287678170899385
2019-10-22,-0.014075798356005156
2019-10-23,-0.14769051042415543
2019-10-24,-0.20423510313216173
2019-10-25,-0.19919558078558464
2019-10-28,0.24341736694677912
2019-10-29,0.20606156943781684
2019-10-30,-0.028251944684528796
2019-10-31,0.3864067621183377
2019-11-01,0.17700173037596612
2019-11-04,-0.14229137199434197
2019-11-05,-0.0012044564890047738
2019-11-06,0.16921348314606763
2019-11-07,-0.3948166528811702
2019-11-08,0.0037065244986032933
2019-11-11,-0.10532767562470899
2019-11-12,-0.23368663006001783
2019-11-13,-0.02787878787878887
2019-11-14,0.20860842417728498
2019-11-15,-0.12898943525637646
2019-11-18,0.16409582237803733
2019-11-19,0.3361256544502637
2019-11-20,-0.0692640692640688
2019-11-21,-0.11731083287969396
2019-11-22,0.12642251189737244
2019-11-25,-0.027701264554903085
2019-11-26,-0.1853658536585444
2019-11-27,0.06675824175824333
2019-11-28,-0.006926406926406246
2019-11-29,-0.07723804206216218
2019-12-02,-0.17680841970296285
2019-12-03,-0.3158389656185659
2019-12-04,0.05935013262599465
2019-12-05,0.03625192012288853
2019-12-06,-0.01717604415519714
2019-12-09,0.17436831322558366
2019-12-10,0.28453815261043897
2019-12-11,-0.04354178842781986
2019-12-12,0.09877366035723313
2019-12-13,0.08791140032535885
2019-12-16,-0.006441223832521749
2019-12-17,0.08095238095238269
2019-12-18,-0.1260948697531571
2019-12-19,0.09645984951277271
2019-12-20,-0.01209736710541115
2019-12-23,0.00646471924504495
2019-12-24,0.08460087297477159
2019-12-25,0.05762403704056539
2019-12-26,-0.2973333989496736
2019-12-27,-0.012026727629367483
2019-12-30,-0.13904315755597066
2019-12-31,-0.18409785486611996
2020-01-02,0.18903250535888633
2020-01-03,0.060904080573399855
2020-01-06,-0.0807345807345822
2020-01-07,0.1904319122227932
2020-01-08,0.055211267605630956
2020-01-09,-0.11984161061018452
2020-01-10,0.1401273885350341
2020-01-13,0.16255961844197292
2020-01-14,-0.1867824028408006
2020-01-15,-0.19261904761904158
2020-01-16,-0.04053228005829697
2020-01-17,-0.19959086893858663
2020-01-20,-0.12955760816723155
2020-01-21,0.08327120223672337
2020-01-22,0.3813146997929619
2020-01-23,-0.06474820143886025
2020-02-03,0.6246008211678784
2020-02-04,0.37292853166616174
2020-02-05,0.039749094324427504
2020-02-06,-0.02756357670222176
2020-02-07,0.059967361574004
2020-02-10,-0.706509568403904
2020-02-11,-0.37632166477105
2020-02-12,0.041212020862660084
2020-02-13,-0.4152590595986806
2020-02-14,-0.001556059527553253
2020-02-17,0.21986108956792816
2020-02-18,-0.14699439740511372
2020-02-19,-0.18772504091652853
2020-02-20,0.5239820565907515
2020-02-21,0.12184898410665569
2020-02-24,0.1012849584278196
2020-02-25,0.19625529910504225
2020-02-26,0.08823529411764082
2020-02-27,-0.4619480957195797
2020-02-28,-0.02808988764045199
2020-03-02,0.08697510417779347
2020-03-03,-0.004545454545457958
2020-03-04,0.018491312608959327
2020-03-05,0.25069564334315086
2020-03-06,-0.10542237183277722
2020-03-09,-0.3140265942298834
2020-03-10,0.018691588785048063
2020-03-11,0.004070852694709313
2020-03-12,-0.09242750487996373
2020-03-13,0.13986529948162774
2020-03-16,-0.03885740515156151
2020-03-17,0.010865061461259293
2020-03-18,0.0811421798867451
2020-03-19,0.1560471070148461
2020-03-20,-0.1424960907669363
2020-03-23,0.15555668980536208
2020-03-24,-0.0056522677761873495
2020-03-25,-0.04153556867052555
2020-03-26,-0.29635756056808416
2020-03-27,-0.06720276696930536
2020-03-30,0.017606196103479257
2020-03-31,-0.06717361323934917
2020-04-01,0.00518154977220886
2020-04-02,0.3377102175729141
2020-04-03,0.26956916099773376
2020-04-07,0.10067595310515073
2020-04-08,0.13734608633773496
2020-04-09,-0.07406208910581522
2020-04-10,-0.1494253508416994
2020-04-13,-0.2182024270619023
2020-04-14,-0.2612514066236556
2020-04-15,-0.19060195209359915
2020-04-16,0.0381345883541928
2020-04-17,-0.12776654966194345
2020-04-20,-0.057125732370883295
2020-04-21,0.3519251148004232
2020-04-22,0.10083544135267859
2020-04-23,0.0686878691170544
2020-04-24,0.01361702127659134
2020-04-27,0.16015513370075307
2020-04-28,-0.1508046976946485
2020-04-29,-0.0004493409665794375
2020-04-30,-0.034499834929020284
2020-05-06,0.13555555555555615
2020-05-07,-0.06270022883295115
2020-05-08,-0.22982240196940545
2020-05-11,0.008797223987097855
2020-05-12,0.05737179487179346
2020-05-13,-0.12779890156315696
2020-05-14,0.10478861087144038
2020-05-15,0.11837596621244986
2020-05-18,0.0342167721518985
2020-05-19,-0.1480721393034811
2020-05-20,0.1037394089997267
2020-05-21,-0.1705981729445615
2020-05-22,0.16516544402141534
2020-05-25,-0.12040441176470795
2020-05-26,-0.13426913053778783
2020-05-27,-0.016861916650659944
2020-05-28,0.052297416324131304
2020-05-29,-0.3160851687497442
2020-06-01,0.15279770444763405
2020-06-02,0.3447000269034176
2020-06-03,-0.12682926829268407
2020-06-04,0.09546703296703621
2020-06-05,0.325451559934319
2020-06-08,-0.0023452157598488205
2020-06-09,-0.28844419123581644
2020-06-10,0.2571226581831044
2020-06-11,-0.17691380349608266
2020-06-12,-0.18522012578616068
2020-06-15,-0.10677382319173179
2020-06-16,0.27384184443007853
2020-06-17,-0.19873919542471044
2020-06-18,0.2334473173755626
2020-06-19,-0.0027350562866688896
2020-06-22,-0.04570480928690529
2020-06-23,-0.2445512820512824
2020-06-24,-0.0638353996307037
2020-06-29,-0.11584087318684007
2020-06-30,0.024681728979019296
2020-07-01,-0.09111111111110748
2020-07-02,0.24170227920228088
2020-07-03,0.22154316271963245
2020-07-06,-0.18270944741532963
2020-07-07,0.07249331124983754
2020-07-08,0.3027210884353774
2020-07-09,-0.1646928365491243
2020-07-10,0.0065333439566575835
2020-07-13,0.2479363015924592
2020-07-14,-0.0015275504637195514
2020-07-15,-0.15575885526624741
2020-07-16,-0.006198657960463212
2020-07-17,-0.18814965510664555
2020-07-20,-0.12790986405115132
2020-07-21,0.24891518737672758
2020-07-22,0.024291589460838325
2020-07-23,-0.015511346687772178
2020-07-24,0.15905992017254458
2020-07-27,0.18772993934572874
2020-07-28,-0.4883844081689075
2020-07-29,-0.06769395207980633
2020-07-30,0.10265691910946889
2020-07-31,-0.13526128154610967
2020-08-03,-0.16307487734421533
2020-08-04,0.29418826061760467
2020-08-05,0.1844660194174761
2020-08-06,-0.12192988358791566
2020-08-07,0.104847494553375
2020-08-10,-0.03576727305927718
2020-08-11,-0.11921885925481995
2020-08-12,-0.14058999253174034
2020-08-13,0.07964094728800433
2020-08-14,-0.1572061191626396
2020-08-17,0.061674008810574346
2020-08-18,0.0018525567821331551
2020-08-19,0.20155121121971742
2020-08-20,0.16286421110500668
2020-08-21,0.14375300549086772
2020-08-24,0.032606635071087874
2020-08-25,-0.032903805218841536
2020-08-26,-0.4166094197159601
2020-08-27,-0.41149711992054994
2020-08-28,0.05712178234044337
2020-08-31,-0.12519922766368535
2020-09-01,0.28581794384726245
2020-09-02,0.3945099722021499
2020-09-03,0.32916512170070034
2020-09-04,-0.1380728554641632
2020-09-07,0.06531986531987173
2020-09-08,-0.24063831139932113
2020-09-09,-0.18852288126759192
2020-09-10,-0.10980120203420929
2020-09-11,-0.05011779824373418
2020-09-14,0.14683794466402517
2020-09-15,-0.07317847745213946
2020-09-16,0.1341219926125554
2020-09-17,0.03370186277697248
2020-09-18,0.24383080089734166
2020-09-21,-0.18078970718721943
2020-09-22,0.11295905445335624
2020-09-23,-0.164891835777904
2020-09-24,-0.010170146115390117
2020-09-25,-0.22579029733959588
2020-09-28,0.11891679748822771
2020-09-29,-0.0713438735177837
2020-09-30,-0.05941168236447383
2020-10-09,0.24371956217754026
2020-10-12,0.21289461134954318
2020-10-13,0.01777939042089894
2020-10-14,0.01985645933014163
2020-10-15,0.15432570622908656
2020-10-16,-0.47068125162778507
2020-10-19,-0.16388772836035914
2020-10-20,-0.12092624356775694
2020-10-21,-0.017042606516290332
2020-10-22,0.05821711203378479
2020-10-23,0.2813414958743712
2020-10-26,-0.03302579551873379
2020-10-27,-0.01789387083504395
2020-10-28,0.16853002070393402
2020-10-29,-0.05987137175256059
2020-10-30,-0.09227403612430797
2020-11-02,0.12340425531914712
2020-11-03,0.1873484162895932
2020-11-04,-0.009438341327558802
2020-11-05,-0.07545787545787591
2020-11-06,0.058726944338024056
2020-11-09,-0.07026065540124668
2020-11-10,-0.21461488673139306
2020-11-11,-0.053380782918151154
2020-11-12,0.057936507936507606
2020-11-13,-0.039637390077080906
2020-11-16,0.11570239134601316
2020-11-17,0.1264357822537825
2020-11-18,-0.27510845375203546
2020-11-19,-0.013030303030302753
2020-11-20,-0.0010334996436216874
2020-11-23,-0.16421657812386126
2020-11-24,0.17735739905125258
2020-11-25,0.32570365800885587
2020-11-26,0.024935064935063457
2020-11-27,-0.011352657004831611
2020-11-30,0.04358141858141473
2020-12-01,-0.20168404170007792
2020-12-02,0.07213004647110365
2020-12-03,0.03348107739516008
2020-12-04,0.1278401997503119
2020-12-07,0.04794900221729685
2020-12-08,-0.09384719405003583
2020-12-09,-0.027947746697749493
2020-12-10,-0.006905447143056839
2020-12-11,0.20797087264612585
2020-12-14,-0.04189040564145734
2020-12-15,0.07968627450980445
2020-12-16,-0.3415375474198992
2020-12-17,-0.12017547548976175
2020-12-18,-0.5455660612358418
2020-12-21,0.3144794572579419
2020-12-22,0.2837012223020615
2020-12-23,0.25708655238747113
2020-12-24,0.05401250479352649
2020-12-25,0.2864326566061821
2020-12-28,-0.3925077508034769
2020-12-29,-0.3565787297711181
2020-12-30,-0.11395324769314355
2020-12-31,0.03256763601063642
2021-01-04,-0.03335839913105358
2021-01-05,0.06680440771349838
2021-01-06,-0.012691119981923418
2021-01-07,0.008361310747156962
2021-01-08,0.21857465816854493
2021-01-11,-0.11281679163643218
2021-01-12,0.006711253810578311
2021-01-13,0.28086985502416173
2021-01-14,0.0038968004641133924
2021-01-15,-0.28878818279309404
2021-01-18,0.06358675289556492
2021-01-19,0.0006071454934671924
2021-01-20,-0.35730919570067193
2021-01-21,0.08734597389061463
2021-01-22,-0.06344582283176878
2021-01-25,0.07527103946541185
2021-01-26,-0.00043577593501402216
2021-01-27,0.143570738690261
2021-01-28,-0.10505237458705338
2021-01-29,0.16747094511769545
2021-02-01,-0.12910526025280034
2021-02-02,-0.07071084060634009
2021-02-03,0.02498739124952669
2021-02-04,0.11882880888914604
2021-02-05,-0.16487858212246964
2021-02-08,0.12027366472765635
2021-02-09,0.11336685159500959
2021-02-10,-0.09222935980728458
2021-02-18,-0.10623541845301201
2021-02-19,0.1116384025736919
2021-02-22,0.10576134499726826
2021-02-23,-0.031157856886014832
2021-02-24,0.0791037204842042
2021-02-25,0.043791352515773596
2021-02-26,0.09530332833770315
2021-03-01,-0.038540158419216264
2021-03-02,0.15420875420875463
2021-03-03,0.066909247716113
2021-03-04,-0.06573082542676935
2021-03-05,-0.1509512747657793
2021-03-08,-0.20759660370819594
2021-03-09,-0.3173509286412505
2021-03-10,0.03207648620492558
2021-03-11,0.13147772120000226
2021-03-12,0.0970706828711678
2021-03-15,0.042456446888329974
2021-03-16,0.22309697868207096
2021-03-17,-0.13004209720627635
2021-03-18,-0.17242965615484018
2021-03-19,-0.07265546773471934
2021-03-22,0.14426860328499644
2021-03-23,-0.21140015203638624
2021-03-24,-0.04574355754687163
2021-03-25,0.12732224080376306
2021-03-26,-0.06583990590839828
2021-03-29,0.1207010582010587
2021-03-30,0.21811201445347883
2021-03-31,0.0912413717686569
2021-04-01,0.13512480161592955
2021-04-02,0.1406048705017771
2021-04-06,-0.3997233400402419
2021-04-07,-0.04579124579124647
2021-04-08,0.03924513768534694
2021-04-09,-0.3261724702296971
2021-04-12,-0.06115925152127415
2021-04-13,0.20617722080514386
2021-04-14,-0.04412805093738889
2021-04-15,-0.1140269494146243
2021-04-16,0.4717221312965992
2021-04-19,0.03106963205198909
2021-04-20,-0.10291788024624511
2021-04-21,0.001157224853980076
2021-04-22,0.1501458666531672
2021-04-23,-0.597567842822833
2021-04-26,0.09629106718322221
2021-04-27,0.08305856688576935
2021-04-28,0.014158360658367296
2021-04-29,-0.07648172902992824
2021-04-30,0.35653177861603824
2021-05-06,0.001564726828299015
2021-05-07,0.08614676172484832
2021-05-10,0.410809602146589
2021-05-11,0.09457307586712053
2021-05-12,0.08296001327360117
2021-05-13,-0.006813620579100538
2021-05-14,0.07636012673969579
2021-05-17,-0.5357588922074408
2021-05-18,-0.17484518471065602
2021-05-19,-0.25610140963602024
2021-05-20,-0.2227984057058941
2021-05-21,-0.2600620470019749
2021-05-24,0.21416701287910284
2021-05-25,0.1240213994385288
2021-05-26,0.057598441569813176
2021-05-27,0.10734091866835194
2021-05-28,0.019665948275860573
2021-05-31,-0.1295305765185284
2021-06-01,0.08149045959445736
2021-06-02,0.040339702760084396
2021-06-03,-0.06598037445066487
2021-06-04,0.1276041666666673
2021-06-07,0.05345686992745782
2021-06-08,-0.2718447473284919
2021-06-09,-0.024523160762943343
2021-06-10,-0.029918671379166054
2021-06-11,0.05973738949557908
2021-06-15,-0.09062822862856156
2021-06-16,0.09151872770082034
2021-06-17,0.15318765587695027
2021-06-18,0.3500588486622008
2021-06-21,-0.19178644318426202
2021-06-22,0.13197704841125202
2021-06-23,0.12512371333437053
2021-06-24,-0.20106268515925663
2021-06-25,-0.41970048921268605
2021-06-28,0.1863942038610122
2021-06-29,-0.1346610125843392
2021-06-30,-0.17441406179994656
2021-07-01,0.11666048512721738
2021-07-02,0.2418941685492233
2021-07-05,-0.2445412286037017
2021-07-06,0.13633972505807526
2021-07-07,0.07726866946126386
2021-07-08,0.11061985980018688
2021-07-09,-0.11998205875757052
2021-07-12,0.13160633484162804
2021-07-13,0.035985631694600555
2021-07-14,0.012939860458061328
2021-07-15,-0.3222766235866665
2021-07-16,0.13289771453036714
2021-07-19,0.07193925815285128
2021-07-20,-0.1060106377871873
2021-07-21,0.022606017146748966
2021-07-22,0.14730173300126573
2021-07-23,-0.15297478546689786
2021-07-26,0.018113070470906725
2021-07-27,-0.03394407552526316
2021-07-28,0.06955749011096087
2021-07-29,0.08356022796330842
2021-07-30,0.1715362821943347
2021-08-02,-0.08372527819074702
2021-08-03,0.10609156117337695
2021-08-04,-0.0031966448016165355
2021-08-05,-0.11889202056194963
2021-08-06,-0.09149044044289795
2021-08-09,-0.04888352741327949
2021-08-10,-0.06933663507786164
2021-08-11,-0.23839783339813952
2021-08-12,0.1753754046483985
2021-08-13,0.013878077060175601
2021-08-16,0.18323219169439703
2021-08-17,0.04258625832349391
2021-08-18,0.2877769870899642
2021-08-19,0.07825741032762037
2021-08-20,-0.03632198479233198
2021-08-23,0.06789821609889193
2021-08-24,0.043012878992620796
2021-08-25,-0.06268579032470262
2021-08-26,-0.264641853107698
2021-08-27,0.03667611746998593
2021-08-30,-0.29135759875797773
2021-08-31,-0.11488827569036669
2021-09-01,-0.15353277988548364
2021-09-02,0.12916764883056955
2021-09-03,-0.04286822089128834
2021-09-06,0.2761243866322111
2021-09-07,0.09002826175267678
2021-09-08,0.11875079824998537
2021-09-09,0.03826165017767737
2021-09-10,0.32476294550877266
2021-09-13,-0.2180430134192807
2021-09-14,-0.02344586345578524
2021-09-15,0.04016614322681712
2021-09-16,-0.11708659864188307
2021-09-17,-0.5008277682696295
2021-09-22,0.13689199837769306
2021-09-23,-0.056817538960760285
2021-09-24,-0.02496133923814719
2021-09-27,-0.021911305485457746
2021-09-28,0.24800026493028798
2021-09-29,-0.22308617559476918
2021-09-30,0.2417013398583609
2021-10-08,-0.02811207572693692
2021-10-11,0.14844393862093344
2021-10-12,-0.054858783814124006
2021-10-13,0.3488817367977364
2021-10-14,-0.266015803834673
2021-10-15,-0.06301515844820431
2021-10-18,-0.06981158464704583
2021-10-19,0.030363536811164722
2021-10-20,-0.31694728109325776
2021-10-21,0.14469346417643414
2021-10-22,0.26224633071209946
2021-10-25,-0.09922393242122735
2021-10-26,-0.007276840080893954
2021-10-27,0.08943785869196376
2021-10-28,-0.18550287770965762
2021-10-29,-0.2764312787355449
2021-11-01,-0.03477730901374283
2021-11-02,0.026902661361087543
2021-11-03,0.04822046550728095
2021-11-04,0.17051572715158353
2021-11-05,-0.11296618706292724
2021-11-08,0.09337105901374258
2021-11-09,-0.19948215911110856
2021-11-10,-0.23466940589493052
2021-11-11,-0.08972826105023413
2021-11-12,0.1625998953653636
2021-11-15,0.1089385474860343
2021-11-16,0.17875043399035753
2021-11-17,0.19535317732039034
2021-11-18,-0.13281052942503932
2021-11-19,-0.05766062437967102
2021-11-22,-0.2153050071133633
2021-11-23,-0.038221062836608526
2021-11-24,0.20440919472609478
2021-11-25,0.17349267387480155
2021-11-26,0.24831532374272033
2021-11-29,0.07002484848256879
2021-11-30,-0.023422913750839228
2021-12-01,-0.45148459248642436
2021-12-02,-0.043873274301500786
2021-12-03,-0.2587758655762878
2021-12-06,0.112518068203502
2021-12-07,0.11118755240874342
2021-12-08,0.31170810263943455
2021-12-09,0.024504088228686872
2021-12-10,0.014027537060331982
2021-12-13,-0.018047483398431832
2021-12-14,-0.12966811501546668
2021-12-15,-0.12794347663674344
2021-12-16,0.07897920685421107
2021-12-17,-0.053608002340721245
2021-12-20,-0.127164506655234
2021-12-21,0.014586658304510385
2021-12-22,0.08358104202790863
2021-12-23,-0.25485923060391136
2021-12-24,0.17398728612970976
2021-12-27,0.11878043095410859
2021-12-28,0.11446804056229681
2021-12-29,-0.05553270259152657
2021-12-30,0.20596491228070168
2021-12-31,-0.0838455443000035
2022-01-04,-0.17693276260329163
2022-01-05,-0.18374474499840807
2022-01-06,0.020793417852241702
2022-01-07,0.17171830284932277
2022-01-10,0.028505993218258342
2022-01-11,0.08173331918956182
2022-01-12,0.13608069490422298
2022-01-13,0.12154809448623892
2022-01-14,-0.3322089603874773
2022-01-17,0.17897609792407435
2022-01-18,0.15292060880296227
2022-01-19,0.04708940663997051
2022-01-20,-0.08289478846851785
2022-01-21,0.20144367338020036
2022-01-24,-0.22954827890474525
2022-01-25,-0.2102868094812649
2022-01-26,-0.16380812477856627
2022-01-27,-0.0634305916645719
2022-01-28,-0.14312163182645166
2022-02-07,-0.04670201658483344
2022-02-08,0.35523453923629644
2022-02-09,0.2929068634897387
2022-02-10,0.04136805223761769
2022-02-11,0.11642653364394459
2022-02-14,0.19548641485291923
2022-02-15,-0.37701696770662263
2022-02-16,-0.3449822470554886
2022-02-17,-0.07223203153435778
2022-02-18,0.013155854867016474
2022-02-21,-0.049101305814156254
2022-02-22,0.16950113378684797
2022-02-23,0.21069845024931994
2022-02-24,0.1471779570287288
2022-02-25,0.3054283525433875
2022-02-28,-0.06714532031182355
2022-03-01,-0.053741926334652176
2022-03-02,-0.05688709966539081
2022-03-03,-0.06440180672718979
2022-03-04,-0.6525128101625616
2022-03-07,0.49624616886815226
2022-03-08,0.1121497522749448
2022-03-09,0.024375771749393045
2022-03-10,0.010703572935055543
2022-03-11,0.4015473303815715
2022-03-14,-0.6284121527455142
2022-03-15,-0.16553982767715797
2022-03-16,0.01463408564430204
2022-03-17,-0.08414178105420944
2022-03-18,-0.1793731579774019
2022-03-21,-0.020701199178752877
2022-03-22,0.042989038852230835
2022-03-23,-0.1576519440490582
2022-03-24,0.041409164020893105
2022-03-25,-0.03867380706335177
2022-03-28,0.10040660016075001
2022-03-29,0.009947483039802746
2022-03-30,-0.00961850984712953
2022-03-31,0.1798341518621228
2022-04-01,0.04180157216371036
2022-04-06,0.20155181044551831
2022-04-07,0.07060020265349637
2022-04-08,0.15469445835199994
2022-04-11,-0.1855366767619715
2022-04-12,0.18317647271347828
2022-04-13,-0.23406984884591014
2022-04-14,-0.1506832129657899
2022-04-15,-0.06608883883620575
2022-04-18,-0.07939130434782668
2022-04-19,0.10642953509925132
2022-04-20,0.16964146340975989
2022-04-21,0.16505784112057942
2022-04-22,0.048419435333588313
2022-04-25,0.30706323643023437
2022-04-26,-0.29407786291492377
2022-04-27,0.019425431539488794
2022-04-28,-0.12602785189346327
2022-04-29,0.054931051553400286
2022-05-05,-0.3673603650194975
2022-05-06,-0.04781316536123967
2022-05-09,-0.17332145999937137
2022-05-10,0.06972323547327294
2022-05-11,-0.1321813598955332
2022-05-12,0.2832184337716048
2022-05-13,0.09655263050446022
2022-05-16,0.13840511940617478
2022-05-17,-0.07331460244062983
2022-05-18,0.08332936413431824
2022-05-19,-0.1816050658661026
2022-05-20,0.03970997918406575
2022-05-23,-0.014935198999646904
2022-05-24,0.12530906262598812
2022-05-25,-0.08971867871926963
2022-05-26,-0.014723265880077788
2022-05-27,-0.020018198362147552
2022-05-30,-0.14033957830911856
2022-05-31,-0.13748285639163488
2022-06-01,0.06561527862611706
2022-06-02,0.13059466453293248
2022-06-06,-0.03661087866108817
2022-06-07,-0.03719211599593099
2022-06-08,0.16460055096418869
2022-06-09,0.04031634625165204
2022-06-10,-0.13016007457328266
2022-06-13,0.03422708843462912
2022-06-14,0.26909740464431964
2022-06-15,0.0348484848484831
2022-06-16,-0.06026916513731803
2022-06-17,0.13295722747871352
2022-06-20,0.3384125413495491
2022-06-21,-0.021433065058462403
2022-06-22,-0.1412264723740122
2022-06-23,0.10953969511100993
2022-06-24,-0.0030520554485159654
2022-06-27,-0.4284835864047059
2022-06-28,-0.1345312773151862
2022-06-29,-0.10161347949120923
2022-06-30,-0.07558304938965911
2022-07-01,-0.11543805457494433
2022-07-04,0.04574570576993939
2022-07-05,0.003175588392281402
2022-07-06,0.20152182765736393
2022-07-07,-0.10813822178724769
2022-07-08,0.13182433755384354
2022-07-11,-0.013419718018746148
2022-07-12,-0.012039391364183402
2022-07-13,-0.21207840027871414
2022-07-14,0.046141036091678404
2022-07-15,-0.13622964869653525
2022-07-18,0.15670832439159002
2022-07-19,0.10368579553791638
2022-07-20,0.23346525300890936
2022-07-21,0.02417603120774821
2022-07-22,0.06491063029162737
2022-07-25,-0.22749430335958948
2022-07-26,-0.16861586106994794
2022-07-27,-0.25063717790007
2022-07-28,0.38417803768680925
2022-07-29,0.012875536480686497
2022-08-01,0.173287707854354
2022-08-02,0.12349018045534393
2022-08-03,0.16585196819066406
2022-08-04,-0.551908493541943
2022-08-05,-0.04624064610890422
2022-08-08,0.002992010162805356
2022-08-09,-0.09823592575548457
2022-08-10,-0.04800460724830552
2022-08-11,0.11961635146284663
2022-08-12,-0.07513600894001424
2022-08-15,-0.16079776479351737
2022-08-16,0.09958517329051211
2022-08-17,0.06232404319068278
2022-08-18,0.030613727143463533
2022-08-19,0.14121606670910336
2022-08-22,0.24995102230739963
2022-08-23,-0.05927020077089115
2022-08-24,-0.06622586122707445
2022-08-25,0.05169272810784148
2022-08-26,0.11783753804697358
2022-08-29,-0.15612679249000205
2022-08-30,0.13331623479604066
2022-08-31,-0.04151489613531045
2022-09-01,0.03400756949143942
2022-09-02,-0.22018718938419207
2022-09-05,-0.09618276758556296
2022-09-06,-0.23306910586448407
2022-09-07,0.12268228277856588
2022-09-08,-0.11498403982961153
2022-09-09,-0.007037401208220578
2022-09-13,0.11779141104294548
2022-09-14,0.12960924330514012
2022-09-15,-0.03833962522773673
2022-09-16,0.023092890503372085
2022-09-19,0.11864290732427546
2022-09-20,0.0770577933450093
2022-09-21,0.04432474360079192
2022-09-22,-0.028927859638587346
2022-09-23,0.06425351321895106
2022-09-26,-0.041970802919707034
2022-09-27,-0.14372446001167588
2022-09-28,-0.044007778948221214
2022-09-29,-0.06239663915602682
2022-09-30,-0.015360223669405669
2022-10-10,0.030465949820786445
2022-10-11,0.1118840579710138
2022-10-12,0.12145593446139263
2022-10-13,0.09861194390053811
2022-10-14,0.13863800106503982
2022-10-17,0.10168144535075163
2022-10-18,-0.029504708924998
2022-10-19,-0.25127917559132745
2022-10-20,-0.06641694883639407
2022-10-21,-0.24595852762251585
2022-10-24,-0.31463997677391364
2022-10-25,-0.0030085081506753993
2022-10-26,0.18677795599912866
2022-10-27,0.060034245606706324
2022-10-28,0.09203726068269528
2022-10-31,0.21289798700778131
2022-11-01,0.04139418642706463
2022-11-02,-0.0037598176112205867
2022-11-03,-0.005606134901096429
2022-11-04,0.1915107049761318
2022-11-07,-0.04031866438929752
2022-11-08,-0.15547508155686451
2022-11-09,-0.09695802665950179
2022-11-10,0.04812074501131749
2022-11-11,-0.13161519501232577
2022-11-14,-0.008483587271037513
2022-11-15,0.10940884941518239
2022-11-16,0.04077839061580735
2022-11-17,-0.10445687091950015
2022-11-18,-0.26189651722917195
2022-11-21,0.11075919083752321
2022-11-22,0.014732099128221867
2022-11-23,0.066791656901805
2022-11-24,0.061018850175477035
2022-11-25,0.21663265893813635
2022-11-28,-0.18781021536086248
2022-11-29,-0.0032837081617610835
2022-11-30,-0.08748594979393017
2022-12-01,0.041136218185397866
2022-12-02,-0.01685586358701169
2022-12-05,0.12679583316071313
2022-12-06,-0.018681705142050226
2022-12-07,0.13992524642983592
2022-12-08,-0.11069910440651892
2022-12-09,0.040347656357091144
2022-12-12,0.15988481786490233
2022-12-13,-0.0007988143384669097
2022-12-14,-0.1357585032811001
2022-12-15,0.06333731057161539
2022-12-16,0.12225074577700268
2022-12-19,-0.15189267872450463
2022-12-20,0.009768009768009666
2022-12-21,0.06318975220319964
2022-12-22,0.06936030525687716
2022-12-23,-0.2712686918085211
2022-12-26,-0.14595774858166696
2022-12-27,0.00257766924433544
2022-12-28,-0.023788925918278747
2022-12-29,-0.1974740088064642
2022-12-30,0.12408894078723524
2023-01-03,0.08252126151665552
2023-01-04,0.02160493827160642
2023-01-05,-0.13281559681268418
2023-01-06,0.11651180705689958
2023-01-09,0.02214035302270344
2023-01-10,-0.048510875183904206
2023-01-11,-0.09622819735512661
2023-01-12,0.18811917641394438
2023-01-13,-0.02828779205817801
2023-01-16,0.04010362821838401
2023-01-17,0.0726072607260733
2023-01-18,-0.023338858284987794
2023-01-19,-0.1469877548699794
2023-01-20,0.03673773251046467
2023-01-30,0.02058507253055787
2023-01-31,0.05925925925925765
2023-02-01,0.17477727751700006
2023-02-02,0.08640984483681173
2023-02-03,0.016885039197414773
2023-02-06,-0.21746428438210993
2023-02-07,-0.15211640211640026
2023-02-08,-0.1206569021529619
2023-02-09,-0.07263894870088546
2023-02-10,-0.00533505305739752
2023-02-13,0.2350377630099964
2023-02-14,0.09671070740434715
2023-02-15,-0.024166125107683435
2023-02-16,0.13211382113821318
2023-02-17,-0.09773760134605565
2023-02-20,-0.20684909963041384
2023-02-21,0.016836090625208633
2023-02-22,0.04665317909079793
2023-02-23,0.030894308943087936
2023-02-24,0.1111695943185718
2023-02-27,0.22070673467879012
2023-02-28,0.06696687434458093
2023-03-01,0.05670637743006353
2023-03-02,-0.18948194662480336
2023-03-03,-0.03684810487317946
2023-03-06,-0.19348867032773875
2023-03-07,-0.23372394524733098
2023-03-08,-0.08936403508771942
2023-03-09,0.11236524181931354
2023-03-10,0.07331250482141168
2023-03-13,0.11738617802632853
2023-03-14,0.24044492577049603
2023-03-15,0.14992354740061062
2023-03-16,0.011884916726020555
2023-03-17,-0.10838836689037976
2023-03-20,-0.1277058378820756
2023-03-21,-0.057947637544714374
2023-03-22,-0.2523693587655798
2023-03-23,-0.06556903327576792
2023-03-24,0.028325423728812846
2023-03-27,0.09658687565664066
2023-03-28,-0.10210783859713957
2023-03-29,0.14864762542392532
2023-03-30,-0.061749968712480854
2023-03-31,-0.018888607808410875
2023-04-03,0.2497650119133527
2023-04-04,0.053482844150473774
2023-04-06,0.028386663307299748
2023-04-07,0.15430377811552806
2023-04-10,0.2243613079069891
2023-04-11,-0.40251264741960807
2023-04-12,-0.026266416510319007
2023-04-13,-0.02538032151654896
2023-04-14,0.01754819801809753
2023-04-17,-0.33005519208927336
2023-04-18,0.14497602262480558
2023-04-19,0.06346275211268922
2023-04-20,0.09049772650323362
2023-04-21,-0.14477737654209738
2023-04-24,0.09059422325126773
2023-04-25,-0.005209985466000058
2023-04-26,-0.05395444304981355
2023-04-27,-0.15308508724590664
2023-04-28,0.1043111419325026
2023-05-04,0.1405936861321099
2023-05-05,0.1491154408642708
2023-05-08,0.3505145676886275
2023-05-09,0.12677582936553905
2023-05-10,-0.061144662742401476
2023-05-11,-0.1437684250141126
2023-05-12,-0.1756231858036308
2023-05-15,-0.5682957359677581
2023-05-16,-0.22972610424135975
2023-05-17,0.07494129023345869
2023-05-18,0.05215932302305299
2023-05-19,0.04174147080891651
2023-05-22,0.3300677310111284
2023-05-23,0.19547149160310567
2023-05-24,-0.12107264358615288
2023-05-25,0.1016415261756878
2023-05-26,-0.0052742741906606294
2023-05-29,-0.11813186813186947
2023-05-30,0.002372852175801382
2023-05-31,0.07209069967527995
2023-06-01,-0.1408905380333957
2023-06-02,0.015151829850869974
2023-06-05,0.09373039483536699
2023-06-06,-0.058978632126062996
2023-06-07,0.021173059998964454
2023-06-08,-0.08145957848380024
2023-06-09,-0.17692669172932352
2023-06-12,-0.08439482299979396
2023-06-13,0.09751523288237177
2023-06-14,0.006014309369826942
2023-06-15,0.1590586460828677
2023-06-16,0.13784509202453993
2023-06-19,0.02962962962962888
2023-06-20,-0.20079143710391245
2023-06-21,-0.13012778454713195
2023-06-26,0.07848778518069957
2023-06-27,0.14223668367639453
2023-06-28,-0.0727737352737355
2023-06-29,0.11347806757557831
2023-06-30,0.1218133026643666
2023-07-03,-0.13877808225513769
2023-07-04,-0.17304877793807005
2023-07-05,-0.001981166687048591
2023-07-06,0.0013336347197090842
2023-07-07,-0.00466537966537901
2023-07-10,-0.17505768827354745
2023-07-11,0.15138418489967492
2023-07-12,0.12676801057501683
2023-07-13,0.03153110692162932
2023-07-14,0.01590909090909057
2023-07-17,0.3688681502751856
2023-07-18,-0.001953963046334606
2023-07-19,-0.07943558923438804
2023-07-20,0.02169875042215173
2023-07-21,0.02695482885236198
2023-07-24,-0.2052255912837889
2023-07-25,-0.2601396902044397
2023-07-26,0.1545468423998791
2023-07-27,-0.04756915661170693
2023-07-28,-0.07816292308371209
2023-07-31,0.030778404660337193
2023-08-01,0.18153747255287184
2023-08-02,-0.1774448746002366
2023-08-03,0.17733746178323972
2023-08-04,-0.05802983764809129
2023-08-07,0.005331664672322827
2023-08-08,-0.010581590199930851
2023-08-09,0.055244755244755625
2023-08-10,-0.32315097355419886
2023-08-11,0.11080064816519589
2023-08-14,0.032649322335299644
2023-08-15,0.04982380608444691
2023-08-16,-0.012430678508279343
2023-08-17,0.1581373458686173
2023-08-18,-0.06474071475787085
2023-08-21,-0.009602527859933
2023-08-22,0.04482192892188578
2023-08-23,0.0882955216297587
2023-08-24,0.007554936952539242
2023-08-25,0.01819381598793419
2023-08-28,-0.05339292438158037
2023-08-29,-0.2497148818703761
2023-08-30,-0.10236387600349095
2023-08-31,-0.09471618861671696
2023-09-01,0.29053564594609477
2023-09-04,0.09773635872501542
2023-09-05,0.294194533860948
2023-09-06,-0.032389991955869085
2023-09-07,0.2609076308804186
2023-09-08,-0.3044373144530268
2023-09-11,-0.047218813905931606
2023-09-12,-0.23358745668771302
2023-09-13,0.14732737452460387
2023-09-14,-0.2493018541143624
2023-09-15,-0.09782081370034162
2023-09-18,-0.07135536721160288
2023-09-19,0.12114004857466892
2023-09-20,-0.20218042156832955
2023-09-21,0.16419185080322624
2023-09-22,0.204181199019756
2023-09-25,0.028246312265074604
2023-09-26,-0.008621518072388454
2023-09-27,0.07504147234655159
2023-09-28,-0.1239912999621748
2023-10-09,-0.06417106681430558
2023-10-10,0.1856891742137641
2023-10-11,-0.013572746084530827
2023-10-12,0.05311145307634287
2023-10-13,-0.06688312412120555
2023-10-16,-0.008220143758104627
2023-10-17,-0.39633874897032717
2023-10-18,-0.08336449967419943
2023-10-19,-0.04256588741556038
2023-10-20,0.13778484581712233
2023-10-23,-0.08317388184644793
2023-10-24,0.2297852294971003
2023-10-25,0.08962995757456677
2023-10-26,0.02794511945476606
2023-10-27,-0.0388941422385892
2023-10-30,0.021876771876771423
2023-10-31,0.018510787297652754
2023-11-01,-0.13709389970732958
2023-11-02,-0.006844334793603657
2023-11-03,0.07019351883659661
2023-11-06,0.08263623169283504
2023-11-07,-0.04413175999891711
2023-11-08,0.25737139008167026
2023-11-09,-0.0020366598777984525
2023-11-10,-0.14924886564741413
2023-11-13,0.06857675285348398
2023-11-14,0.016936247273324333
2023-11-15,-0.10984995560371394
2023-11-16,0.27145085803431873
2023-11-17,0.1726265902222056
2023-11-20,-0.15227713778438465
2023-11-21,0.07977093247272439
2023-11-22,-0.10113390909699527
2023-11-23,-0.31845438329871395
2023-11-24,-0.10061349693251571
2023-11-27,0.21750677350312736
2023-11-28,-0.06278947315885108
2023-11-29,0.15670208460519996
2023-11-30,-0.02408196945222458
2023-12-01,-0.09100310237848987
2023-12-04,-0.11280052856836292
2023-12-05,-0.09169326436275621
2023-12-06,-0.17814988152530536
2023-12-07,0.16215921797289523
2023-12-08,0.12200005841402693
2023-12-11,-0.1443868334434117
2023-12-12,0.14848756284793374
2023-12-13,0.32908974103319166
2023-12-14,-0.17012510665548594
2023-12-15,-0.05889395174369187
2023-12-18,0.08105101384106458
2023-12-19,-0.12754872514931914
2023-12-20,-0.4507994622356035
2023-12-21,0.11664536836161463
2023-12-22,0.023549169621198365
2023-12-25,-0.08101738049104971
2023-12-26,0.016854829308535484
2023-12-27,0.22880771608362616
2023-12-28,-0.09022556390977277
2023-12-29,-0.06162439613526579
2024-01-02,0.29018468314908413
2024-01-03,0.08205387675343802
2024-01-04,0.04139979763643482
2024-01-05,0.04277242401778911
2024-01-08,0.16554547969021666
2024-01-09,-0.38848785930353935
2024-01-10,-0.08992546583851059
2024-01-11,-0.09845834011697104
2024-01-12,-0.07070126538565806
2024-01-15,-0.16814468603942345
2024-01-16,0.2528115302502391
2024-01-17,0.09616955684007783
2024-01-18,-0.027678571428570886
2024-01-19,0.0588641678497543
2024-01-22,0.07058755760368747
2024-01-23,-0.13982051820123154
2024-01-24,-0.06563680574837313
2024-01-25,0.0057924836601302085
2024-01-26,0.2112697121811217
2024-01-29,-0.029904575247398008
2024-01-30,0.1686347593759288
2024-01-31,0.03062514364513647
2024-02-01,0.028827045969902924
2024-02-02,-0.2893815211359847
2024-02-05,-0.027548653998080753
2024-02-06,-0.0879065980831163
2024-02-07,-0.07171645329539848
2024-02-08,0.10038082218533376
2024-02-19,0.308328240792542
2024-02-20,0.02946307423919438
2024-02-21,0.393933139847363
2024-02-22,0.10767179184641623
2024-02-23,-0.10469695932703199
2024-02-26,-0.1544661253181433
2024-02-27,0.1541791541791537
2024-02-28,-0.6541450216450226
2024-02-29,-0.12568291169520937
2024-03-01,0.15048079929783123
2024-03-04,-0.22693035807789794
2024-03-05,-0.18406098406098342
2024-03-06,0.2770385149201942
2024-03-07,0.06533372335117159
2024-03-08,-0.1923149404492696
2024-03-11,0.20991334106088178
2024-03-12,0.07172887172887188
2024-03-13,0.1840410305343511
2024-03-14,0.10214504596527045
2024-03-15,0.05424783549783699
2024-03-18,-0.052304212609557255
2024-03-19,0.00893318567737194
2024-03-20,-0.3574366490166406
2024-03-21,-0.08733127337778562
2024-03-22,0.05560064935064908
2024-03-25,-0.03836604242055962
2024-03-26,-0.06502557997817639
2024-03-27,0.24574022044521182
2024-03-28,-0.05069823637947277
2024-03-29,0.12720612720612895
2024-04-01,0.1612281547019402
2024-04-02,0.0016479498563594305
2024-04-03,-0.1285756739545742
2024-04-08,0.19681177687285845
2024-04-09,-0.22730781522728083
2024-04-10,-0.20169717538941287
2024-04-11,0.09118819300825284
2024-04-12,0.049818485256457976
2024-04-15,-0.3108877884179595
2024-04-16,-0.0006676116262963466
2024-04-17,0.1566022386805535
2024-04-18,-0.16690247872253777
2024-04-19,-0.05441711328074035
2024-04-22,0.24634494524475262
2024-04-23,0.14710860511084195
2024-04-24,-0.04724576271186582
2024-04-25,0.2044359647030764
2024-04-26,-0.004196076494124484
2024-04-29,-0.03699442175357147
2024-04-30,-0.10420741999306986
2024-05-06,0.028840250900840476
2024-05-07,-0.15349866670695486
2024-05-08,0.18281781348563453
2024-05-09,-0.1331399287919638
2024-05-10,-0.014230581408028478
2024-05-13,-0.10225280805973563
2024-05-14,0.16969489999456522
2024-05-15,-0.3105194172939383
2024-05-16,0.25196519779536397
2024-05-17,0.011249041840461417
2024-05-20,0.03991619715102521
2024-05-21,-0.11479242965091895
2024-05-22,0.3099296118748602
2024-05-23,-0.2209523755945659
2024-05-24,0.07967499146457707
2024-05-27,0.07715450942668486
2024-05-28,0.008445945945945874
2024-05-29,-0.24898234938163388
2024-05-30,0.09577365658006923
2024-05-31,-0.10005429359628952
2024-06-03,-0.14021319971508078
2024-06-04,-0.08672566371681478
2024-06-05,0.12432405533623303
2024-06-06,-0.16057458944696842
2024-06-07,0.05962157809983991
2024-06-11,0.08776633024950892
2024-06-12,0.02676849026927801
2024-06-13,0.12960216136038324
2024-06-14,0.11877394636015141
2024-06-17,0.02723249153865866
2024-06-18,-0.002611952694173241
2024-06-19,0.050360244464810015
2024-06-20,-0.2148734791898415
2024-06-21,-0.08786610878660953
2024-06-24,-0.10014832719881109
2024-06-25,-0.12395160376289045
2024-06-26,0.07923481199108466
2024-06-27,-0.020106589147287315
2024-06-28,0.06775116625787382
2024-07-01,0.11700610723990412
2024-07-02,0.11731252389535096
2024-07-03,-0.0947775478128288
2024-07-04,0.10521131805157367
2024-07-05,0.24391097652307114
2024-07-08,-0.0967674052351482
2024-07-09,-0.002057099691772272
2024-07-10,0.13949489594802505
2024-07-11,0.049674053127465936
2024-07-12,-0.4028083796733477
2024-07-15,0.2344576719576718
2024-07-16,0.021684720275264267
2024-07-17,-0.19924135950794344
2024-07-18,-0.058872927740124856
2024-07-19,0.22415907254131584
2024-07-22,-0.32654530494703166
2024-07-23,0.020657894736842746
2024-07-24,0.002958417521016596
2024-07-25,-0.06787924133917657
2024-07-26,-0.08728155832297657
2024-07-29,0.13900166579048998
2024-07-30,0.06776315789473628
2024-07-31,0.1665837954994564
2024-08-01,0.18268996863196785
2024-08-02,0.035584613120061524
2024-08-05,0.008056459669362833
2024-08-06,-0.183524027459955
2024-08-07,-0.09644853748627227
2024-08-08,-0.11468653588683735
2024-08-09,0.0755978373882323
2024-08-12,0.051371790792726635
2024-08-13,0.12647889891532257
2024-08-14,0.05179245283018903
2024-08-15,-0.013925096383329491
2024-08-16,-0.01279656169691866
2024-08-19,-0.07770804496593127
2024-08-20,-0.06785159270560473
2024-08-21,-0.062090840827532474
2024-08-22,-0.012779274355468658
2024-08-23,-0.1538120329604573
2024-08-26,0.14597787381482435
2024-08-27,0.02162559522800979
2024-08-28,-0.015682519013423435
2024-08-29,-0.02526904096557458
2024-08-30,0.11712619300106035
2024-09-02,-0.27561996964982083
2024-09-03,-0.09176759296976625
2024-09-04,0.22133500367657244
2024-09-05,0.10977196204468864
2024-09-06,0.04812037212834587
2024-09-09,0.14703432879424166
2024-09-10,0.0816122957911343
2024-09-11,-0.13212131461750992
2024-09-12,-0.12085054722040867
2024-09-13,-0.1593522561863168
2024-09-18,0.05529445976623299
2024-09-19,0.13397671432998376
2024-09-20,-0.20558291110635396
2024-09-23,0.19506171738829783
2024-09-24,0.2764056224899595
2024-09-25,-0.10479707665992852
2024-09-26,-0.15072448105233194
2024-09-27,0.16874112203423242
2024-09-30,0.19114321299225137
2024-10-08,0.06085127484156527
2024-10-09,0.06924411949337177
2024-10-10,0.06542275910736242
2024-10-11,0.016139164772047767
2024-10-14,-0.49949583077077264
2024-10-15,-0.5464325892689497
2024-10-16,0.0005887227715721081
2024-10-17,0.12783844127127614
2024-10-18,-0.04082416024944576
2024-10-21,0.08225320565688832
2024-10-22,0.34250902527075816
2024-10-23,-0.09468290745399181
2024-10-24,-0.42705663601186006
2024-10-25,-0.09729609500415776
2024-10-28,0.25711659060314673
2024-10-29,0.018548387096773075
2024-10-30,0.07230769230769207
2024-10-31,0.3114448043756898
2024-11-01,0.1285771553452039
2024-11-04,-0.2050361753440214
2024-11-05,-0.2291737963960527
2024-11-06,0.1607565011820326
2024-11-07,-0.10569149353680844
2024-11-08,0.013213997140903804
2024-11-11,0.037543639430431645
2024-11-12,0.18770874263261297
2024-11-13,-0.3304906525112761
2024-11-14,0.006155127266159924
2024-11-15,-0.12484787863632515
2024-11-18,-0.09451190701190723
2024-11-19,-0.04390723270440248
2024-11-20,0.12134705455504907
2024-11-21,0.15866243633631338
2024-11-22,0.22458561794920195
2024-11-25,0.10196725317693138
2024-11-26,-0.05238287424746939
2024-11-27,0.1295465170640504
2024-11-28,-0.22714590812014634
2024-11-29,-0.28566149297856824
2024-12-02,-0.11251920122887989
2024-12-03,0.10154010695187242
2024-12-04,0.07118432971014386
2024-12-05,0.2644340437133667
2024-12-06,0.16626441405202944
2024-12-09,0.17691029900332306
2024-12-10,0.20969565217391223
2024-12-11,-0.3021234856828189
2024-12-12,-0.22428207605163936
2024-12-13,0.035670905530350704
2024-12-16,-0.04576744186046487
2024-12-17,-0.43942481884057993
2024-12-18,0.2852988613658774
2024-12-19,0.12029130165091911
2024-12-20,-0.09469303057342382
2024-12-23,-0.17053127779424837
2024-12-24,0.23395322224634613
2024-12-25,-0.2917691256830573
2024-12-26,-0.17479139760179208
2024-12-27,-0.10040798855763322
2024-12-30,0.4400636161027045
2024-12-31,-0.02822405557967916
