date,FCT_Cr_Atr_Dfive
2014-03-21,
2014-03-24,
2014-03-25,
2014-03-26,
2014-03-27,
2014-03-28,
2014-03-31,
2014-04-01,
2014-04-02,
2014-04-03,
2014-04-04,0.22963972428782828
2014-04-08,0.13785822021116484
2014-04-09,0.4011904761904762
2014-04-10,-0.11629452418926156
2014-04-11,-0.028500131337010577
2014-04-14,-0.10965723225714603
2014-04-15,-0.12831737346101754
2014-04-16,-0.17628205128204957
2014-04-17,-0.017062517062514243
2014-04-18,0.37203206907184966
2014-04-21,-0.01024817878750349
2014-04-22,0.16198877305533732
2014-04-23,0.13730355665839356
2014-04-24,0.1269735081616235
2014-04-25,-0.49641067316809223
2014-04-28,0.12350149850149536
2014-04-29,-0.07949183303085622
2014-04-30,-0.19240448409974859
2014-05-05,0.5834512022630847
2014-05-06,0.1775700934579468
2014-05-07,-0.1157773386034241
2014-05-08,-0.03458646616540989
2014-05-09,0.09063494722734161
2014-05-12,-1.042857142857143
2014-05-13,-0.013333333333336845
2014-05-14,-0.04484919702310898
2014-05-15,0.05981866430782495
2014-05-16,0.24763208946708104
2014-05-19,0.376470588235296
2014-05-20,-0.010763052208834166
2014-05-21,0.1675008341675006
2014-05-22,0.05347593582887726
2014-05-23,-0.4552883132901683
2014-05-26,0.09202256244963229
2014-05-27,0.20358356502935118
2014-05-28,-0.021202361782075782
2014-05-29,-0.16001855287569638
2014-05-30,0.3919435811618489
2014-06-03,-0.06849315068492644
2014-06-04,-0.3429487179487218
2014-06-05,-0.12268865567215831
2014-06-06,0.07964161274266063
2014-06-09,-0.2919961159661555
2014-06-10,-0.014084507042257706
2014-06-11,0.22060439560439538
2014-06-12,0.016930723827273474
2014-06-13,0.05444864307798211
2014-06-16,0.16399733066399735
2014-06-17,-0.011889518931771214
2014-06-18,0.07619047619047878
2014-06-19,0.005246422893481782
2014-06-20,-0.01786327722432679
2014-06-23,-0.08815958815958636
2014-06-24,-0.0740259740259705
2014-06-25,-0.29999999999999877
2014-06-26,0.13529411764705696
2014-06-27,-0.06984478935698156
2014-06-30,0.01587301587301377
2014-07-01,0.08360655737704414
2014-07-02,0.2833333333333323
2014-07-03,-0.17462686567164043
2014-07-04,-0.019061583577714848
2014-07-07,0.08347016967706641
2014-07-08,0.0819672131147543
2014-07-09,-0.19358974358974523
2014-07-10,0.25796019900497513
2014-07-11,0.1067696501590232
2014-07-14,-0.09226467847157405
2014-07-15,-0.03740475640729347
2014-07-16,0.035827186512115944
2014-07-17,-0.1404761904761907
2014-07-18,0.19062319120200252
2014-07-21,0.0738738738738732
2014-07-22,-0.02816901408450779
2014-07-23,0.019590514066877427
2014-07-24,-0.22967032967032847
2014-07-25,-0.4761199555720099
2014-07-28,-0.03333333333333308
2014-07-29,-0.05357142857142806
2014-07-30,0.17244877257049923
2014-07-31,0.3343541704197419
2014-08-01,0.27181467181466995
2014-08-04,-0.027777777777775407
2014-08-05,0.6107142857142837
2014-08-06,-0.12342046044659888
2014-08-07,-0.21004098360655485
2014-08-08,0.009523809523813119
2014-08-11,0.01860346585116862
2014-08-12,-0.7886243386243366
2014-08-13,-0.03957112855090232
2014-08-14,0.17225609756097374
2014-08-15,0.3355311355311361
2014-08-18,0.0731743119266068
2014-08-19,0.11869952659426214
2014-08-20,0.0035736164999001993
2014-08-21,-0.16103814884302567
2014-08-22,-0.4006534006534021
2014-08-25,0.0378518518518496
2014-08-26,0.22202565236620897
2014-08-27,0.1296866974833077
2014-08-28,0.1526334026334031
2014-08-29,-0.13248217542696172
2014-09-01,-0.15177123928929764
2014-09-02,-0.14658176470218032
2014-09-03,-0.21586383217692767
2014-09-04,-0.19726866517278424
2014-09-05,0.06282470250984633
2014-09-09,0.22383243091570992
2014-09-10,0.3151158450009679
2014-09-11,0.14537634864596488
2014-09-12,0.13729662416626015
2014-09-15,0.15628714895076568
2014-09-16,-0.22391304347826216
2014-09-17,-0.46856725146198897
2014-09-18,-0.10763520678684786
2014-09-19,0.018965517241378203
2014-09-22,0.14364938351370318
2014-09-23,0.05675675675675763
2014-09-24,0.14380960791240116
2014-09-25,0.085079583190195
2014-09-26,0.02184695323571225
2014-09-29,-0.27287228568488375
2014-09-30,-0.13600845743702958
2014-10-08,0.32822986577180935
2014-10-09,0.01451391274476159
2014-10-10,-0.12312745333653802
2014-10-13,0.16718122877431174
2014-10-14,0.19036281179138245
2014-10-15,-0.4644960732984293
2014-10-16,-0.06832395247029427
2014-10-17,-0.07748538011695968
2014-10-20,-0.3438296323261726
2014-10-21,-0.1106160616061573
2014-10-22,0.24574607329843062
2014-10-23,-0.0920060331824997
2014-10-24,0.12953216374268853
2014-10-27,0.2023126127603728
2014-10-28,-0.03095481961989452
2014-10-29,-0.20000000000000095
2014-10-30,0.2770673486785957
2014-10-31,-0.061111111111108105
2014-11-03,0.043956043956045195
2014-11-04,0.10677555958862218
2014-11-05,0.11185897435897521
2014-11-06,-0.38310450038138444
2014-11-07,-0.05169491525423988
2014-11-10,0.07547169811321006
2014-11-11,-0.008771929824556272
2014-11-12,0.14633068081344155
2014-11-13,0.31599190283400436
2014-11-14,0.24253998567677304
2014-11-17,-0.17423713021197562
2014-11-18,-0.11343427060802741
2014-11-19,-0.16614420062696228
2014-11-20,-0.12405372405372034
2014-11-21,-0.1080581851766338
2014-11-24,0.3051146384479717
2014-11-25,0.22746935832732368
2014-11-26,0.010570824524310157
2014-11-27,0.4775291642761533
2014-11-28,0.20887978142076669
2014-12-01,-0.018429743261957815
2014-12-02,-0.12592922985429708
2014-12-03,0.1303893389077647
2014-12-04,-0.5637318504788404
2014-12-05,-0.3928294573643406
2014-12-08,-0.4413441206214936
2014-12-09,-0.04234696522054442
2014-12-10,-0.22883895131086057
2014-12-11,-0.02490842490842661
2014-12-12,-0.0026833631484820264
2014-12-15,0.14736405147363701
2014-12-16,0.03669724770642095
2014-12-17,0.014689265536718552
2014-12-18,-0.04945054945054772
2014-12-19,0.21219021219021664
2014-12-22,0.4141114931548663
2014-12-23,0.13350258042216553
2014-12-24,0.3567568309351398
2014-12-25,0.24472516366577463
2014-12-26,-0.010151287259730656
2014-12-29,-0.20460261123218781
2014-12-30,0.21024741957783596
2014-12-31,-0.1838491972470544
2015-01-05,0.043170763936035327
2015-01-06,0.20684078596265296
2015-01-07,-0.15692421169094697
2015-01-08,-0.5471398305084763
2015-01-09,-0.06844796305459411
2015-01-12,0.08426787981379656
2015-01-13,-0.4684481911933265
2015-01-14,0.34804957923973023
2015-01-15,0.20338983050847476
2015-01-16,0.038136492971507
2015-01-19,-0.3494467583827675
2015-01-20,0.19933012710409126
2015-01-21,-0.594573643410852
2015-01-22,0.030612244897959204
2015-01-23,-0.1427639769965043
2015-01-26,0.3606018792299069
2015-01-27,-0.014217379750201386
2015-01-28,0.5135922330097069
2015-01-29,-0.04661224489795871
2015-01-30,0.09442163728567814
2015-02-02,0.10065543071161481
2015-02-03,-0.0039561777236773385
2015-02-04,-0.3469255663430437
2015-02-05,-0.04553846153846208
2015-02-06,-0.008396641343459837
2015-02-09,-0.783192090395483
2015-02-10,-0.0010752688172022198
2015-02-11,0.08160919540230409
2015-02-12,0.11608391608391652
2015-02-13,0.1707179197286589
2015-02-16,0.6127375449409357
2015-02-17,0.10090090090089943
2015-02-25,0.14033173286773898
2015-02-26,-0.07780126849894525
2015-02-27,-0.1260262725779953
2015-03-02,-0.1329768270944748
2015-03-03,-0.07947232947232731
2015-03-04,-0.24523410096080378
2015-03-05,0.09468438538206132
2015-03-06,-0.07857142857142912
2015-03-09,0.08319327731092484
2015-03-10,0.10523809523809259
2015-03-11,0.21760211578019317
2015-03-12,0.15845648604269497
2015-03-13,0.06666666666666422
2015-03-16,-0.12750333778371184
2015-03-17,-0.18244224422442235
2015-03-18,0.015111346765641243
2015-03-19,-0.4824103099965248
2015-03-20,-0.06756756756756889
2015-03-23,0.28795882432616215
2015-03-24,0.17146185206756315
2015-03-25,-0.10869565217391042
2015-03-26,0.2862331176938036
2015-03-27,0.3066980023501829
2015-03-30,-0.31960335621663677
2015-03-31,-0.10158371040724175
2015-04-01,0.13064791133844594
2015-04-02,0.04664927768859878
2015-04-03,-0.33830398850161914
2015-04-07,0.188636729438276
2015-04-08,0.09958290166623285
2015-04-09,-0.1922573113263083
2015-04-10,-0.20091999410155265
2015-04-13,0.277891408387466
2015-04-14,-0.24257332182338648
2015-04-15,-0.155823830548671
2015-04-16,0.1350344221706451
2015-04-17,0.13036677281303605
2015-04-20,-0.4020188255422435
2015-04-21,0.054155890630726525
2015-04-22,0.25355388989402794
2015-04-23,-0.09895586141432944
2015-04-24,0.2247639796659393
2015-04-27,0.2733009708737849
2015-04-28,0.18273809523809292
2015-04-29,-0.1215604526503866
2015-04-30,0.09929179825820642
2015-05-04,-0.2464256087444473
2015-05-05,0.06599999999999859
2015-05-06,-0.10599078341013608
2015-05-07,-0.1362318840579707
2015-05-08,-0.033278247626460075
2015-05-11,-0.1209547924901194
2015-05-12,-0.2601441441441438
2015-05-13,-0.05240520656479962
2015-05-14,0.01791239211854958
2015-05-15,-0.14559856664623144
2015-05-18,0.1258680555555562
2015-05-19,0.03225603225603099
2015-05-20,0.14977206796518905
2015-05-21,0.03281224556260762
2015-05-22,0.36906783448029556
2015-05-25,0.1039141414141406
2015-05-26,0.2665842444848011
2015-05-27,-0.15838450815657396
2015-05-28,0.0392947855968963
2015-05-29,-0.30787389582698893
2015-06-01,-0.09696969696969636
2015-06-02,-0.3038674033149179
2015-06-03,0.07177033492822422
2015-06-04,-0.15316642120766305
2015-06-05,0.08410636982065436
2015-06-08,-0.1804511278195456
2015-06-09,0.16751989457144106
2015-06-10,-0.03603603603603577
2015-06-11,0.13351134846462268
2015-06-12,0.3603487707261282
2015-06-15,0.3183821623023021
2015-06-16,0.10286349735891206
2015-06-17,0.14954954954955765
2015-06-18,0.057889483712911624
2015-06-19,-0.5669986023759597
2015-06-23,-0.11480964719952054
2015-06-24,-0.2794042116076038
2015-06-25,-0.08666787592963046
2015-06-26,-0.00279205533345922
2015-06-29,0.24282407407407552
2015-06-30,0.2583157384652724
2015-07-01,0.1815565763767909
2015-07-02,-0.08164015813183344
2015-07-03,0.0073884626314257296
2015-07-06,0.25900229357798027
2015-07-07,-0.33073290039639847
2015-07-08,0.3284873658705431
2015-07-09,0.7369863013698632
2015-07-10,-0.030338793686758448
2015-07-13,-0.3489306375270254
2015-07-14,-0.00579604505160837
2015-07-15,-0.49672817694019106
2015-07-16,-1.1305388882599336
2015-07-17,-0.1651234003098725
2015-07-20,0.14661502517174763
2015-07-21,0.15429816890584688
2015-07-22,0.28567054891505295
2015-07-23,0.35341039857725554
2015-07-24,0.1667976218537994
2015-07-27,-0.3052148382192902
2015-07-28,-0.232253559506778
2015-07-29,-0.3604822735175777
2015-07-30,0.11108293514617638
2015-07-31,-0.0573971372497821
2015-08-03,0.3291141417285096
2015-08-04,0.15317891510914838
2015-08-05,0.16968804969086138
2015-08-06,0.13590055734031997
2015-08-07,0.08875917622603535
2015-08-10,-0.26856675396269164
2015-08-11,-0.11563732278624725
2015-08-12,0.32950310559006485
2015-08-13,-0.29767785158690285
2015-08-14,-0.1297011998154117
2015-08-17,0.19944549315714788
2015-08-18,0.048993990070552995
2015-08-19,-0.5112104226632336
2015-08-20,0.16944059177069204
2015-08-21,0.058359760394641316
2015-08-24,0.7951789768610207
2015-08-25,0.2252350321622929
2015-08-26,0.24614775028616737
2015-08-27,0.008218945941363395
2015-08-28,0.09826249665864635
2015-08-31,-1.2007121721249798
2015-09-01,-0.3502920317062971
2015-09-02,-0.11503214918932746
2015-09-07,0.3824452144596366
2015-09-08,-0.1385725741780234
2015-09-09,0.3946534467070371
2015-09-10,0.19043655197928208
2015-09-11,0.10522134560595954
2015-09-14,-0.8107870482658244
2015-09-15,0.04054677791585547
2015-09-16,-0.16061404513689972
2015-09-17,-0.018867924528304304
2015-09-18,-0.022173489278751245
2015-09-21,0.5213133640552966
2015-09-22,0.05494971525505269
2015-09-23,0.08574471862240333
2015-09-24,-0.007874015748028559
2015-09-25,0.09690893901419942
2015-09-28,-0.16176470588235248
2015-09-29,-0.0015146007512399223
2015-09-30,0.0011225864391589853
2015-10-08,0.13666189453590832
2015-10-09,0.04144028976244092
2015-10-12,0.06670482564283475
2015-10-13,-0.1311911947452536
2015-10-14,-0.015460030165915961
2015-10-15,-0.30328452308318155
2015-10-16,-0.3321874829486569
2015-10-19,-0.07117723316253895
2015-10-20,-0.0037509377344297906
2015-10-21,0.5924908424908477
2015-10-22,0.1591120289106869
2015-10-23,0.32856961382113836
2015-10-26,0.006272078437022148
2015-10-27,0.1257597007947652
2015-10-28,-0.8222669349429947
2015-10-29,0.11247199402539729
2015-10-30,-0.28532909292035497
2015-11-02,-0.08205624163071054
2015-11-03,0.19993015540422054
2015-11-04,0.2158243579121754
2015-11-05,-0.06583737864078246
2015-11-06,0.20854563332439968
2015-11-09,0.25294360669283306
2015-11-10,-0.4084028421377819
2015-11-11,0.10049019607843343
2015-11-12,-0.12124999999999732
2015-11-13,0.047508047508041926
2015-11-16,-0.20662940080415423
2015-11-17,0.12513935340022775
2015-11-18,0.015804597701152702
2015-11-19,0.37260869565217297
2015-11-20,-0.1557086980815759
2015-11-23,0.26161616161615875
2015-11-24,0.2604546963159621
2015-11-25,0.07544012803724306
2015-11-26,-0.2826086956521737
2015-11-27,0.21863459899630325
2015-11-30,-0.2540158870255955
2015-12-01,-0.2778310336991219
2015-12-02,-0.11429135616896086
2015-12-03,-0.0369868736251903
2015-12-04,-0.17778386323755213
2015-12-07,0.05253985941363913
2015-12-08,0.05386702061297255
2015-12-09,-0.1943776119936778
2015-12-10,-0.13213077343363544
2015-12-11,-0.017301913199878033
2015-12-14,0.14945582559175824
2015-12-15,0.025987224157954965
2015-12-16,0.47414467253177084
2015-12-17,0.3678754110339832
2015-12-18,0.06497317621164957
2015-12-21,-0.0627467569092008
2015-12-22,0.19941708851050627
2015-12-23,-0.3686995967741954
2015-12-24,-0.2323712093533093
2015-12-25,-0.08594277990537785
2015-12-28,-0.2156770157006193
2015-12-29,-0.29403365629780487
2015-12-30,0.07622965976331965
2015-12-31,0.03949579831932725
2016-01-04,0.3868548182049283
2016-01-05,0.22360568018110416
2016-01-06,0.013017098731381904
2016-01-07,0.01610927195474119
2016-01-08,0.024290060851928186
2016-01-11,-0.5392106486579066
2016-01-12,-0.18567507453504395
2016-01-13,0.037755102040819055
2016-01-14,-0.07140914776744123
2016-01-15,-0.08212046574115632
2016-01-18,0.45729924915458353
2016-01-19,0.07397996868260404
2016-01-20,0.07548701298701035
2016-01-21,-0.03258449706537277
2016-01-22,0.06385281385281402
2016-01-25,-0.42796132151490884
2016-01-26,-0.01585395147730163
2016-01-27,-0.03977272727272796
2016-01-28,0.316815697963242
2016-01-29,-0.06711948583114159
2016-02-01,0.24018334606569994
2016-02-02,0.08051529790660203
2016-02-03,-0.04166666666666007
2016-02-04,-0.28453792584227783
2016-02-05,0.15978988732507451
2016-02-15,-0.028279412894791398
2016-02-16,0.01498608435024576
2016-02-17,0.01968864468863475
2016-02-18,-0.07390606462418536
2016-02-19,-0.20713926596279786
2016-02-22,0.36204564666101846
2016-02-23,0.06137894046838424
2016-02-24,0.04512617012617812
2016-02-25,0.19599369566322616
2016-02-26,0.14897760467380977
2016-02-29,-0.5792626728110529
2016-03-01,-0.13340206185566383
2016-03-02,0.0329743008314389
2016-03-03,-0.10621461516602443
2016-03-04,0.033586497890292985
2016-03-07,0.3741039426523318
2016-03-08,0.38078431372548804
2016-03-09,0.43379109568899893
2016-03-10,0.23110849475327025
2016-03-11,-0.07353796445880316
2016-03-14,-0.11635009809167288
2016-03-15,-0.4633484162895932
2016-03-16,-0.7773085026517803
2016-03-17,-0.3081411262362699
2016-03-18,0.04658836233678683
2016-03-21,-0.1095455078417179
2016-03-22,0.0075772951762388685
2016-03-23,0.4419139084205074
2016-03-24,0.15630360205832022
2016-03-25,-0.031311267443199176
2016-03-28,0.02642752082700575
2016-03-29,0.10221572305051263
2016-03-30,-0.23346631885836916
2016-03-31,-0.18051948051948252
2016-04-01,0.03531792662227287
2016-04-05,-0.009496561358262844
2016-04-06,0.05709856971746822
2016-04-07,0.0981781376518232
2016-04-08,0.15123744180348184
2016-04-11,0.01190846018432274
2016-04-12,-0.0410698172794953
2016-04-13,0.010339181286550633
2016-04-14,0.02317596524890329
2016-04-15,-0.03542822287214095
2016-04-18,-0.010276725726450185
2016-04-19,0.2039068714420019
2016-04-20,0.04209051372927436
2016-04-21,0.1082523992303071
2016-04-22,0.17964851482426697
2016-04-25,-0.006502613799837166
2016-04-26,-0.09153252089416636
2016-04-27,-0.15146155057589106
2016-04-28,-0.22655793530784918
2016-04-29,-0.26269827419499403
2016-05-03,-0.12762759023515602
2016-05-04,-0.1626871090259161
2016-05-05,0.02484243724109169
2016-05-06,0.046018323510219825
2016-05-09,0.37951286770144643
2016-05-10,-0.008159873653569044
2016-05-11,0.10751096491228002
2016-05-12,-0.04164783615528066
2016-05-13,0.02988047808764895
2016-05-16,-0.46447330980011936
2016-05-17,0.08590543363907041
2016-05-18,0.12032667876588152
2016-05-19,-0.006581517212916582
2016-05-20,-0.05066079295154303
2016-05-23,0.312555940804851
2016-05-24,-0.05178868354791108
2016-05-25,-0.19915226768394736
2016-05-26,0.08195763475573992
2016-05-27,0.1835279258186778
2016-05-30,-0.09854105200844032
2016-05-31,0.03345247195421752
2016-06-01,0.048336433238644054
2016-06-02,-0.06216422078911105
2016-06-03,-0.27667244260164847
2016-06-06,-0.21021150349315643
2016-06-07,0.03185484893838265
2016-06-08,0.14557359575156642
2016-06-13,0.17671595143646987
2016-06-14,0.26787478864270214
2016-06-15,0.07970977291784284
2016-06-16,-0.010896676435742332
2016-06-17,-0.14937236576873958
2016-06-20,-0.23610445441738231
2016-06-21,-0.19814355298226183
2016-06-22,0.14682968245882153
2016-06-23,-0.0934216835956228
2016-06-24,0.10158480868075376
2016-06-27,0.4075023262415839
2016-06-28,0.0436291092028783
2016-06-29,-0.059985135637310186
2016-06-30,0.2703137570394208
2016-07-01,-0.06749019370378413
2016-07-04,-0.41086858249919334
2016-07-05,0.25761124121779966
2016-07-06,0.09133569347641757
2016-07-07,-0.124979815921201
2016-07-08,0.025919390625272133
2016-07-11,0.14251200139652664
2016-07-12,-0.26379048016826084
2016-07-13,-0.09922086934578231
2016-07-14,-0.16700785742240493
2016-07-15,-0.030588235294116875
2016-07-18,0.041873963515752385
2016-07-19,-0.04208778186707345
2016-07-20,-0.033459038754714246
2016-07-21,0.29161279049449684
2016-07-22,0.046811269010221326
2016-07-25,-0.18502824858756967
2016-07-26,0.05229689134910705
2016-07-27,0.12608188454880673
2016-07-28,-0.3556719741051895
2016-07-29,-0.005492587691540606
2016-08-01,0.1660725976576719
2016-08-02,-0.04818167985392609
2016-08-03,-0.15061812838830568
2016-08-04,0.23836169176319494
2016-08-05,-0.04649725274725251
2016-08-08,-0.14885256824818346
2016-08-09,0.2042725846673651
2016-08-10,0.11810875932418546
2016-08-11,-0.11743792067825087
2016-08-12,-0.09930019305019375
2016-08-15,0.002423603793467538
2016-08-16,-0.017943966898398
2016-08-17,-0.04788290237057325
2016-08-18,0.0431267870028272
2016-08-19,0.17817689154450134
2016-08-22,-0.0006737787759693165
2016-08-23,-0.20191751996799162
2016-08-24,-0.0923934541512206
2016-08-25,0.2381911463643068
2016-08-26,-0.06451282960457697
2016-08-29,0.23780527473099522
2016-08-30,0.018426417133315012
2016-08-31,0.2770260936579819
2016-09-01,-0.40460877399681217
2016-09-02,0.05746240329353799
2016-09-05,-0.27293343271963955
2016-09-06,0.0652454541264432
2016-09-07,-0.1605465804906323
2016-09-08,0.18274740980749116
2016-09-09,-0.12996461372678406
2016-09-12,0.2116032188158954
2016-09-13,-0.004914766295757667
2016-09-14,-0.15603191546600767
2016-09-19,0.020875361900385817
2016-09-20,0.08045977011494501
2016-09-21,-0.2220394736842108
2016-09-22,0.06803234501348021
2016-09-23,0.11236581337737306
2016-09-26,-0.0897576543332981
2016-09-27,0.11417322834645484
2016-09-28,0.10355449135205551
2016-09-29,-0.06022696199070377
2016-09-30,0.061233766233766314
2016-10-10,0.14753628101651772
2016-10-11,-0.02622534561029874
2016-10-12,0.11455534161359267
2016-10-13,-0.04582736104475283
2016-10-14,-0.0030793483972641617
2016-10-17,-0.1355098790623568
2016-10-18,-0.25411998956108417
2016-10-19,0.027617363138489323
2016-10-20,0.10996010359067555
2016-10-21,0.10011456543248194
2016-10-24,0.07203755868544365
2016-10-25,0.29410944363954883
2016-10-26,-0.14521550019770424
2016-10-27,-0.06765241128298406
2016-10-28,-0.17888391989111377
2016-10-31,0.107780590717301
2016-11-01,-0.020314018428970917
2016-11-02,0.015632028789923782
2016-11-03,0.0009953161592522628
2016-11-04,0.009458824692822915
2016-11-07,0.11873090353557278
2016-11-08,-0.10244197123539235
2016-11-09,0.2252041682318389
2016-11-10,0.21011354664932685
2016-11-11,0.18094602789569414
2016-11-14,-0.16408060835145985
2016-11-15,0.03203239330775689
2016-11-16,-0.2829756225558524
2016-11-17,-0.31672564958263516
2016-11-18,-0.21679979015017262
2016-11-21,-0.29926058727348714
2016-11-22,-0.0325841108283869
2016-11-23,0.0407313354163209
2016-11-24,0.19662040341058507
2016-11-25,0.27185346125364973
2016-11-28,0.3011756826042246
2016-11-29,0.04835796901749514
2016-11-30,0.04961424820247441
2016-12-01,0.07766437936991664
2016-12-02,-0.24614702767045274
2016-12-05,-0.0913140436170635
2016-12-06,-0.17995711781136034
2016-12-07,0.07677832360368657
2016-12-08,-0.32140293927091934
2016-12-09,0.09102205531920526
2016-12-12,0.020821644939429236
2016-12-13,0.11431129131613571
2016-12-14,-0.16130926801317905
2016-12-15,0.16610445046959788
2016-12-16,-0.17371437143714522
2016-12-19,-0.09828147176177587
2016-12-20,0.006408227848100605
2016-12-21,-0.011369134010643878
2016-12-22,0.05329715946154261
2016-12-23,0.16342593328353738
2016-12-26,0.1627820558739277
2016-12-27,0.07860890014471823
2016-12-28,0.08491839177042912
2016-12-29,-0.1678125795772847
2016-12-30,-0.030285820171775807
2017-01-03,-0.1984844924812049
2017-01-04,-0.09624968512765422
2017-01-05,-0.06539074960127834
2017-01-06,0.14162210338680875
2017-01-09,0.19296265845571833
2017-01-10,0.16548373946915412
2017-01-11,-0.020713531563826805
2017-01-12,0.10112477883562411
2017-01-13,-0.07079731027857822
2017-01-16,-0.17050307986178231
2017-01-17,0.006176689135398185
2017-01-18,0.06970891905722339
2017-01-19,-0.023412015408572927
2017-01-20,0.09205785177880058
2017-01-23,-0.20001663339986675
2017-01-24,-0.049781772024735126
2017-01-25,-0.06657925688833943
2017-01-26,-0.09869178440607061
2017-02-03,0.2336005696108882
2017-02-06,0.1603399221323746
2017-02-07,-0.11037189793630198
2017-02-08,0.08615878380776953
2017-02-09,0.08577263444520003
2017-02-10,-0.4095394736842102
2017-02-13,0.08843526736660967
2017-02-14,0.06523415907133132
2017-02-15,-0.08208250341362908
2017-02-16,0.10939368572112068
2017-02-17,-0.056902704899205486
2017-02-20,-0.11233728100225102
2017-02-21,0.05167145938174232
2017-02-22,0.1402555168408793
2017-02-23,-0.17523806189609403
2017-02-24,0.3046213605125967
2017-02-27,0.19371114299378095
2017-02-28,0.13465618539875893
2017-03-01,-0.16837012184354389
2017-03-02,-0.014433752775720794
2017-03-03,-0.1762311762311737
2017-03-06,-0.18707475530527354
2017-03-07,-0.34676378185215095
2017-03-08,0.0518411039864041
2017-03-09,0.1189533239038188
2017-03-10,-0.004962866021468351
2017-03-13,0.1194812593703144
2017-03-14,0.24315764621878272
2017-03-15,0.10248182171403068
2017-03-16,-0.024686253290909687
2017-03-17,0.032491867234680276
2017-03-20,-0.24839477977161298
2017-03-21,-0.009354279781949526
2017-03-22,-0.1305556772643185
2017-03-23,-0.11986820215463422
2017-03-24,0.044258373205739686
2017-03-27,0.3874248226900673
2017-03-28,-0.05943066250743822
2017-03-29,0.1163977494093017
2017-03-30,0.11899969570730787
2017-03-31,0.023030607569242738
2017-04-05,-0.36560692897753433
2017-04-06,0.05157836060824104
2017-04-07,-0.11592781623237336
2017-04-10,-0.03566862287399822
2017-04-11,-0.16003979721000988
2017-04-12,0.20735715511737673
2017-04-13,0.0018576029965739309
2017-04-14,-0.03897111620688843
2017-04-17,0.11213263461125927
2017-04-18,0.20672905958038282
2017-04-19,-0.19710862726725137
2017-04-20,0.08028699257965959
2017-04-21,0.09779077322936965
2017-04-24,-0.14249530715626516
2017-04-25,-0.15577795101404437
2017-04-26,0.25424270510403013
2017-04-27,-0.27195144062768006
2017-04-28,-0.029011749557379646
2017-05-02,0.02549981776319867
2017-05-03,0.038123528380639315
2017-05-04,0.10581380844473069
2017-05-05,0.182189576510233
2017-05-08,0.03291038503496254
2017-05-09,0.01092789713253396
2017-05-10,0.022158574286232132
2017-05-11,-0.40140383101548116
2017-05-12,0.09422867345282523
2017-05-15,-0.00034544871320355
2017-05-16,-0.03162261056084778
2017-05-17,0.15008271298593948
2017-05-18,0.0874955631053192
2017-05-19,-0.06686038106803123
2017-05-22,-0.00729034029910376
2017-05-23,0.03536514776344989
2017-05-24,-0.16576780913978573
2017-05-25,0.13997294125561616
2017-05-26,-0.11517957351290684
2017-05-31,0.053540232661111804
2017-06-01,0.04978015192208974
2017-06-02,-0.08467350319926728
2017-06-05,-0.03750711439954618
2017-06-06,-0.018573562587647127
2017-06-07,-0.3151345493949792
2017-06-08,0.007052075132155944
2017-06-09,0.22431648504284363
2017-06-12,-0.04919843249020141
2017-06-13,0.24041406059093556
2017-06-14,0.49722581286666
2017-06-15,0.013605586119339659
2017-06-16,-0.15383854465976438
2017-06-19,0.08552353844881534
2017-06-20,-0.2528608342561829
2017-06-21,-0.4124011652101539
2017-06-22,-0.17274145285541465
2017-06-23,-0.040530612926385406
2017-06-26,-0.12280333361331136
2017-06-27,0.20385458653671348
2017-06-28,0.15510955982160063
2017-06-29,0.08244798841852018
2017-06-30,0.06885202033716878
2017-07-03,0.12110555684724272
2017-07-04,-0.06459512326230965
2017-07-05,0.08285340314136368
2017-07-06,0.06793274835859549
2017-07-07,0.07222055017155259
2017-07-10,-0.13242035036761018
2017-07-11,0.1163501599254104
2017-07-12,-0.11650197628458474
2017-07-13,-0.017381922800287143
2017-07-14,-0.016614341553294346
2017-07-17,0.2173505191264442
2017-07-18,-0.32293999469897705
2017-07-19,0.06792474051222398
2017-07-20,0.012799836684696198
2017-07-21,-0.10162937464142416
2017-07-24,-0.18203598332142856
2017-07-25,0.18508833721120727
2017-07-26,0.008920271115394608
2017-07-27,-0.10586902063699992
2017-07-28,0.03422427035330104
2017-07-31,0.14666104241912553
2017-08-01,-0.02074402810698442
2017-08-02,-0.08744724375986883
2017-08-03,0.02398176214370882
2017-08-04,0.09446699423200325
2017-08-07,0.0019415647307839956
2017-08-08,0.11212134701417947
2017-08-09,0.15816481447743963
2017-08-10,0.0803350484777707
2017-08-11,0.0031855328972520275
2017-08-14,-0.22079007995938402
2017-08-15,-0.13359742592586202
2017-08-16,-0.21914532074358942
2017-08-17,0.05978362788765278
2017-08-18,-0.15623076312152911
2017-08-21,0.2095068036086042
2017-08-22,0.004538917573403349
2017-08-23,0.40621704299119205
2017-08-24,-0.11467475650651225
2017-08-25,0.18250190465647678
2017-08-28,-0.08079322638146055
2017-08-29,0.04534537029701555
2017-08-30,-0.4444025361604026
2017-08-31,0.010036657149906147
2017-09-01,-0.1026097785478358
2017-09-04,-0.032889949977262
2017-09-05,-0.055998546907639946
2017-09-06,0.24244242203453764
2017-09-07,-0.07012035583464082
2017-09-08,-0.05727050858132718
2017-09-11,-0.04979846681586014
2017-09-12,0.06963200733692773
2017-09-13,-0.16870385975196278
2017-09-14,0.15754057263491122
2017-09-15,-0.09287082649151587
2017-09-18,0.07435508345978865
2017-09-19,-0.05837040648424839
2017-09-20,0.03570655051258517
2017-09-21,0.0007317106373712912
2017-09-22,0.29832532401339706
2017-09-25,-0.03980891719745192
2017-09-26,-0.039055034616260226
2017-09-27,0.018856897177173964
2017-09-28,-0.1066656620454074
2017-09-29,-0.09477966332487824
2017-10-09,0.1257738294781537
2017-10-10,0.22937279140109945
2017-10-11,0.02850070133767491
2017-10-12,0.13260668953389051
2017-10-13,-0.10099217552633842
2017-10-16,-0.10804283435862412
2017-10-17,-0.17863709405780487
2017-10-18,-0.012243912853787581
2017-10-19,-0.2181010446485001
2017-10-20,0.1513809964318758
2017-10-23,0.08517805925213494
2017-10-24,-0.0487306687229553
2017-10-25,0.0739267729076324
2017-10-26,0.06967970541235387
2017-10-27,-0.22720568462397128
2017-10-30,-0.1939981584831942
2017-10-31,0.06460877916501798
2017-11-01,-0.10728504992280974
2017-11-02,0.05746504369246937
2017-11-03,0.037160091918804095
2017-11-06,0.29237662053077346
2017-11-07,-0.05215511298465401
2017-11-08,-0.012654390917496788
2017-11-09,-0.05158440211590551
2017-11-10,0.11291208791208776
2017-11-13,-0.28088158429641935
2017-11-14,0.017240155580159653
2017-11-15,0.14661054021074302
2017-11-16,-0.06454993537970224
2017-11-17,-0.03520382056967323
2017-11-20,0.06595086926170943
2017-11-21,0.017896311066800813
2017-11-22,-0.24388646288209628
2017-11-23,0.2286519398178397
2017-11-24,-0.11963488910774442
2017-11-27,0.16774141387656855
2017-11-28,0.09334551550913484
2017-11-29,0.2880387626717559
2017-11-30,-0.14571675527536984
2017-12-01,0.16893726364291106
2017-12-04,-0.027152368603069993
2017-12-05,-0.12165714550464582
2017-12-06,-0.09032504497791816
2017-12-07,0.2104136017559009
2017-12-08,0.01713539491551523
2017-12-11,-0.1634842348498029
2017-12-12,0.07735348336570722
2017-12-13,-0.14771371769383732
2017-12-14,-0.39493727598566414
2017-12-15,-0.11852491878067513
2017-12-18,0.15699246667954656
2017-12-19,0.011763364239235997
2017-12-20,0.08577235772357565
2017-12-21,0.21994558991981716
2017-12-22,0.10308044358387827
2017-12-25,-0.03809196980096242
2017-12-26,-0.160357765901477
2017-12-27,-0.017087597807083632
2017-12-28,-0.08321187344472193
2017-12-29,-0.13181216067464077
2018-01-02,-0.18109223431052152
2018-01-03,0.14348099686445445
2018-01-04,0.022816656514104534
2018-01-05,0.15894088669950926
2018-01-08,0.14269470948490595
2018-01-09,0.00026743788288982606
2018-01-10,-0.023567754151373473
2018-01-11,0.0056576744784925335
2018-01-12,-0.13702075702075855
2018-01-15,-0.170536491358945
2018-01-16,0.1953185848040406
2018-01-17,-0.0816118615545609
2018-01-18,-0.021131693648815016
2018-01-19,0.176068376068379
2018-01-22,0.12857511425622925
2018-01-23,-0.08753478474381886
2018-01-24,0.09502845163223074
2018-01-25,0.16243414120126276
2018-01-26,-0.29279279279279746
2018-01-29,-0.09586572825102391
2018-01-30,0.05845983285007467
2018-01-31,0.0664227955333081
2018-02-01,-0.21346153846153812
2018-02-02,0.27432432432432696
2018-02-05,0.12887070057488045
2018-02-06,-0.030862201382432553
2018-02-07,-0.20727595385980918
2018-02-08,-0.007236842105260308
2018-02-09,-0.08619102973941599
2018-02-12,-0.09378101573223468
2018-02-13,-0.019007636808569532
2018-02-14,0.07779580359074564
2018-02-22,0.2923535736227667
2018-02-23,-0.0222429669582484
2018-02-26,0.2817178924870022
2018-02-27,0.05548954148512532
2018-02-28,0.04104477611940152
2018-03-01,-0.3276167315175039
2018-03-02,-0.10841387100006136
2018-03-05,-0.3499863940093308
2018-03-06,-0.09764867076792969
2018-03-07,0.26615969581748955
2018-03-08,0.24662912912912827
2018-03-09,0.3067702368754123
2018-03-12,0.08707460254454916
2018-03-13,0.09353539755166813
2018-03-14,-0.2749702685047138
2018-03-15,-0.2269069069069074
2018-03-16,-0.37720102714599957
2018-03-19,0.1514900662251671
2018-03-20,-0.021541950113380226
2018-03-21,0.0718026986714748
2018-03-22,0.13728395061728355
2018-03-23,0.5619624866901466
2018-03-26,-0.14038461538461677
2018-03-27,0.0927579365079357
2018-03-28,-0.11819717330286224
2018-03-29,-0.014464436612460607
2018-03-30,-0.5719591170394691
2018-04-02,0.04327306159975421
2018-04-03,-0.16852390180878588
2018-04-04,-0.015481023367457852
2018-04-09,0.09398412224628863
2018-04-10,0.06798149314956296
2018-04-11,-0.06743240623181612
2018-04-12,0.046364236777624246
2018-04-13,0.16792754729874024
2018-04-16,-0.11665056156122199
2018-04-17,0.20921566016102786
2018-04-18,0.08499850547122284
2018-04-19,0.0069724669635291125
2018-04-20,-0.1749725690496458
2018-04-23,-0.047933383472475236
2018-04-24,-0.209345202411521
2018-04-25,-0.20178877726047578
2018-04-26,0.06561096448580711
2018-04-27,0.07773109243697508
2018-05-02,-3.461860680899209e-05
2018-05-03,0.2260234407065681
2018-05-04,0.12768093667699135
2018-05-07,-0.08061673593636377
2018-05-08,-0.03951367781154983
2018-05-09,-0.024027547997384047
2018-05-10,-0.22711122665626884
2018-05-11,0.10942252589816953
2018-05-14,-0.07014560304013137
2018-05-15,0.17785359876016751
2018-05-16,0.10434247538677507
2018-05-17,0.15927041957722607
2018-05-18,-0.026106851348008928
2018-05-21,0.2612294939675339
2018-05-22,-0.19345803118483998
2018-05-23,-0.004166666666660532
2018-05-24,-0.0004974764377062291
2018-05-25,-0.03657452412406517
2018-05-28,-0.19204221864553533
2018-05-29,0.16506575421527986
2018-05-30,-0.08715932914046437
2018-05-31,-0.06562668463612031
2018-06-01,-0.04110575811045551
2018-06-04,0.01998564860339655
2018-06-05,-0.16285769688910917
2018-06-06,0.03984399704859213
2018-06-07,0.07079545454545794
2018-06-08,-0.06912301859591476
2018-06-11,-0.028334765960771644
2018-06-12,0.04669887278582684
2018-06-13,0.02613477653631467
2018-06-14,-0.2092861666197613
2018-06-15,0.12904129041290302
2018-06-19,0.22385935093217096
2018-06-20,0.030235204148251215
2018-06-21,0.008220307917887078
2018-06-22,0.16387255645470963
2018-06-25,-0.02827967934851417
2018-06-26,-0.32750352323305776
2018-06-27,-0.08382468847585503
2018-06-28,-0.049397428059229906
2018-06-29,0.09200866656849682
2018-07-02,0.05471264367815698
2018-07-03,0.08602381016173749
2018-07-04,0.04983388704318999
2018-07-05,0.10562762349704649
2018-07-06,-0.004265510948899154
2018-07-09,-0.05760267430754498
2018-07-10,0.042181318043389024
2018-07-11,0.041758684923090164
2018-07-12,-0.04861541932209108
2018-07-13,-0.22177254098361027
2018-07-16,0.0037033032383645874
2018-07-17,0.045397662220092935
2018-07-18,-0.15868012503711015
2018-07-19,-0.03905091448343794
2018-07-20,0.21184929536957126
2018-07-23,-0.10034305317324303
2018-07-24,-0.05258121940365207
2018-07-25,0.2400269036540446
2018-07-26,-0.13042146463214394
2018-07-27,0.15301472070982386
2018-07-30,0.05364201016375153
2018-07-31,0.060138248847928136
2018-08-01,-0.01375980414380773
2018-08-02,0.19228489395202494
2018-08-03,-0.3981369602709883
2018-08-06,0.1953315968743703
2018-08-07,-0.041495192739689046
2018-08-08,-0.17479787640098718
2018-08-09,0.03959069418130344
2018-08-10,0.16719826295297827
2018-08-13,-0.07773210615673114
2018-08-14,0.025862438397256673
2018-08-15,0.032812478122682155
2018-08-16,-0.10332009933408151
2018-08-17,0.10360520094562585
2018-08-20,0.025436820796930742
2018-08-21,0.07902861527323518
2018-08-22,0.12653029460334722
2018-08-23,0.023756958969639766
2018-08-24,-0.12138945826275421
2018-08-27,-0.17328451504143316
2018-08-28,-0.1641055383501569
2018-08-29,-0.05407303204396438
2018-08-30,-0.010120546061658166
2018-08-31,0.05027618908291877
2018-09-03,-0.042705156609560854
2018-09-04,0.050738738738736994
2018-09-05,-0.09818787610920264
2018-09-06,-0.0712792398770935
2018-09-07,0.01750073900524543
2018-09-10,0.1628520198291334
2018-09-11,0.2993564993565011
2018-09-12,0.13672899675366995
2018-09-13,0.11141191698885751
2018-09-14,-0.18610378188214632
2018-09-17,-0.05647773279352391
2018-09-18,-0.4985199485199505
2018-09-19,-0.11240164686422335
2018-09-20,-0.032947194222958144
2018-09-21,0.15368956743002551
2018-09-25,0.01631498177632965
2018-09-26,0.1907202769271741
2018-09-27,0.03898465432295839
2018-09-28,0.017612183213207604
2018-10-08,-0.01294882668928523
2018-10-09,-0.061488435773312825
2018-10-10,-0.02668731907978199
2018-10-11,0.037457558060576115
2018-10-12,-0.020109471680152535
2018-10-15,0.04742287979886009
2018-10-16,0.011890894971850759
2018-10-17,0.07981077571356496
2018-10-18,0.05463224418447938
2018-10-19,-0.05296105047503809
2018-10-22,-0.08856522696530447
2018-10-23,0.014684822596973797
2018-10-24,-0.04362310476889714
2018-10-25,-0.2494358106375315
2018-10-26,0.041112480197148485
2018-10-29,0.20764798323729913
2018-10-30,0.043607911438332654
2018-10-31,0.09569630961192513
2018-11-01,0.37955490490367194
2018-11-02,0.0758974358974353
2018-11-05,-0.3007512787723795
2018-11-06,0.03357282094124337
2018-11-07,-0.15535250742039178
2018-11-08,-0.3759820541448575
2018-11-09,-0.059013605442177
2018-11-12,0.20785089352196645
2018-11-13,-0.14138789596943102
2018-11-14,0.06729617687701671
2018-11-15,0.14851550691219048
2018-11-16,-0.09596474953617734
2018-11-19,-0.14653972375491614
2018-11-20,0.1415291026446554
2018-11-21,0.17597450718837793
2018-11-22,-0.07346106601492088
2018-11-23,0.2334729786342689
2018-11-26,0.26740499979936877
2018-11-27,0.05449695121951371
2018-11-28,-0.17341040462427776
2018-11-29,0.10794292627757134
2018-11-30,-0.1555878580936609
2018-12-03,0.011632851238484065
2018-12-04,-0.13777992139109477
2018-12-05,-0.03773131591519605
2018-12-06,0.030256361631517126
2018-12-07,0.007296677317245646
2018-12-10,-0.4929456363742081
2018-12-11,-0.03041860802067009
2018-12-12,-0.08726868408480416
2018-12-13,0.1545392634501532
2018-12-14,-0.12816113799255516
2018-12-17,0.2240192337349598
2018-12-18,0.013490196078427781
2018-12-19,0.15851955307262847
2018-12-20,-0.5441298441298433
2018-12-21,0.2491772073081794
2018-12-24,0.09541561712846232
2018-12-25,0.1572214452214512
2018-12-26,-0.10899125118583552
2018-12-27,0.47799227799227834
2018-12-28,-0.21907665505226687
2019-01-02,-0.00357615894039523
2019-01-03,-0.1310574409615972
2019-01-04,0.1569049228689096
2019-01-07,-0.23020654044750327
2019-01-08,0.06818717586044434
2019-01-09,-0.10127025744185794
2019-01-10,-0.14141461253235924
2019-01-11,-0.14230278997309176
2019-01-14,0.0040160642570251925
2019-01-15,0.1895689568956902
2019-01-16,-0.04432388929460351
2019-01-17,0.19489766709604006
2019-01-18,0.2694003709045943
2019-01-21,0.05980392156862946
2019-01-22,0.03218936351466059
2019-01-23,0.10917030567685934
2019-01-24,-0.020800211976685346
2019-01-25,-0.2751974723538716
2019-01-28,0.1271008403361327
2019-01-29,-0.3958747611806436
2019-01-30,0.2163265306122406
2019-01-31,-0.030292037003446088
2019-02-01,0.01888509670079789
2019-02-11,0.13298771121352146
2019-02-12,0.2621922048684442
2019-02-13,-0.1916012558869666
2019-02-14,0.059673965849181394
2019-02-15,0.1351851689375927
2019-02-18,-0.3476702508960597
2019-02-19,-0.044434165895780336
2019-02-20,-0.04577790630422318
2019-02-21,-0.04558361440225934
2019-02-22,-0.16557071487468666
2019-02-25,0.06140350877192867
2019-02-26,0.11859247135843078
2019-02-27,-0.07159042019217064
2019-02-28,0.035721205076043254
2019-03-01,0.08398106939133416
2019-03-04,0.03236656187675484
2019-03-05,-0.2880542986425342
2019-03-06,0.2674682265962928
2019-03-07,-0.02410446160445942
2019-03-08,0.017784866570626556
2019-03-11,4.997418000887016e-05
2019-03-12,0.24973262032085625
2019-03-13,-0.27697571245958397
2019-03-14,-0.005934559452525314
2019-03-15,-0.005688372297801163
2019-03-18,0.026088720241360976
2019-03-19,-0.1723044397463013
2019-03-20,0.09898598067238358
2019-03-21,-0.07283528181731881
2019-03-22,-0.09299577199327871
2019-03-25,-0.005107617058571034
2019-03-26,0.02257181942544604
2019-03-27,-0.12964794303797283
2019-03-28,0.1374088374088403
2019-03-29,0.2438616955400968
2019-04-01,-0.01813047011336979
2019-04-02,0.07347554406377833
2019-04-03,0.2808269404332113
2019-04-04,-0.11788203297637562
2019-04-08,-0.10917372230138978
2019-04-09,0.048815433212998
2019-04-10,0.02320795214079989
2019-04-11,-0.198658152771297
2019-04-12,0.22705013949099878
2019-04-15,-0.1766073280894962
2019-04-16,-0.0075636248066943065
2019-04-17,-0.0440138129466611
2019-04-18,0.13423504360743266
2019-04-19,-0.271021388367906
2019-04-22,0.14224127214281168
2019-04-23,-0.1283498367317656
2019-04-24,-0.04864067439409775
2019-04-25,-0.09808408489253646
2019-04-26,0.03178571428571419
2019-04-29,-0.1154326714913133
2019-04-30,0.2782625994694937
2019-05-06,0.15735862311204585
2019-05-07,0.001203717078335824
2019-05-08,0.08606902356902131
2019-05-09,0.12638028895768938
2019-05-10,-0.3164066776135738
2019-05-13,-0.021383290755981665
2019-05-14,-0.05838331840395286
2019-05-15,0.027901564666275074
2019-05-16,-0.06415623849834196
2019-05-17,0.19363937421491528
2019-05-20,-0.07776784252484491
2019-05-21,0.3743934433841771
2019-05-22,0.005970665028409872
2019-05-23,0.02303375636708775
2019-05-24,0.03537319028152072
2019-05-27,0.02164397832492687
2019-05-28,-0.4893877551020388
2019-05-29,-0.16946311118720353
2019-05-30,0.051092117758783855
2019-05-31,-0.22756531893154194
2019-06-03,-0.06601257900751882
2019-06-04,0.2115776986951362
2019-06-05,0.1050774134790495
2019-06-06,0.013286713286713922
2019-06-10,0.2306445350417381
2019-06-11,0.11950548034191405
2019-06-12,-0.01650767068393294
2019-06-13,0.015277777777781328
2019-06-14,-0.15585929222292633
2019-06-17,-0.10460436287531247
2019-06-18,-0.2699078736339555
2019-06-19,0.05648213483867111
2019-06-20,0.1780465949820771
2019-06-21,0.24143383852254846
2019-06-24,0.3393719029538602
2019-06-25,0.23708367081461884
2019-06-26,-0.12762313876875986
2019-06-27,-0.1660959526561814
2019-06-28,-0.20266918128690056
2019-07-01,-0.5086113801587565
2019-07-02,0.0315939415056072
2019-07-03,0.1703931449778965
2019-07-04,-0.10883689142596797
2019-07-05,0.138222795925864
2019-07-08,0.0410837219631342
2019-07-09,-0.08242162844519443
2019-07-10,-0.21278370752054945
2019-07-11,0.04843830258622182
2019-07-12,-0.20295678008063667
2019-07-15,0.33762978875760774
2019-07-16,-0.16819341372912766
2019-07-17,0.1326196140629112
2019-07-18,0.09028183726078293
2019-07-19,0.1542351934594551
2019-07-22,-0.28678508440413064
2019-07-23,0.2478717257318967
2019-07-24,0.004054332390213907
2019-07-25,-0.07769015986008228
2019-07-26,-0.060149020550416654
2019-07-29,0.06361620520196654
2019-07-30,-0.1277324173658452
2019-07-31,-0.014001881675795896
2019-08-01,-0.037994305599492836
2019-08-02,0.22756387941238107
2019-08-05,0.10588996763753766
2019-08-06,0.07594816897142644
2019-08-07,-0.08161071201681368
2019-08-08,0.1756362889983543
2019-08-09,-0.18049523658775715
2019-08-12,-0.022105263157892227
2019-08-13,0.004571161287578451
2019-08-14,0.11491430999480856
2019-08-15,-0.19306835637480607
2019-08-16,-0.18962102738895437
2019-08-19,-0.27001594896331904
2019-08-20,0.018790662074244305
2019-08-21,-0.09864157527417851
2019-08-22,0.08681031261676454
2019-08-23,0.0977773482798628
2019-08-26,0.41544071419590156
2019-08-27,0.0687893504639997
2019-08-28,0.1055883407406667
2019-08-29,0.10980713688246661
2019-08-30,0.14752423545602378
2019-09-02,-0.16142980894963105
2019-09-03,-0.2545940694358019
2019-09-04,-0.11286668686172258
2019-09-05,-0.18115280332015743
2019-09-06,-0.041552575536995574
2019-09-09,0.021804574390867193
2019-09-10,0.14863290874610013
2019-09-11,0.0016600008601016236
2019-09-12,0.12704579110333117
2019-09-16,-0.09798349423855748
2019-09-17,-0.2630613561235189
2019-09-18,-0.024792312607987088
2019-09-19,0.2742959970445605
2019-09-20,-0.14837691800032787
2019-09-23,0.35389742165637816
2019-09-24,0.1965659681594143
2019-09-25,-0.023515566016785224
2019-09-26,-0.2559712534347922
2019-09-27,0.07669457735247186
2019-09-30,-0.39617062745011067
2019-10-08,-0.0006353056686593372
2019-10-09,0.160015497869041
2019-10-10,-0.011066126855600641
2019-10-11,0.060508308895404414
2019-10-14,0.024285040113259423
2019-10-15,0.006792130814826448
2019-10-16,-0.11400069196171085
2019-10-17,-0.02693585484283289
2019-10-18,-0.026881720430106365
2019-10-21,-0.0151686909581637
2019-10-22,-0.061721463452850574
2019-10-23,-0.10173028552475097
2019-10-24,0.11875180145329906
2019-10-25,-0.10447480865850035
2019-10-28,0.16491228070175531
2019-10-29,0.06729433018343427
2019-10-30,0.08176698603086285
2019-10-31,-0.0815365399185041
2019-11-01,0.04576012998883195
2019-11-04,-0.12463768115942359
2019-11-05,0.06799450549450593
2019-11-06,-0.04863042562157338
2019-11-07,0.030798297329905557
2019-11-08,-0.0036070242050279464
2019-11-11,0.12180080172679691
2019-11-12,-0.016923076923077804
2019-11-13,0.08077268643306033
2019-11-14,0.30137243842827677
2019-11-15,0.051530612244895524
2019-11-18,-0.06029621832944492
2019-11-19,-0.1374647887323922
2019-11-20,0.11090306783811132
2019-11-21,-0.4483233233233258
2019-11-22,0.08490324416619245
2019-11-25,0.09828461291358467
2019-11-26,0.16327336959047864
2019-11-27,-0.2209564027007591
2019-11-28,0.13864910060562324
2019-11-29,-0.11256668242285098
2019-12-02,-0.012163009404388206
2019-12-03,-0.17758073275681974
2019-12-04,0.18526206538661255
2019-12-05,-0.03439277421553996
2019-12-06,-0.026529108327194437
2019-12-09,-0.12112370388232511
2019-12-10,0.06289128547274128
2019-12-11,-0.060619405981634594
2019-12-12,0.0981304128671586
2019-12-13,0.10854675402025277
2019-12-16,0.029077753145404575
2019-12-17,0.05460072517342752
2019-12-18,-0.14773306628587798
2019-12-19,-0.04017542125959263
2019-12-20,-0.09201864603413801
2019-12-23,-0.08851831258596388
2019-12-24,-0.013219858747434551
2019-12-25,0.1595433069271832
2019-12-26,-0.025932322466685902
2019-12-27,-0.04104984711654751
2019-12-30,-0.06359734685914764
2019-12-31,0.08902284263959374
2020-01-02,0.000815459596820757
2020-01-03,-0.08116826806340881
2020-01-06,0.07775609756097203
2020-01-07,0.13518276627065381
2020-01-08,-0.10644895101397642
2020-01-09,-0.001528493863214464
2020-01-10,0.06848028060212882
2020-01-13,0.024390243902446172
2020-01-14,0.14196518093154772
2020-01-15,-0.07910750507099762
2020-01-16,-0.1225361068216889
2020-01-17,0.19759024781306744
2020-01-20,-0.06393357550597474
2020-01-21,-0.012992386626942909
2020-01-22,0.19075298103431376
2020-01-23,0.09941022280471822
2020-02-03,-0.19013324983474653
2020-02-04,0.32264437689970044
2020-02-05,-0.19804691286226822
2020-02-06,-0.2158102766798435
2020-02-07,-0.052040816326531035
2020-02-10,-0.01761747024904701
2020-02-11,-0.12862356621480686
2020-02-12,0.08526299381700365
2020-02-13,0.11223556317896095
2020-02-14,0.021207856183225737
2020-02-17,0.05125471907617184
2020-02-18,-0.5579835766423367
2020-02-19,-0.04841159551433336
2020-02-20,0.2142466502597748
2020-02-21,-0.003988468428121093
2020-02-24,0.0009164327853797942
2020-02-25,0.5053571428571417
2020-02-26,0.09973916283691833
2020-02-27,-0.3246709978344151
2020-02-28,0.14214822194972013
2020-03-02,0.2753987233969372
2020-03-03,-0.12635640539401646
2020-03-04,-0.018252651323861575
2020-03-05,0.0956517865098445
2020-03-06,-0.23463771774804118
2020-03-09,-0.4106839103462083
2020-03-10,0.014749262536876265
2020-03-11,-0.04117607481665801
2020-03-12,0.049506694855533495
2020-03-13,0.302962644911976
2020-03-16,0.030247111681643984
2020-03-17,-0.06711409395973512
2020-03-18,0.16950933635114246
2020-03-19,0.37827028044419275
2020-03-20,-0.11813292354974668
2020-03-23,0.16056910569105584
2020-03-24,0.17167683160231884
2020-03-25,-0.19441795960821595
2020-03-26,-0.6394874469901237
2020-03-27,-0.2336813641736979
2020-03-30,-0.06644661030036567
2020-03-31,-0.20601615425373843
2020-04-01,0.16174131617762452
2020-04-02,0.48649627340398677
2020-04-03,0.23806732908597705
2020-04-07,-0.0937521981654516
2020-04-08,0.1927674477915543
2020-04-09,-0.2480457174562073
2020-04-10,-0.44687882496940357
2020-04-13,-0.14316239316239227
2020-04-14,0.12745675377254329
2020-04-15,-0.20534911889970048
2020-04-16,0.16865360005388258
2020-04-17,0.14271146651016142
2020-04-20,-0.042144624381466385
2020-04-21,-0.032700632700632615
2020-04-22,0.15783070815725522
2020-04-23,-0.04970112395855025
2020-04-24,-0.046709834523215005
2020-04-27,0.09812753036437209
2020-04-28,-0.007524007524007916
2020-04-29,-0.19108244214338116
2020-04-30,-0.0328671328671343
2020-05-06,0.1065872227739153
2020-05-07,0.13347578347578196
2020-05-08,-0.03302424204063475
2020-05-11,0.17281873659904076
2020-05-12,-0.10886457940399705
2020-05-13,0.05394760945227827
2020-05-14,-0.22917714094184524
2020-05-15,0.04191037152977718
2020-05-18,0.8044680851063885
2020-05-19,0.259982314128292
2020-05-20,-0.12183514182371785
2020-05-21,0.0815062741988155
2020-05-22,0.09208773526425044
2020-05-25,-1.1864593301435449
2020-05-26,-0.21512584557255343
2020-05-27,0.11513531032247659
2020-05-28,0.025793175097898045
2020-05-29,-0.05480516858469664
2020-06-01,0.37121947774501535
2020-06-02,0.18764447448462213
2020-06-03,0.0007739296276833563
2020-06-04,0.13017909649826226
2020-06-05,-0.17729391820300816
2020-06-08,0.04893411991444996
2020-06-09,-0.0812847033206295
2020-06-10,-0.13236582258321333
2020-06-11,-0.19844058862288547
2020-06-12,0.2434608021665019
2020-06-15,-0.05451995558932042
2020-06-16,-0.08174559970967069
2020-06-17,0.10154176424668201
2020-06-18,0.08582600983632727
2020-06-19,-0.19798074911069147
2020-06-22,-0.08036075260457021
2020-06-23,0.057509400575092
2020-06-24,-0.15502468157718285
2020-06-29,-0.12658227848100873
2020-06-30,0.05194748739349462
2020-07-01,0.0370400992145521
2020-07-02,-0.012054855120549102
2020-07-03,0.23875077447335524
2020-07-06,0.05940535766852967
2020-07-07,0.008432471853779037
2020-07-08,0.154146341463414
2020-07-09,0.10619588744589004
2020-07-10,-0.15298668741355148
2020-07-13,0.20924243936520423
2020-07-14,0.08059680182752654
2020-07-15,-0.2074125874125881
2020-07-16,-0.05290435139573085
2020-07-17,0.02195906569070718
2020-07-20,-0.2469274287943798
2020-07-21,-0.022664003873157663
2020-07-22,0.07941258741258739
2020-07-23,0.013301816833517253
2020-07-24,0.22135268657369017
2020-07-27,0.08597632271265698
2020-07-28,-0.06075546615127257
2020-07-29,0.11691089108910925
2020-07-30,-0.039266513056835387
2020-07-31,-0.22802717927870328
2020-08-03,0.10603113791182506
2020-08-04,-0.025428167391192143
2020-08-05,-0.2045630650021521
2020-08-06,-0.01945970695970618
2020-08-07,-0.1066797161732316
2020-08-10,-0.2810013319217259
2020-08-11,0.2690887608920396
2020-08-12,0.07706481331824887
2020-08-13,0.06410256410256332
2020-08-14,0.055499254843516546
2020-08-17,0.1763518258427003
2020-08-18,-0.3551225644248899
2020-08-19,-0.026661508183487895
2020-08-20,-0.13171406003159417
2020-08-21,0.11075757575757122
2020-08-24,-0.06281250000000449
2020-08-25,0.23864894795127206
2020-08-26,0.10321988327103623
2020-08-27,0.08548118331926531
2020-08-28,-0.050840978593268665
2020-08-31,0.23092592592592937
2020-09-01,-0.1661042369703768
2020-09-02,-0.08763203144190568
2020-09-03,-0.053711973875499995
2020-09-04,0.2132658553786293
2020-09-07,-0.0735179739479179
2020-09-08,0.15657535324589586
2020-09-09,0.22702726414994062
2020-09-10,0.1602065585768083
2020-09-11,-0.2640915434520239
2020-09-14,-0.2673015689992861
2020-09-15,-0.02519965737348437
2020-09-16,-0.26943831927286
2020-09-17,-0.1860707694776514
2020-09-18,0.05293286219081304
2020-09-21,0.27521390171878557
2020-09-22,-0.14384288747346258
2020-09-23,0.005638505638503433
2020-09-24,0.10286898658230607
2020-09-25,-0.055432862190812136
2020-09-28,-0.220124206266135
2020-09-29,0.0260646108663743
2020-09-30,0.04306908045226049
2020-10-09,0.09610594412486483
2020-10-12,0.03674892703862588
2020-10-13,0.07456163081972528
2020-10-14,0.061834932512622884
2020-10-15,0.08245539507221557
2020-10-16,-0.23071236421134553
2020-10-19,0.09856660694195539
2020-10-20,-0.014531464907206727
2020-10-21,0.043052837573382206
2020-10-22,-0.13636363636363516
2020-10-23,0.20947588743948004
2020-10-26,-0.108851570016618
2020-10-27,0.08248403602993865
2020-10-28,-0.061193708252528865
2020-10-29,0.07727272727272684
2020-10-30,-0.10735752700320719
2020-11-02,0.00812905929185002
2020-11-03,-0.01835621338818367
2020-11-04,-0.024161188423120795
2020-11-05,0.03431372549019511
2020-11-06,-0.09050393495369549
2020-11-09,0.2501291989664104
2020-11-10,0.20642515379357418
2020-11-11,0.012913154021143826
2020-11-12,-0.04885918003564794
2020-11-13,0.163305993249507
2020-11-16,-0.29190863337205025
2020-11-17,-0.314412179580719
2020-11-18,0.00416153801066569
2020-11-19,0.01454545454545086
2020-11-20,-0.1223317296464101
2020-11-23,0.3174341588975744
2020-11-24,0.02865100934301333
2020-11-25,0.06313219949583643
2020-11-26,0.08148148148148586
2020-11-27,0.20370209814461357
2020-11-30,-0.42192192192192224
2020-12-01,0.07589104036757427
2020-12-02,0.15177356184550636
2020-12-03,-0.09654172244534162
2020-12-04,-0.07924887939340233
2020-12-07,0.40183988022604633
2020-12-08,0.003175416133163649
2020-12-09,-0.11182328483345914
2020-12-10,0.11998243090689956
2020-12-11,0.25268491941377214
2020-12-14,-0.27976623638857234
2020-12-15,0.1081221852210464
2020-12-16,-0.17643841350018394
2020-12-17,-0.1898278503204018
2020-12-18,-0.4581768958316939
2020-12-21,0.19266277933268458
2020-12-22,0.15772288520149086
2020-12-23,0.2604545080473569
2020-12-24,0.1320754716981159
2020-12-25,0.09252809510541396
2020-12-28,-0.072866287000735
2020-12-29,-0.49461255855489095
2020-12-30,-0.2315932213957017
2020-12-31,0.014951400800455372
2021-01-04,0.0389630000899623
2021-01-05,-0.2844589677755961
2021-01-06,0.27925862684655733
2021-01-07,0.11541577270339679
2021-01-08,-0.13472847284728326
2021-01-11,0.19789218249475632
2021-01-12,0.22427051328785413
2021-01-13,-0.15697504963127135
2021-01-14,-0.23909411968935243
2021-01-15,0.0786801352199976
2021-01-18,-0.45064694215112355
2021-01-19,0.15139660208153194
2021-01-20,0.10185566865022697
2021-01-21,0.3527685805809017
2021-01-22,0.014047849852151354
2021-01-25,0.40168823592441993
2021-01-26,-0.27869577625570696
2021-01-27,0.06943919873543536
2021-01-28,-0.14565289058051237
2021-01-29,-0.03627871357408391
2021-02-01,-0.22916036798687167
2021-02-02,0.17210554996646632
2021-02-03,-0.15920139085310353
2021-02-04,-0.147179664547122
2021-02-05,0.0018381801587956503
2021-02-08,0.16086230360015263
2021-02-09,-0.045511162211365336
2021-02-10,0.04426989130621853
2021-02-18,0.15226261487943468
2021-02-19,0.06911432961715704
2021-02-22,0.17246313009024536
2021-02-23,0.01588488798661087
2021-02-24,0.09746948313501341
2021-02-25,0.10203744327914385
2021-02-26,-0.0847945205479457
2021-03-01,-0.424353996518944
2021-03-02,-0.033517933984791005
2021-03-03,0.02798261129518176
2021-03-04,-0.28285586560885956
2021-03-05,0.25862823061630047
2021-03-08,0.2504372983304033
2021-03-09,0.18230225207211562
2021-03-10,-0.13604818274648914
2021-03-11,0.33000828417449585
2021-03-12,-0.3108993777773656
2021-03-15,-0.09033294106109623
2021-03-16,-0.20640077580402683
2021-03-17,0.04261067663115203
2021-03-18,-0.33675354028907434
2021-03-19,0.01624860287765055
2021-03-22,0.1308864507140348
2021-03-23,-0.09279700805616296
2021-03-24,-0.022764266564536312
2021-03-25,0.22841937594922412
2021-03-26,0.09188461324893243
2021-03-29,-0.14050999710228412
2021-03-30,0.12772585669782235
2021-03-31,0.054611801242234526
2021-04-01,-0.016842856921092934
2021-04-02,-0.009706980112532022
2021-04-06,-0.16034521916875746
2021-04-07,0.15779092702169592
2021-04-08,-0.0200783011174791
2021-04-09,-0.09733601312706563
2021-04-12,0.1168851476049013
2021-04-13,0.33790226259502654
2021-04-14,-0.31049672650765625
2021-04-15,-0.029342470224425207
2021-04-16,0.07542557960097253
2021-04-19,-0.3052256669214628
2021-04-20,-0.29394359804812265
2021-04-21,0.24211756419184438
2021-04-22,0.056151919806558134
2021-04-23,-0.1298510266507419
2021-04-26,0.4798777381558809
2021-04-27,0.10365418894830537
2021-04-28,-0.06137438152831961
2021-04-29,0.06362458276064285
2021-04-30,0.22855631904215717
2021-05-06,-0.3886937804463547
2021-05-07,0.11365350335938734
2021-05-10,0.30379444865426497
2021-05-11,0.03485087629394429
2021-05-12,-0.007754274982705381
2021-05-13,0.2931226848752605
2021-05-14,0.08342760180995552
2021-05-17,-0.3407775187327888
2021-05-18,-0.2116916241985201
2021-05-19,-0.03384268301598946
2021-05-20,-0.272883978766331
2021-05-21,-0.21955841868750234
2021-05-24,0.05107429000517003
2021-05-25,0.06518375241779487
2021-05-26,-0.1638117479206285
2021-05-27,0.02711644426640359
2021-05-28,0.063964824974712
2021-05-31,-0.14220997006922448
2021-06-01,0.2024444358944779
2021-06-02,0.0127954558500748
2021-06-03,0.012421832582798449
2021-06-04,0.015700668235677208
2021-06-07,0.09513087191550818
2021-06-08,-0.3829991093357838
2021-06-09,0.03757686710791671
2021-06-10,-0.062639629100049
2021-06-11,-0.060668556357798026
2021-06-15,0.10373098285437832
2021-06-16,0.2972484966952176
2021-06-17,0.05601510296346328
2021-06-18,0.06619974205592796
2021-06-21,0.11775825564932996
2021-06-22,-0.3167411987496811
2021-06-23,-0.189343047862821
2021-06-24,-0.07227132428076878
2021-06-25,0.03689514607080846
2021-06-28,-0.19326899515578477
2021-06-29,0.27497149676915156
2021-06-30,0.0759203202812194
2021-07-01,-0.008844235054624755
2021-07-02,-0.09099363974558902
2021-07-05,0.1807991120976657
2021-07-06,-0.10796619983708367
2021-07-07,0.12597589371319443
2021-07-08,0.06047593209828746
2021-07-09,0.1750562836884701
2021-07-12,-0.0920971916582076
2021-07-13,0.015744146407102637
2021-07-14,-0.1814652427374749
2021-07-15,0.012676221804506553
2021-07-16,-0.10329341317364929
2021-07-19,0.045851596646012405
2021-07-20,0.1615430788689588
2021-07-21,0.03190964687314913
2021-07-22,0.06812718531468889
2021-07-23,-0.1520618556701051
2021-07-26,0.030297087949798625
2021-07-27,-0.11317391652648282
2021-07-28,0.02945477945478324
2021-07-29,0.02772879294618298
2021-07-30,0.24581185567010422
2021-08-02,0.18072441742654352
2021-08-03,0.019037227214379213
2021-08-04,0.17446132947078086
2021-08-05,-0.17200955257427922
2021-08-06,-0.07400751072961459
2021-08-09,-0.3961640211640204
2021-08-10,-0.12003986148135168
2021-08-11,-0.3526631202145669
2021-08-12,0.0069112797928623584
2021-08-13,-0.12667890545535807
2021-08-16,0.177544048903275
2021-08-17,0.018377857462280656
2021-08-18,0.2797530172950112
2021-08-19,0.1358439733751643
2021-08-20,0.3106093553299145
2021-08-23,-0.020949724336557136
2021-08-24,0.13898615242821635
2021-08-25,-0.2322727036420531
2021-08-26,-0.062050048419833706
2021-08-27,-0.22096017318749603
2021-08-30,0.09510967984364993
2021-08-31,-0.09341864142954644
2021-09-01,0.20721542987344044
2021-09-02,-0.09385451505016805
2021-09-03,0.11443749310991343
2021-09-06,-0.1548807939507943
2021-09-07,0.022617319787130993
2021-09-08,-0.06446276616862971
2021-09-09,0.15237016168544856
2021-09-10,-0.266961579822079
2021-09-13,0.17143226092089908
2021-09-14,0.048096095495312505
2021-09-15,-0.02012454253342734
2021-09-16,-0.15698433681849153
2021-09-17,0.18616009459668187
2021-09-22,-0.10037244089690725
2021-09-23,0.031564334165119376
2021-09-24,0.0262068214013294
2021-09-27,0.21146379955065198
2021-09-28,-0.06318973244762799
2021-09-29,-0.034242818843349856
2021-09-30,-0.22276978649293802
2021-10-08,0.0071360409391679515
2021-10-11,-0.3041331469060492
2021-10-12,0.2261172743951375
2021-10-13,0.2905423391113701
2021-10-14,0.23377688297489196
2021-10-15,-0.02809998927153618
2021-10-18,0.22621708892200815
2021-10-19,-0.2261971369038402
2021-10-20,-0.3795386761077103
2021-10-21,0.2506381378905508
2021-10-22,0.06973455325878129
2021-10-25,-0.021992311171418755
2021-10-26,0.03169646214000946
2021-10-27,0.2264814003463316
2021-10-28,-0.34299538095296783
2021-10-29,-0.05659381421640403
2021-11-01,-0.027418463239356955
2021-11-02,0.17037141779788773
2021-11-03,-0.16267229623169072
2021-11-04,-0.12467328299245602
2021-11-05,-0.038825101628150095
2021-11-08,-0.004171161452715861
2021-11-09,-0.32450189753320674
2021-11-10,0.11310401512857501
2021-11-11,0.13600159715553978
2021-11-12,0.03562628070448658
2021-11-15,-0.09230878957268897
2021-11-16,0.18145161290322656
2021-11-17,-0.17810118748307696
2021-11-18,-0.1266114254099087
2021-11-19,0.08317506906077168
2021-11-22,0.16820923426547957
2021-11-23,0.011236559139783362
2021-11-24,0.22150377858814424
2021-11-25,0.05644032311789976
2021-11-26,-0.25171858395324054
2021-11-29,-0.1963341428767818
2021-11-30,-0.15753246753246625
2021-12-01,-0.1357003257328975
2021-12-02,0.0723040668205185
2021-12-03,0.19656080199048354
2021-12-06,0.15356878392107653
2021-12-07,0.2062586497616117
2021-12-08,0.005711354578285574
2021-12-09,0.06167380864903925
2021-12-10,-0.04611714135012416
2021-12-13,-0.030140802096763872
2021-12-14,-0.12933505735814743
2021-12-15,-0.005021699405874269
2021-12-16,-0.12207726061876054
2021-12-17,-0.0064017071218995265
2021-12-20,0.07154724818276847
2021-12-21,0.08304873767196289
2021-12-22,0.0459770114942555
2021-12-23,-0.022112859189802818
2021-12-24,0.014518913828282753
2021-12-27,0.024040404040396854
2021-12-28,-0.0736279813548414
2021-12-29,-0.043327556325825904
2021-12-30,0.14992535139465
2021-12-31,-0.016309195158207706
2022-01-04,-0.3272915036770411
2022-01-05,0.09007700770077107
2022-01-06,0.06678171410834134
2022-01-07,-0.1820652173913047
2022-01-10,0.03283173734610247
2022-01-11,0.23929820665149046
2022-01-12,-0.1194949494949524
2022-01-13,-0.011138886846554131
2022-01-14,0.13822992700730086
2022-01-17,0.1954035567715418
2022-01-18,-0.06265300979262942
2022-01-19,0.20252940078402554
2022-01-20,-0.07435906655640104
2022-01-21,-0.0671371903017245
2022-01-24,-0.2811646348680277
2022-01-25,0.09457975898692655
2022-01-26,-0.14817334017796374
2022-01-27,0.1643892113986913
2022-01-28,0.1781416282202821
2022-02-07,0.0038236173799553463
2022-02-08,-0.0002142933676141795
2022-02-09,0.06298635307781533
2022-02-10,-0.07721978763754972
2022-02-11,-0.1646755413964473
2022-02-14,0.13430180180180112
2022-02-15,-0.014140166364993725
2022-02-16,-0.08420971685254845
2022-02-17,-0.01238677463752166
2022-02-18,0.021180170181282612
2022-02-21,-0.11033228676086038
2022-02-22,-0.024796514188311497
2022-02-23,0.027746587818450002
2022-02-24,0.015594479830153454
2022-02-25,-0.02912500127417068
2022-02-28,0.19033228676086317
2022-03-01,-0.02119920021199108
2022-03-02,0.01046751669702443
2022-03-03,-0.04919771485345491
2022-03-04,0.1310534352651531
2022-03-07,-0.08787356321839324
2022-03-08,0.22009592234493547
2022-03-09,0.03198455784775274
2022-03-10,0.01451517517091369
2022-03-11,-0.18763281641307106
2022-03-14,-0.06542101042502138
2022-03-15,-0.41137973514012394
2022-03-16,0.06727470141150482
2022-03-17,-0.06275648470770502
2022-03-18,0.052108765712852806
2022-03-21,-0.12521419828641434
2022-03-22,0.12574298011887342
2022-03-23,-0.2599999999999972
2022-03-24,0.06683296378418448
2022-03-25,0.11630574980188232
2022-03-28,0.08222025652366455
2022-03-29,0.06236159504452313
2022-03-30,0.20286576168928955
2022-03-31,0.10500993217828157
2022-04-01,-0.08021627847848949
2022-04-06,0.12359695357120051
2022-04-07,0.09698238154272085
2022-04-08,0.018735596352866424
2022-04-11,0.01327586698986774
2022-04-12,0.038393554798625835
2022-04-13,-0.09566049809013372
2022-04-14,-0.11095063551097488
2022-04-15,-0.1443534693188577
2022-04-18,-0.27804253179722305
2022-04-19,-0.13816286145680678
2022-04-20,0.04396401096901536
2022-04-21,0.07633201900717856
2022-04-22,0.16055698932547957
2022-04-25,0.39163097792836576
2022-04-26,0.0864438657407365
2022-04-27,-0.06244995727445214
2022-04-28,-0.09352562837044687
2022-04-29,-0.08486033831178458
2022-05-05,-0.4661232571569994
2022-05-06,0.24388340504514006
2022-05-09,0.12819716982216686
2022-05-10,0.10175054400538297
2022-05-11,0.029903356703133505
2022-05-12,0.3209166435890296
2022-05-13,-0.3609090209694342
2022-05-16,-0.12168129244317608
2022-05-17,-0.14371999380517544
2022-05-18,-0.029642768234999013
2022-05-19,-0.13312784792837895
2022-05-20,0.06480946534748847
2022-05-23,0.16310961065648832
2022-05-24,0.26566637246249203
2022-05-25,-0.01629052765416389
2022-05-26,-0.0023743819135215935
2022-05-27,0.057884745563180656
2022-05-30,-0.2884181124355746
2022-05-31,-0.3213090056913318
2022-06-01,-0.010651974288338445
2022-06-02,0.08794943064646193
2022-06-06,-0.02940425958498456
2022-06-07,0.16658863587996922
2022-06-08,0.18843654089185685
2022-06-09,0.040404040404040574
2022-06-10,-0.04940491933350962
2022-06-13,0.17548856253471587
2022-06-14,0.1332327891084907
2022-06-15,-0.08894364028333736
2022-06-16,0.06995884773662568
2022-06-17,0.13563973714727753
2022-06-20,0.14346526543274793
2022-06-21,-0.10789474464633762
2022-06-22,0.1727064919231952
2022-06-23,-0.05269762794375933
2022-06-24,-0.21131221719457233
2022-06-27,-0.46958173289371363
2022-06-28,-0.11610861303469598
2022-06-29,-0.2906476683937815
2022-06-30,-0.11306960302640207
2022-07-01,0.1434229320867417
2022-07-04,0.22755588317742748
2022-07-05,0.20838637761845769
2022-07-06,0.20435599284436176
2022-07-07,0.08892370165006032
2022-07-08,-0.030924206426632163
2022-07-11,0.12188758858469669
2022-07-12,-0.09992117762375272
2022-07-13,-0.047890843484476434
2022-07-14,0.09153317512723458
2022-07-15,0.07362016634113565
2022-07-18,-0.23208570321896657
2022-07-19,-0.057738658176880606
2022-07-20,0.09432573535861244
2022-07-21,-0.15131516021042557
2022-07-22,-0.23412698412698343
2022-07-25,-0.1389416778907367
2022-07-26,-0.049285847473428596
2022-07-27,-0.20393434463411025
2022-07-28,0.35614035087719287
2022-07-29,0.1232563732563713
2022-08-01,0.28415410655275275
2022-08-02,0.0884473625908844
2022-08-03,0.14596954687213087
2022-08-04,-0.44852613767922483
2022-08-05,0.08944576550210502
2022-08-08,-0.04717166748647232
2022-08-09,-0.018046508104832812
2022-08-10,-0.11990711826406905
2022-08-11,0.14688206807316062
2022-08-12,-0.19966203793603476
2022-08-15,-0.04582722318282511
2022-08-16,0.03055612929876992
2022-08-17,0.34032459102652013
2022-08-18,0.008418040179777849
2022-08-19,0.23808087487480567
2022-08-22,-0.03831334261661959
2022-08-23,-0.010686719084091363
2022-08-24,-0.4400730446212803
2022-08-25,-0.07097292950951563
2022-08-26,-0.15763293387191435
2022-08-29,0.27072714774327683
2022-08-30,-0.02800498092219697
2022-08-31,0.17304034085220626
2022-09-01,0.19758504800837892
2022-09-02,0.0665796472894643
2022-09-05,-0.4024256618626299
2022-09-06,-0.003573547776833986
2022-09-07,0.07731050491055824
2022-09-08,-0.2401011525934487
2022-09-09,-0.1384076362047455
2022-09-13,0.08406337898421881
2022-09-14,0.12278470814050624
2022-09-15,0.03401595257237937
2022-09-16,0.15549274543056488
2022-09-19,0.12510964912280792
2022-09-20,0.14687499999999754
2022-09-21,-0.1494976099892713
2022-09-22,-0.08201099764336058
2022-09-23,-0.13720969945355266
2022-09-26,0.03282628536659566
2022-09-27,-0.002553670360110144
2022-09-28,0.012286049856816285
2022-09-29,-0.18227146814404402
2022-09-30,0.1992927814938661
2022-10-10,-0.17101217562415613
2022-10-11,0.13337901879216818
2022-10-12,0.0868190165272392
2022-10-13,0.29072532232624204
2022-10-14,-0.049701536768126074
2022-10-17,0.2794668033837503
2022-10-18,-0.32205181286720397
2022-10-19,-0.06393860042533946
2022-10-20,-0.17633677845047432
2022-10-21,-0.07444243520193138
2022-10-24,-0.2547882587259616
2022-10-25,0.08694965174632589
2022-10-26,0.03879067143125714
2022-10-27,0.04477799212660098
2022-10-28,0.09387321807704066
2022-10-31,0.1922667440960116
2022-11-01,0.2377296815412797
2022-11-02,-0.040064102564101756
2022-11-03,0.0031223515767876166
2022-11-04,-0.07245032911238523
2022-11-07,-0.11081681476418229
2022-11-08,-0.3368070864563697
2022-11-09,0.009239130434782014
2022-11-10,0.021186470054006395
2022-11-11,0.08644460585936202
2022-11-14,-0.04798761609907203
2022-11-15,0.12199645898321987
2022-11-16,0.023498964803311626
2022-11-17,0.020622735897876984
2022-11-18,-0.32337421033073394
2022-11-21,0.17438763043521882
2022-11-22,0.11583869082408274
2022-11-23,-0.0307135393342277
2022-11-24,-0.022768276639725693
2022-11-25,0.3532402899491541
2022-11-28,-0.19009618658495153
2022-11-29,-0.10930624276239845
2022-11-30,-0.01952988071749723
2022-12-01,-0.08599662466963619
2022-12-02,-0.08514707221564492
2022-12-05,0.2669842229622035
2022-12-06,0.020354222213047307
2022-12-07,0.1326425562072639
2022-12-08,0.08316240216370949
2022-12-09,0.0033815372856447062
2022-12-12,-0.3113865798645588
2022-12-13,0.08662344396906152
2022-12-14,-0.1421912220039619
2022-12-15,0.09975843370882806
2022-12-16,0.17907143082115082
2022-12-19,0.28636252146185864
2022-12-20,-0.10956170676814034
2022-12-21,0.13056448929799241
2022-12-22,-0.1410543302851012
2022-12-23,-0.41085329868978815
2022-12-26,-0.2743799506557603
2022-12-27,0.06786768447837244
2022-12-28,-0.17779284658826364
2022-12-29,0.006136363636366403
2022-12-30,0.21716721181484644
2023-01-03,0.10327924273157692
2023-01-04,-0.09855782312925218
2023-01-05,0.08890450110971013
2023-01-06,0.11903409090908827
2023-01-09,-0.05192781380385089
2023-01-10,-0.08355503257273587
2023-01-11,0.08096133190118057
2023-01-12,0.012662793027448835
2023-01-13,-0.1675480769230752
2023-01-16,0.023967287488062556
2023-01-17,0.1821333749804842
2023-01-18,-0.01650059615056739
2023-01-19,-0.08387096774193414
2023-01-20,-0.0034965034964968417
2023-01-30,0.09026457541191199
2023-01-31,-0.0032246108228476955
2023-02-01,0.11077026870328018
2023-02-02,0.24116204489718623
2023-02-03,0.1331833995150466
2023-02-06,-0.09178108296958896
2023-02-07,-0.11963325848811288
2023-02-08,-0.1165190774720433
2023-02-09,-0.2519038991264862
2023-02-10,-0.027901940642433266
2023-02-13,-0.0015439147244409122
2023-02-14,0.06870198780390954
2023-02-15,-0.09563067326020203
2023-02-16,0.17933767965623681
2023-02-17,-0.11381066551503749
2023-02-20,-0.01906728974944429
2023-02-21,-0.14320449190355397
2023-02-22,0.08779840848806363
2023-02-23,-0.1852531256404848
2023-02-24,0.12356417167739064
2023-02-27,0.03997932293614948
2023-02-28,0.09100962569261249
2023-03-01,0.006571242680549564
2023-03-02,0.014531200506800873
2023-03-03,0.0024216524216381513
2023-03-06,0.08780315100016846
2023-03-07,0.04387935183696989
2023-03-08,-0.02459520942059175
2023-03-09,0.287574651625746
2023-03-10,-0.09141770168959973
2023-03-13,-0.16552563517418936
2023-03-14,0.0710443747198664
2023-03-15,0.12585307105581273
2023-03-16,-0.17651057243845558
2023-03-17,0.19326955354145636
2023-03-20,0.11662900335073209
2023-03-21,-0.1184245307956634
2023-03-22,-0.11901537720803201
2023-03-23,-0.03885358796701573
2023-03-24,-0.146278051450468
2023-03-27,-0.1431156569630218
2023-03-28,-0.015567765567769704
2023-03-29,-0.07302477344703731
2023-03-30,-0.1603865556621666
2023-03-31,-0.12188840397833774
2023-04-03,0.5552894773911965
2023-04-04,0.10408304270580312
2023-04-06,0.1510197311061029
2023-04-07,0.2003829788595224
2023-04-10,0.36389952922939367
2023-04-11,-0.6249152854944108
2023-04-12,-0.08487894467579996
2023-04-13,0.0011277658560519127
2023-04-14,-0.010384232149404513
2023-04-17,-0.44043310070400354
2023-04-18,0.08103414799306838
2023-04-19,-0.00799530682120899
2023-04-20,-0.13662942372393588
2023-04-21,0.04861829466528772
2023-04-24,0.46016653871139274
2023-04-25,0.14925474254742532
2023-04-26,0.0822193211488268
2023-04-27,0.15099809845403522
2023-04-28,-0.14265478164731774
2023-05-04,-0.4014875702729245
2023-05-05,0.03552631578947135
2023-05-08,0.17384450863840525
2023-05-09,-0.13486702227867736
2023-05-10,0.0972222222222237
2023-05-11,0.27128566844739116
2023-05-12,-0.15363207214824046
2023-05-15,-0.2791423860505012
2023-05-16,0.10774977383928216
2023-05-17,-0.0018578127483707858
2023-05-18,-0.23107173786504204
2023-05-19,0.08708071723513695
2023-05-22,0.025805828990541506
2023-05-23,-0.07988977829931534
2023-05-24,0.06356192000332228
2023-05-25,0.1180540964547352
2023-05-26,0.03982337490434625
2023-05-29,-0.0774500653350741
2023-05-30,0.07403755466003312
2023-05-31,-0.21961740134374352
2023-06-01,0.06011096187739669
2023-06-02,-0.08693900614228685
2023-06-05,0.15050592513792135
2023-06-06,-0.08737792246226489
2023-06-07,0.22446001635585422
2023-06-08,-0.18654615414994993
2023-06-09,-0.07597378243709232
2023-06-12,-0.007215639417171099
2023-06-13,0.16775049199965641
2023-06-14,-0.21760210229163934
2023-06-15,0.12071938901206943
2023-06-16,0.014753865796568358
2023-06-19,-0.131861953754349
2023-06-20,-0.21582641773350192
2023-06-21,0.17897319997976424
2023-06-26,-0.07636600014648964
2023-06-27,0.24638078902229577
2023-06-28,0.04671060970972715
2023-06-29,0.04108842967416532
2023-06-30,-0.025794576021599847
2023-07-03,0.20852983856340013
2023-07-04,-0.33905068382944115
2023-07-05,0.01466895731465201
2023-07-06,0.05171158917086929
2023-07-07,0.13050202839756636
2023-07-10,-0.18202833706189395
2023-07-11,0.17810837032898924
2023-07-12,0.03191489361702152
2023-07-13,-0.016073838442259788
2023-07-14,-0.3460076983813659
2023-07-17,0.17667584940311828
2023-07-18,0.06302592332128903
2023-07-19,-0.003401360544221182
2023-07-20,0.04704059637147541
2023-07-21,0.24772012753907643
2023-07-24,-0.2795668281561684
2023-07-25,0.1365661227994877
2023-07-26,0.006440874222033324
2023-07-27,0.07572654876409426
2023-07-28,-0.013097367748533748
2023-07-31,0.17358214235759833
2023-08-01,-0.40904731457800775
2023-08-02,0.03849403264807186
2023-08-03,-0.1398401189812276
2023-08-04,-0.10721285084341778
2023-08-07,-0.07031451577027494
2023-08-08,0.3058714697720006
2023-08-09,-0.047943802736144264
2023-08-10,0.0013259449831815456
2023-08-11,0.0036533668491538357
2023-08-14,0.11853588171655152
2023-08-15,-0.14268660908644437
2023-08-16,-0.08263083948015056
2023-08-17,0.04676206645646146
2023-08-18,0.038268826696170516
2023-08-21,-0.11992263056092717
2023-08-22,0.11170045575986458
2023-08-23,0.18129201839963544
2023-08-24,0.052910993700469505
2023-08-25,0.018587360594799058
2023-08-28,0.19783549783549487
2023-08-29,-0.18283484192575505
2023-08-30,-0.1570657373240394
2023-08-31,-0.10709347961823344
2023-09-01,0.12082207607536723
2023-09-04,-0.2947955282954511
2023-09-05,0.17111278489227918
2023-09-06,0.07657323137934412
2023-09-07,0.0358394750653249
2023-09-08,-0.1242234366195868
2023-09-11,0.2038480230134747
2023-09-12,-0.12798345003537803
2023-09-13,0.08789794082378577
2023-09-14,-0.09606018463628525
2023-09-15,-0.1359714617554329
2023-09-18,-0.15050227300990493
2023-09-19,0.2020864594498057
2023-09-20,-0.2402813573883139
2023-09-21,0.4485795454545556
2023-09-22,0.16977822770505802
2023-09-25,0.15792128492732532
2023-09-26,-0.11630538513974255
2023-09-27,0.14963400900900792
2023-09-28,-0.5389069264069329
2023-10-09,-0.04885558990724874
2023-10-10,-0.11772463946752101
2023-10-11,-0.09261863769732163
2023-10-12,0.03779950162928654
2023-10-13,0.1771922183507523
2023-10-16,0.13828489524564336
2023-10-17,-0.04706877895846883
2023-10-18,0.04665644914091485
2023-10-19,-0.03844030980147441
2023-10-20,0.11169584724893007
2023-10-23,-0.23725895316804302
2023-10-24,0.21182078773577767
2023-10-25,0.04756671899529409
2023-10-26,-0.07603737376915287
2023-10-27,-0.10753245884084697
2023-10-30,0.08477118119975499
2023-10-31,-0.18760978613209056
2023-11-01,-0.10944055944055925
2023-11-02,0.09254479482287646
2023-11-03,-0.012175070466650601
2023-11-06,0.07742918062746956
2023-11-07,0.04315852923448352
2023-11-08,0.282442067736186
2023-11-09,-0.012580539923328287
2023-11-10,-0.05669981525883417
2023-11-13,0.05654546650010417
2023-11-14,0.056571428571421015
2023-11-15,-0.19996948195620665
2023-11-16,0.1009861680327794
2023-11-17,0.1827260458839447
2023-11-20,-0.09813687252729052
2023-11-21,0.022793650793657392
2023-11-22,-0.06257420621392647
2023-11-23,-0.02590260922329604
2023-11-24,-0.06306390977443876
2023-11-27,-0.05762597412078084
2023-11-28,-0.05382395382395794
2023-11-29,0.0026354695635396747
2023-11-30,-0.17828773168578835
2023-12-01,-0.17811509420522056
2023-12-04,0.13716905550853753
2023-12-05,-0.10823625412334911
2023-12-06,0.24895025827970116
2023-12-07,0.21428447117784938
2023-12-08,0.24298448856490484
2023-12-11,-0.08859289740284819
2023-12-12,0.16141404977901946
2023-12-13,-0.08961485306812843
2023-12-14,-0.25158050847389285
2023-12-15,-0.1212069293736875
2023-12-18,-0.07197920873795036
2023-12-19,-0.07612151859938943
2023-12-20,-0.29883895131086136
2023-12-21,0.16167793155241267
2023-12-22,-0.05522743510359904
2023-12-25,0.07347749915017755
2023-12-26,0.004044201412625452
2023-12-27,0.16297458893871486
2023-12-28,-0.028799906151017088
2023-12-29,0.003107052066663299
2024-01-02,0.1743668122270601
2024-01-03,0.07321187584344628
2024-01-04,0.02816362244339598
2024-01-05,0.08997730856505232
2024-01-08,0.1299178178003071
2024-01-09,-0.31893617021275633
2024-01-10,0.002884615384617796
2024-01-11,0.08334136701050748
2024-01-12,-0.27546201387939867
2024-01-15,-0.010600826390291647
2024-01-16,0.187562779654824
2024-01-17,-0.04590220385674483
2024-01-18,-0.0998347696494523
2024-01-19,0.17237298955267827
2024-01-22,-0.13891125167720492
2024-01-23,-0.010589226264488546
2024-01-24,-0.11735537190083112
2024-01-25,-0.04784208765472678
2024-01-26,0.008438818565413364
2024-01-29,0.10593628776300046
2024-01-30,0.05891913856155648
2024-01-31,0.14409090909090871
2024-02-01,0.0716996943704945
2024-02-02,0.20873786407765843
2024-02-05,-0.04468703543454364
2024-02-06,-0.14067553000358543
2024-02-07,-0.08303493449781754
2024-02-08,-0.008930550015508347
2024-02-19,-0.13431925942650352
2024-02-20,0.17962760131434735
2024-02-21,0.26800472255017405
2024-02-22,0.08518663728419706
2024-02-23,0.013761467889906601
2024-02-26,-0.18486636584519367
2024-02-27,-0.10789099044132422
2024-02-28,-0.4522278364722102
2024-02-29,-0.08356520489608137
2024-03-01,0.08849557522123606
2024-03-04,0.12670792379565593
2024-03-05,-0.12362416107382816
2024-03-06,0.25533342653431756
2024-03-07,0.09769555339175531
2024-03-08,-0.15760126627814586
2024-03-11,0.07544289416693223
2024-03-12,0.020000000000001524
2024-03-13,0.16558741905643656
2024-03-14,0.06022874008485394
2024-03-15,0.10470439655852971
2024-03-18,0.011421943231441162
2024-03-19,0.1166572237960337
2024-03-20,-0.2607267126804005
2024-03-21,-0.13767358206457941
2024-03-22,-0.04455392938221828
2024-03-25,-0.26577560240963716
2024-03-26,0.0008967330384955091
2024-03-27,0.13557111852784387
2024-03-28,0.12262581320570912
2024-03-29,0.0633970728393692
2024-04-01,0.3129257505546299
2024-04-02,-0.12397979065325385
2024-04-03,-0.058826629107942736
2024-04-08,-0.09929081497968462
2024-04-09,-0.0754392242868533
2024-04-10,-0.3004091964023661
2024-04-11,0.0033343511688827127
2024-04-12,-0.09663959778685637
2024-04-15,-0.18747071499103632
2024-04-16,-0.04812704863505355
2024-04-17,0.22934196904945886
2024-04-18,0.10437588631956571
2024-04-19,0.08442723861225818
2024-04-22,0.16797707889125735
2024-04-23,0.08282305410012342
2024-04-24,-0.10173044331461063
2024-04-25,-0.06432587832410198
2024-04-26,0.03208378355914056
2024-04-29,0.02232142857142421
2024-04-30,0.10204211060375125
2024-05-06,0.03497065530260968
2024-05-07,0.006648032031426311
2024-05-08,0.10196540880503299
2024-05-09,-0.022304832713749875
2024-05-10,-0.191786368117163
2024-05-13,-0.07417652784181121
2024-05-14,0.10411274086856673
2024-05-15,-0.2821236559139799
2024-05-16,0.24345867886760134
2024-05-17,0.013053501392171513
2024-05-20,0.09534184043987548
2024-05-21,-0.21373555840822028
2024-05-22,0.31012753188296954
2024-05-23,-0.3992914979757106
2024-05-24,0.05313990923548599
2024-05-27,-0.11819055980600987
2024-05-28,0.25101626016260425
2024-05-29,-0.27927199191102453
2024-05-30,0.5003598740440872
2024-05-31,0.05607070414372337
2024-06-03,0.10064137145597761
2024-06-04,-0.20405138339920761
2024-06-05,0.1304347826086996
2024-06-06,-0.4681449690033417
2024-06-07,0.009057894514593476
2024-06-11,-0.011302352266215974
2024-06-12,0.06009403742764353
2024-06-13,0.033816425120778815
2024-06-14,0.07582928883719346
2024-06-17,-0.07537688442211728
2024-06-18,-0.030402930402925417
2024-06-19,0.10843103018209194
2024-06-20,-0.00966183574879851
2024-06-21,0.05594251454769995
2024-06-24,-0.04210045442522828
2024-06-25,-0.050889586603870884
2024-06-26,-0.06737423669671479
2024-06-27,-0.09442485964225059
2024-06-28,-0.055616498464246676
2024-07-01,0.08095095693779711
2024-07-02,0.07653061224489617
2024-07-03,0.033115276412567576
2024-07-04,0.08189817724701226
2024-07-05,0.201951349906447
2024-07-08,0.12845812182740754
2024-07-09,0.008849557522122404
2024-07-10,-0.12977612743515307
2024-07-11,0.09263749586686063
2024-07-12,-0.243771890878592
2024-07-15,-0.06025160008827475
2024-07-16,-0.039960668633231416
2024-07-17,0.24887333011427853
2024-07-18,-0.17848415284360153
2024-07-19,0.12424621068071458
2024-07-22,-0.2702898550724707
2024-07-23,0.22498866213151908
2024-07-24,-0.3623461146396938
2024-07-25,0.2636924342105246
2024-07-26,0.19530637392181396
2024-07-29,0.20897435897436176
2024-07-30,-0.004591836734697291
2024-07-31,0.3351813351813363
2024-08-01,-0.17114907688068282
2024-08-02,-0.2465250130809662
2024-08-05,0.03318250377074146
2024-08-06,-0.3281746031746014
2024-08-07,-0.26151664861342505
2024-08-08,-0.015013349051697683
2024-08-09,0.06166272154207479
2024-08-12,-0.023339658444024802
2024-08-13,0.1762720664589815
2024-08-14,0.4056607927575673
2024-08-15,0.052502695210227164
2024-08-16,0.058395487125807
2024-08-19,-0.04974049011234563
2024-08-20,-0.041515408975050794
2024-08-21,-0.3991751087186759
2024-08-22,-0.10697674418604591
2024-08-23,-0.22120367970976884
2024-08-26,0.21938482427280884
2024-08-27,0.015952562374224807
2024-08-28,0.021435219296545127
2024-08-29,0.013646543999422008
2024-08-30,0.16734666230464187
2024-09-02,-0.34962488718355866
2024-09-03,0.036805488507547494
2024-09-04,0.15352180029375914
2024-09-05,0.0802969953613528
2024-09-06,0.13133357902265783
2024-09-09,0.204231195329689
2024-09-10,-0.12169471300499826
2024-09-11,0.009503374413658255
2024-09-12,-0.061609200545946756
2024-09-13,-0.31462467880378375
2024-09-18,-0.0723607759005983
2024-09-19,0.1318924229399485
2024-09-20,-0.1273012142577371
2024-09-23,0.01628392262075835
2024-09-24,0.3954462381967725
2024-09-25,-0.08819678264122749
2024-09-26,-0.07255350652847008
2024-09-27,-0.0026396314603702106
2024-09-30,0.3947013920071859
2024-10-08,0.11935901121011605
2024-10-09,0.14615983283225764
2024-10-10,0.05957879991720185
2024-10-11,0.054549103264752825
2024-10-14,-0.5507367444019033
2024-10-15,-0.7853152671302065
2024-10-16,-0.1482779640353558
2024-10-17,0.16999817173502216
2024-10-18,0.11566909846104739
2024-10-21,0.04187968044956121
2024-10-22,0.48766375440923354
2024-10-23,0.09650340823024527
2024-10-24,-0.5160629772569006
2024-10-25,-0.25574282147315885
2024-10-28,0.37834894672695657
2024-10-29,-0.0671852350383085
2024-10-30,0.04643776824034357
2024-10-31,0.25351268601808513
2024-11-01,0.09277937880243424
2024-11-04,-0.3492620385710733
2024-11-05,-0.06385460565924309
2024-11-06,0.024056939501778646
2024-11-07,0.1436932632584802
2024-11-08,0.1772070710620644
2024-11-11,0.04718202620499887
2024-11-12,0.06391844631297137
2024-11-13,-0.1488027022136436
2024-11-14,-0.1371134233453064
2024-11-15,-0.19862167673123754
2024-11-18,0.05077609443256922
2024-11-19,0.053399547493958595
2024-11-20,-0.012974106994976031
2024-11-21,-0.021248384365110423
2024-11-22,0.04829334652485867
2024-11-25,-0.049560513860717935
2024-11-26,-0.14574075363933792
2024-11-27,0.16106828599643208
2024-11-28,0.07413779860204014
2024-11-29,-0.07320620555914563
2024-12-02,0.05773420479302731
2024-12-03,0.05250463821892269
2024-12-04,-0.03477698771816362
2024-12-05,0.19556737588652728
2024-12-06,0.02245193869565791
2024-12-09,-0.053527447563552044
2024-12-10,0.29849153905991116
2024-12-11,-0.05682241194546041
2024-12-12,-0.39841684849396897
2024-12-13,0.21161593738181053
2024-12-16,-0.040179040879777736
2024-12-17,-0.4888093513289425
2024-12-18,0.12931481316126714
2024-12-19,0.3253492156437279
2024-12-20,-0.32460962469180893
2024-12-23,0.14289630325814728
2024-12-24,0.24552845528455214
2024-12-25,-0.2701459553910986
2024-12-26,-0.23991686327378867
2024-12-27,0.3518098922354249
2024-12-30,-0.07326388888889013
2024-12-31,0.018176863332878344
