date,FCT_Demark_Atr_Dfive
2014-03-21,
2014-03-24,
2014-03-25,
2014-03-26,
2014-03-27,
2014-03-28,
2014-03-31,
2014-04-01,
2014-04-02,
2014-04-03,0.07220500971485591
2014-04-04,0.20370370370370242
2014-04-08,0.31111111111111317
2014-04-09,0.9259259259259247
2014-04-10,0.74074074074074
2014-04-11,0.6666666666666666
2014-04-14,0.5185185185185209
2014-04-15,0.34374999999999645
2014-04-16,0.0
2014-04-17,0.0
2014-04-18,0.5238095238095271
2014-04-21,0.5116279069767485
2014-04-22,0.6829268292683026
2014-04-23,0.8000000000000073
2014-04-24,0.9130434782608725
2014-04-25,0.46511627906976794
2014-04-28,0.5869565217391276
2014-04-29,0.5121951219512129
2014-04-30,0.3023255813953429
2014-05-05,0.6703296703296666
2014-05-06,0.8472222222222199
2014-05-07,0.7714285714285694
2014-05-08,0.7200000000000024
2014-05-09,0.8059701492537341
2014-05-12,3.692156409050674e-15
2014-05-13,0.0
2014-05-14,0.0
2014-05-15,0.016666666666665234
2014-05-16,0.22972972972973071
2014-05-19,0.6538461538461583
2014-05-20,0.6296296296296356
2014-05-21,0.857142857142862
2014-05-22,0.8787878787878829
2014-05-23,0.34210526315789397
2014-05-26,0.43902439024389667
2014-05-27,0.6037735849056575
2014-05-28,0.5961538461538404
2014-05-29,0.4545454545454481
2014-05-30,0.8163265306122416
2014-06-03,0.7954545454545437
2014-06-04,0.4468085106382954
2014-06-05,0.32608695652174324
2014-06-06,0.3947368421052697
2014-06-09,7.048662235460356e-15
2014-06-10,0.0
2014-06-11,0.19047619047618666
2014-06-12,0.21052631578946765
2014-06-13,0.3333333333333333
2014-06-16,0.7142857142857097
2014-06-17,0.6666666666666666
2014-06-18,0.7619047619047636
2014-06-19,0.7619047619047636
2014-06-20,0.7499999999999971
2014-06-23,0.5714285714285715
2014-06-24,0.4444444444444481
2014-06-25,0.06896551724137451
2014-06-26,0.2499999999999979
2014-06-27,0.1818181818181831
2014-06-30,0.19354838709677466
2014-07-01,0.24999999999999767
2014-07-02,0.6842105263157839
2014-07-03,0.3888888888888875
2014-07-04,0.3684210526315752
2014-07-07,0.4999999999999944
2014-07-08,0.6086956521739082
2014-07-09,0.33333333333332593
2014-07-10,0.6666666666666611
2014-07-11,0.807692307692307
2014-07-14,0.692307692307693
2014-07-15,0.6666666666666698
2014-07-16,0.7272727272727246
2014-07-17,0.5714285714285717
2014-07-18,0.7857142857142805
2014-07-21,0.8928571428571362
2014-07-22,0.8846153846153773
2014-07-23,0.9200000000000064
2014-07-24,0.5128205128205148
2014-07-25,0.07499999999999972
2014-07-28,0.0
2014-07-29,0.0
2014-07-30,0.17391304347826117
2014-07-31,0.44736842105263
2014-08-01,0.8636363636363632
2014-08-04,0.7916666666666712
2014-08-05,0.9666666666666693
2014-08-06,0.9636363636363664
2014-08-07,0.8301886792452867
2014-08-08,0.8363636363636409
2014-08-11,0.8518518518518515
2014-08-12,0.17500000000000207
2014-08-13,0.10526315789473929
2014-08-14,0.3249999999999989
2014-08-15,0.6142857142857124
2014-08-18,0.6623376623376618
2014-08-19,0.7611940298507437
2014-08-20,0.7611940298507461
2014-08-21,0.6562500000000009
2014-08-22,0.24242424242424285
2014-08-25,0.3055555555555514
2014-08-26,0.7058823529411759
2014-08-27,0.8163265306122447
2014-08-28,0.9482758620689656
2014-08-29,0.6790123456790105
2014-09-01,0.5726262073993084
2014-09-02,0.4512443711431946
2014-09-03,0.23234603932085982
2014-09-04,0.0
2014-09-05,0.0
2014-09-09,0.30043560313824214
2014-09-10,0.586511492955928
2014-09-11,0.7195969721416408
2014-09-12,0.8569723456608759
2014-09-15,1.0
2014-09-16,0.8666666666666663
2014-09-17,0.37288135593220406
2014-09-18,0.25423728813559643
2014-09-19,0.2666666666666683
2014-09-22,0.42105263157894923
2014-09-23,0.4782608695652204
2014-09-24,0.7021276595744781
2014-09-25,0.8409090909090968
2014-09-26,0.8571428571428632
2014-09-29,0.4857142857142908
2014-09-30,0.3018867924528316
2014-10-08,0.6341463414634138
2014-10-09,0.647058823529411
2014-10-10,0.5374999999999992
2014-10-13,0.6941176470588224
2014-10-14,0.9090909090909094
2014-10-15,0.44736842105262803
2014-10-16,0.369863013698626
2014-10-17,0.3214285714285675
2014-10-20,0.10891089108910734
2014-10-21,0.0
2014-10-22,0.09090909090909204
2014-10-23,0.08108108108108256
2014-10-24,0.12280701754385971
2014-10-27,0.2500000000000017
2014-10-28,0.23333333333333323
2014-10-29,0.02857142857142467
2014-10-30,0.35294117647058093
2014-10-31,0.2972972972972939
2014-11-03,0.333333333333331
2014-11-04,0.46428571428570653
2014-11-05,0.6842105263157875
2014-11-06,0.07999999999999068
2014-11-07,0.07407407407406484
2014-11-10,0.19354838709677075
2014-11-11,0.16666666666667287
2014-11-12,0.3428571428571502
2014-11-13,0.75
2014-11-14,1.0
2014-11-17,0.75
2014-11-18,0.6052631578947373
2014-11-19,0.47058823529411486
2014-11-20,0.3333333333333333
2014-11-21,0.090909090909089
2014-11-24,0.5555555555555566
2014-11-25,0.8333333333333335
2014-11-26,0.8333333333333268
2014-11-27,0.9538461538461499
2014-11-28,0.9673913043478233
2014-12-01,0.9719626168224275
2014-12-02,0.9693877551020381
2014-12-03,1.0
2014-12-04,0.7653061224489797
2014-12-05,0.4842105263157904
2014-12-08,0.17307692307692366
2014-12-09,0.15887850467289902
2014-12-10,0.0
2014-12-11,0.0
2014-12-12,0.0
2014-12-15,0.0
2014-12-16,0.0
2014-12-17,0.0
2014-12-18,0.0
2014-12-19,0.09264305177112019
2014-12-22,0.4870781583239228
2014-12-23,0.5844105239974917
2014-12-24,0.7983820262396795
2014-12-25,1.0
2014-12-26,1.0
2014-12-29,1.0
2014-12-30,1.0
2014-12-31,1.0
2015-01-05,1.0
2015-01-06,1.0
2015-01-07,0.9009900990099018
2015-01-08,0.557692307692309
2015-01-09,0.5151515151515162
2015-01-12,0.5675675675675687
2015-01-13,0.23148148148148098
2015-01-14,0.46323529411764586
2015-01-15,0.6299999999999979
2015-01-16,0.6568627450980392
2015-01-19,0.39622641509434103
2015-01-20,0.5753424657534293
2015-01-21,0.05194805194805633
2015-01-22,0.08750000000000446
2015-01-23,0.034090909090909415
2015-01-26,0.26315789473684176
2015-01-27,0.2597402597402584
2015-01-28,0.736842105263156
2015-01-29,0.6964285714285701
2015-01-30,0.8297872340425492
2015-02-02,0.8769230769230747
2015-02-03,0.8507462686567121
2015-02-04,0.5384615384615343
2015-02-05,0.49295774647886964
2015-02-06,0.48611111111111005
2015-02-09,0.0
2015-02-10,0.0
2015-02-11,0.0
2015-02-12,0.04285714285714337
2015-02-13,0.1486486486486491
2015-02-16,0.7916666666666751
2015-02-17,0.8888888888888953
2015-02-25,1.0
2015-02-26,0.9333333333333279
2015-02-27,0.9130434782608627
2015-03-02,0.8124999999999872
2015-03-03,0.6666666666666604
2015-03-04,0.055555555555559265
2015-03-05,0.2857142857142886
2015-03-06,0.20000000000000007
2015-03-09,0.34482758620689763
2015-03-10,0.48571428571428454
2015-03-11,0.8148148148148144
2015-03-12,0.8809523809523815
2015-03-13,0.999999999999994
2015-03-16,0.8421052631578885
2015-03-17,0.6249999999999951
2015-03-18,0.6428571428571376
2015-03-19,0.14893617021276156
2015-03-20,0.13461538461538095
2015-03-23,0.37096774193548043
2015-03-24,0.4999999999999963
2015-03-25,0.4107142857142857
2015-03-26,0.7647058823529471
2015-03-27,0.9411764705882403
2015-03-30,0.7111111111111172
2015-03-31,0.6250000000000082
2015-04-01,0.7446808510638316
2015-04-02,0.773584905660377
2015-04-03,0.4418604651162795
2015-04-07,0.681818181818185
2015-04-08,0.7676321494352183
2015-04-09,0.5503891719546138
2015-04-10,0.3497839079148176
2015-04-13,0.5971920441250197
2015-04-14,0.39181416967932603
2015-04-15,0.26382220938767137
2015-04-16,0.36311781883682037
2015-04-17,0.4820244994274199
2015-04-20,0.09346913363451798
2015-04-21,0.11627906976743883
2015-04-22,0.374999999999999
2015-04-23,0.28571428571428703
2015-04-24,0.4776119402985098
2015-04-27,0.7551020408163298
2015-04-28,0.9038461538461567
2015-04-29,0.8901098901098933
2015-04-30,1.0
2015-05-04,0.9464285714285732
2015-05-05,0.9600000000000012
2015-05-06,0.8965517241379349
2015-05-07,0.5820895522388094
2015-05-08,0.5254237288135515
2015-05-11,0.344444444444436
2015-05-12,0.021505376344075813
2015-05-13,0.01960784313724556
2015-05-14,0.021978021978011634
2015-05-15,0.0
2015-05-18,0.0
2015-05-19,0.0
2015-05-20,0.17741935483871038
2015-05-21,0.1999999999999983
2015-05-22,0.6666666666666617
2015-05-25,0.7435897435897382
2015-05-26,0.9555555555555526
2015-05-27,0.7978723404255349
2015-05-28,0.8369565217391367
2015-05-29,0.6052631578947448
2015-06-01,0.500000000000011
2015-06-02,0.03389830508475207
2015-06-03,0.045454545454553
2015-06-04,0.0
2015-06-05,0.01999999999999873
2015-06-08,0.013513513513512806
2015-06-09,0.06122448979591566
2015-06-10,0.056603773584903344
2015-06-11,0.09374999999999746
2015-06-12,0.5857142857142862
2015-06-15,0.92424242424242
2015-06-16,0.9404761904761872
2015-06-17,0.9900990099009904
2015-06-18,1.0
2015-06-19,0.6228070175438617
2015-06-23,0.5612244897959221
2015-06-24,0.3301886792452874
2015-06-25,0.20224719101122887
2015-06-26,0.17441860465115627
2015-06-29,0.43999999999999334
2015-06-30,0.6989247311827959
2015-07-01,1.0
2015-07-02,0.8461538461538494
2015-07-03,0.8536585365853677
2015-07-06,0.9148936170212773
2015-07-07,0.7592592592592536
2015-07-08,0.8686868686868652
2015-07-09,0.9678160919540212
2015-07-10,0.9680365296803636
2015-07-13,0.8927680798004981
2015-07-14,0.8523809523809543
2015-07-15,0.6461916461916485
2015-07-16,0.037333333333334266
2015-07-17,0.0
2015-07-20,0.058524173027988347
2015-07-21,0.12467532467532307
2015-07-22,0.2543859649122792
2015-07-23,0.561290322580643
2015-07-24,0.7580645161290294
2015-07-27,0.44099378881987455
2015-07-28,0.2754491017964059
2015-07-29,0.04060866917857995
2015-07-30,0.06586313093224357
2015-07-31,0.01777308550985347
2015-08-03,0.21281784987569724
2015-08-04,0.337647406417793
2015-08-05,0.6413121713776736
2015-08-06,0.7738046697695897
2015-08-07,0.8696877449976319
2015-08-10,0.5097558283562919
2015-08-11,0.3978494623655961
2015-08-12,0.6356589147286855
2015-08-13,0.4210526315789476
2015-08-14,0.33333333333333437
2015-08-17,0.4736842105263156
2015-08-18,0.5142857142857155
2015-08-19,0.09183673469387652
2015-08-20,0.1690140845070448
2015-08-21,0.2000000000000017
2015-08-24,0.6981132075471705
2015-08-25,0.7927461139896365
2015-08-26,0.9874213836477977
2015-08-27,0.9878787878787868
2015-08-28,1.0
2015-08-31,0.41798941798941525
2015-09-01,0.20329670329670066
2015-09-02,0.1692307692307662
2015-09-07,0.3493975903614445
2015-09-08,0.2658227848101273
2015-09-09,0.5294117647058842
2015-09-10,0.7238095238095267
2015-09-11,0.8651685393258454
2015-09-14,0.12499999999999926
2015-09-15,0.13725490196078385
2015-09-16,0.04629629629629622
2015-09-17,0.009615384615383166
2015-09-18,0.0
2015-09-21,0.424242424242424
2015-09-22,0.5277777777777677
2015-09-23,0.7599999999999878
2015-09-24,0.7307692307692286
2015-09-25,0.8529411764705861
2015-09-28,0.5999999999999874
2015-09-29,0.5999999999999911
2015-09-30,0.6000000000000016
2015-10-08,0.7804878048780491
2015-10-09,0.8163265306122472
2015-10-12,0.9183673469387822
2015-10-13,0.6666666666666667
2015-10-14,0.6349206349206302
2015-10-15,0.31944444444444453
2015-10-16,0.06250000000000193
2015-10-19,0.0
2015-10-20,0.0
2015-10-21,0.4144144144144173
2015-10-22,0.5287356321839117
2015-10-23,0.8026315789473721
2015-10-26,0.7922077922077903
2015-10-27,0.9027777777777736
2015-10-28,0.2923076923076939
2015-10-29,0.39726027397260766
2015-10-30,0.1818181818181889
2015-11-02,0.1686746987951874
2015-11-03,0.29591836734693894
2015-11-04,0.44615384615384246
2015-11-05,0.3793103448275767
2015-11-06,0.6046511627906896
2015-11-09,0.8695652173912983
2015-11-10,0.4374999999999952
2015-11-11,0.5434782608695615
2015-11-12,0.4230769230769233
2015-11-13,0.464285714285709
2015-11-16,0.2448979591836697
2015-11-17,0.36363636363636503
2015-11-18,0.38235294117647806
2015-11-19,0.7647058823529492
2015-11-20,0.6078431372549123
2015-11-23,0.800000000000006
2015-11-24,0.9080459770114967
2015-11-25,0.9223300970873803
2015-11-26,0.8961038961038983
2015-11-27,1.0
2015-11-30,0.8522727272727263
2015-12-01,0.6413445699142903
2015-12-02,0.5305459204399845
2015-12-03,0.47452858314078955
2015-12-04,0.08006690110644504
2015-12-07,0.10947792263638759
2015-12-08,0.1697684287099984
2015-12-09,0.0
2015-12-10,0.0
2015-12-11,0.0
2015-12-14,0.20000000000000406
2015-12-15,0.21917808219178492
2015-12-16,0.6543209876543239
2015-12-17,0.9444444444444485
2015-12-18,1.0
2015-12-21,1.0
2015-12-22,1.0
2015-12-23,0.8407079646017653
2015-12-24,0.7078651685393166
2015-12-25,0.5899999999999973
2015-12-28,0.3826086956521752
2015-12-29,0.0
2015-12-30,0.014285714285724952
2015-12-31,0.03174603174604116
2016-01-04,0.5533980582524345
2016-01-05,0.8260869565217425
2016-01-06,0.8085106382978705
2016-01-07,0.8163265306122407
2016-01-08,0.8269230769230733
2016-01-11,0.30693069306930115
2016-01-12,0.11881188118811324
2016-01-13,0.13483146067415186
2016-01-14,0.0760869565217394
2016-01-15,0.0
2016-01-18,0.4605263157894739
2016-01-19,0.5645161290322632
2016-01-20,0.6666666666666689
2016-01-21,0.5999999999999993
2016-01-22,0.6875000000000004
2016-01-25,0.14754098360655338
2016-01-26,0.14516129032257605
2016-01-27,0.03636363636363416
2016-01-28,0.46478873239436397
2016-01-29,0.3974358974358968
2016-02-01,0.7222222222222204
2016-02-02,0.8333333333333304
2016-02-03,0.7377049180327976
2016-02-04,0.36842105263158204
2016-02-05,0.666666666666675
2016-02-15,0.6341463414634327
2016-02-16,0.6590909090909256
2016-02-17,0.7073170731707179
2016-02-18,0.5272727272727302
2016-02-19,0.2363636363636451
2016-02-22,0.5999999999999911
2016-02-23,0.6440677966101596
2016-02-24,0.6806722689075604
2016-02-25,0.858407079646015
2016-02-26,1.0
2016-02-29,0.5294117647058842
2016-03-01,0.3809523809523921
2016-03-02,0.42222222222222633
2016-03-03,0.2716049382716058
2016-03-04,0.3139534883720898
2016-03-07,0.8571428571428605
2016-03-08,0.9575757575757559
2016-03-09,0.9783950617283943
2016-03-10,1.0
2016-03-11,1.0
2016-03-14,1.0
2016-03-15,0.8229166666666676
2016-03-16,0.37922077922078146
2016-03-17,0.1333333333333345
2016-03-18,0.17341040462427693
2016-03-21,0.06172839506172731
2016-03-22,0.06849315068493021
2016-03-23,0.4195402298850531
2016-03-24,0.6275862068965494
2016-03-25,0.5970149253731343
2016-03-28,0.6451612903225793
2016-03-29,0.9120879120879105
2016-03-30,0.4225352112676054
2016-03-31,0.1142857142857127
2016-04-01,0.19130434782608052
2016-04-05,0.18803418803418215
2016-04-06,0.3014705882352927
2016-04-07,0.4363636363636364
2016-04-08,0.8437500000000036
2016-04-11,0.8591549295774683
2016-04-12,0.6853932584269684
2016-04-13,0.7052631578947399
2016-04-14,0.7335614909604946
2016-04-15,0.6632818313126441
2016-04-18,0.657464713477893
2016-04-19,0.9405183515775911
2016-04-20,0.9512017960908603
2016-04-21,0.965122472508579
2016-04-22,1.0
2016-04-25,1.0
2016-04-26,1.0
2016-04-27,0.901459854014599
2016-04-28,0.6653386454183293
2016-04-29,0.3080357142857165
2016-05-03,0.13675213675213818
2016-05-04,0.0
2016-05-05,0.0
2016-05-06,0.0
2016-05-09,0.49815498154981436
2016-05-10,0.48913043478260787
2016-05-11,0.6308411214953255
2016-05-12,0.5672268907563034
2016-05-13,0.605381165919283
2016-05-16,0.0
2016-05-17,0.007299270072990845
2016-05-18,0.2711864406779684
2016-05-19,0.2727272727272739
2016-05-20,0.24120603015075406
2016-05-23,0.6666666666666637
2016-05-24,0.5738636363636352
2016-05-25,0.31578947368420784
2016-05-26,0.41830065359476565
2016-05-27,0.6470588235294104
2016-05-30,0.5479452054794505
2016-05-31,0.6153846153846131
2016-06-01,0.7339449541284419
2016-06-02,0.5982905982906024
2016-06-03,0.10399999999999897
2016-06-06,0.0
2016-06-07,0.02777777777777731
2016-06-08,0.19791666666666805
2016-06-13,0.3901345291479825
2016-06-14,0.658653846153847
2016-06-15,0.7445652173913048
2016-06-16,0.7403314917127076
2016-06-17,0.6047904191616748
2016-06-20,0.3333333333333313
2016-06-21,0.015151515151514215
2016-06-22,0.16161616161616024
2016-06-23,0.11023622047244089
2016-06-24,0.24799999999999822
2016-06-27,0.702127659574469
2016-06-28,0.754285714285713
2016-06-29,0.7023809523809502
2016-06-30,0.9056603773584884
2016-07-01,0.8706467661691537
2016-07-04,0.5
2016-07-05,0.7370689655172427
2016-07-06,0.7954545454545473
2016-07-07,0.7567567567567591
2016-07-08,0.7857142857142868
2016-07-11,1.0
2016-07-12,0.8188976377952755
2016-07-13,0.6310679611650514
2016-07-14,0.24264705882353163
2016-07-15,0.18248175182482088
2016-07-18,0.2774193548387071
2016-07-19,0.24431818181817974
2016-07-20,0.2251308900523538
2016-07-21,0.6121495327102812
2016-07-22,0.6666666666666666
2016-07-25,0.43933054393305504
2016-07-26,0.502392344497608
2016-07-27,0.654205607476635
2016-07-28,0.2342342342342333
2016-07-29,0.2129629629629619
2016-08-01,0.4086021505376344
2016-08-02,0.3636363636363634
2016-08-03,0.1933962264150954
2016-08-04,0.47552447552447635
2016-08-05,0.4014084507042267
2016-08-08,0.18120805369127466
2016-08-09,0.4817073170731718
2016-08-10,0.6690140845070426
2016-08-11,0.4857142857142866
2016-08-12,0.3695652173913045
2016-08-15,0.37988826815642535
2016-08-16,0.3353293413173639
2016-08-17,0.2564102564102546
2016-08-18,0.29629629629629467
2016-08-19,0.6019417475728149
2016-08-22,0.5904761904761883
2016-08-23,0.22222222222222163
2016-08-24,0.16923076923076996
2016-08-25,0.4693877551020416
2016-08-26,0.3954802259887013
2016-08-29,0.6368159203980117
2016-08-30,0.6464646464646499
2016-08-31,0.8528138528138544
2016-09-01,0.5204918032786899
2016-09-02,0.56180538016955
2016-09-05,0.3525976087508
2016-09-06,0.3982592105195429
2016-09-07,0.14866419718323537
2016-09-08,0.33663396150660957
2016-09-09,0.0737368050044516
2016-09-12,0.5439300156804427
2016-09-13,0.529880905163626
2016-09-14,0.28150653402551945
2016-09-19,0.316666666666663
2016-09-20,0.4130434782608685
2016-09-21,0.07920792079207993
2016-09-22,0.20535714285714687
2016-09-23,0.32394366197183483
2016-09-26,0.1875000000000084
2016-09-27,0.40366972477064383
2016-09-28,0.5714285714285737
2016-09-29,0.4603174603174612
2016-09-30,0.5967741935483902
2016-10-10,0.8840579710144951
2016-10-11,0.8805970149253762
2016-10-12,0.988888888888891
2016-10-13,0.8317757009345796
2016-10-14,0.8333333333333351
2016-10-17,0.6470588235294199
2016-10-18,0.297709923664127
2016-10-19,0.31343283582089726
2016-10-20,0.45185185185185184
2016-10-21,0.5595238095238072
2016-10-24,0.6455696202531597
2016-10-25,1.0
2016-10-26,0.9076923076923086
2016-10-27,0.8684210526315783
2016-10-28,0.6063829787234036
2016-10-31,0.7299270072992707
2016-11-01,0.7279411764705893
2016-11-02,0.7615384615384633
2016-11-03,0.7615384615384678
2016-11-04,0.7674418604651218
2016-11-07,0.8445595854922315
2016-11-08,0.797297297297301
2016-11-09,0.9097744360902268
2016-11-10,0.9484029484029479
2016-11-11,1.0
2016-11-14,1.0
2016-11-15,1.0
2016-11-16,0.8336980306345739
2016-11-17,0.5550351288056213
2016-11-18,0.31496062992126145
2016-11-21,0.08158995815899682
2016-11-22,0.006787330316740874
2016-11-23,0.00779220779220639
2016-11-24,0.17283950617283886
2016-11-25,0.4883116883116862
2016-11-28,0.931407942238265
2016-11-29,0.94080996884735
2016-11-30,1.0
2016-12-01,1.0
2016-12-02,0.8305622596133345
2016-12-05,0.771759124339196
2016-12-06,0.4671417763387995
2016-12-07,0.5511711361513929
2016-12-08,0.1985454005664885
2016-12-09,0.2871228399876265
2016-12-12,0.31327371993755776
2016-12-13,0.43812709030100583
2016-12-14,0.1647940074906382
2016-12-15,0.42608695652174156
2016-12-16,0.09278350515463617
2016-12-19,0.020920502092050135
2016-12-20,0.021551724137930908
2016-12-21,0.02222222222222207
2016-12-22,0.13725490196078263
2016-12-23,0.3209876543209845
2016-12-26,0.6645161290322574
2016-12-27,0.7611940298507458
2016-12-28,1.0
2016-12-29,0.6067961165048582
2016-12-30,0.5654450261780155
2017-01-03,0.2602739726027428
2017-01-04,0.03825136612022229
2017-01-05,0.0
2017-01-06,0.12413793103448063
2017-01-09,0.49799196787148203
2017-01-10,0.7711442786069588
2017-01-11,0.7110091743119222
2017-01-12,0.8564814814814804
2017-01-13,0.7455357142857131
2017-01-16,0.5648854961832028
2017-01-17,0.5808823529411773
2017-01-18,0.7886178861788627
2017-01-19,0.7614678899082585
2017-01-20,1.0
2017-01-23,0.4370078740157507
2017-01-24,0.3500000000000031
2017-01-25,0.2576419213973838
2017-01-26,0.16475095785440821
2017-02-03,0.43523316062176276
2017-02-06,0.6511627906976758
2017-02-07,0.49700598802395346
2017-02-08,0.5803571428571419
2017-02-09,0.6836734693877541
2017-02-10,0.16587677725117925
2017-02-13,0.3206751054852301
2017-02-14,0.40860215053762866
2017-02-15,0.26111111111111074
2017-02-16,0.45491803278688636
2017-02-17,0.39784946236559376
2017-02-20,0.26717557251908586
2017-02-21,0.3125000000000049
2017-02-22,0.4760147601476032
2017-02-23,0.2521367521367516
2017-02-24,0.6918918918918908
2017-02-27,0.8695652173913024
2017-02-28,0.9057142857142844
2017-03-01,0.7535816618911159
2017-03-02,0.7108108108108105
2017-03-03,0.5773809523809534
2017-03-06,0.3791821561338302
2017-03-07,0.0
2017-03-08,0.0
2017-03-09,0.10859728506787451
2017-03-10,0.111627906976745
2017-03-13,0.2813852813852813
2017-03-14,0.7073170731707332
2017-03-15,0.8253012048192758
2017-03-16,0.8141025641025617
2017-03-17,0.9007092198581595
2017-03-20,0.4257425742574264
2017-03-21,0.4081632653061245
2017-03-22,0.17857142857142771
2017-03-23,0.07881773399015007
2017-03-24,0.13065326633165864
2017-03-27,0.6449999999999969
2017-03-28,0.5649999999999961
2017-03-29,0.703578806749166
2017-03-30,0.9127299464106443
2017-03-31,0.9202572388810559
2017-04-05,0.43107226996573056
2017-04-06,0.5070532628848465
2017-04-07,0.31646166117216595
2017-04-10,0.24712910335227367
2017-04-11,0.06524918774705626
2017-04-12,0.31612898496543584
2017-04-13,0.314960629921263
2017-04-14,0.2777777777777807
2017-04-17,0.4640883977900575
2017-04-18,0.7678571428571435
2017-04-19,0.47641509433962353
2017-04-20,0.5542168674698802
2017-04-21,0.6712328767123292
2017-04-24,0.5202020202020212
2017-04-25,0.313513513513515
2017-04-26,0.6745562130177523
2017-04-27,0.3140096618357482
2017-04-28,0.27586206896551674
2017-05-02,0.29787234042553123
2017-05-03,0.3353293413173653
2017-05-04,0.4558823529411764
2017-05-05,0.8080000000000025
2017-05-08,0.8549618320610712
2017-05-09,0.8818897637795301
2017-05-10,0.9491525423728778
2017-05-11,0.16379310344827566
2017-05-12,0.37419354838709573
2017-05-15,0.37012987012986903
2017-05-16,0.33727810650887496
2017-05-17,0.5319148936170213
2017-05-18,0.6544502617801048
2017-05-19,0.6000000000000002
2017-05-22,0.5925925925925927
2017-05-23,0.6620689655172416
2017-05-24,0.3218390804597686
2017-05-25,0.8181818181818143
2017-05-26,0.39759036144578386
2017-05-31,0.5412844036697244
2017-06-01,0.6335877862595412
2017-06-02,0.46629213483146287
2017-06-05,0.40251572327044
2017-06-06,0.3855421686746984
2017-06-07,0.1265306122448971
2017-06-08,0.1046025104602498
2017-06-09,0.30222222222222117
2017-06-12,0.26293103448275906
2017-06-13,0.4857142857142864
2017-06-14,0.9426229508196736
2017-06-15,0.9467680608365032
2017-06-16,0.8583333333333346
2017-06-19,0.9215686274509802
2017-06-20,0.6833976833976829
2017-06-21,0.2796610169491513
2017-06-22,0.11740890688258994
2017-06-23,0.11284046692606893
2017-06-26,0.0
2017-06-27,0.15350877192982593
2017-06-28,0.244755244755246
2017-06-29,0.33653846153846156
2017-06-30,0.4605263157894718
2017-07-03,0.7910447761193925
2017-07-04,0.6956521739130237
2017-07-05,0.8493150684931446
2017-07-06,0.9759036144578309
2017-07-07,1.0
2017-07-10,0.6992481203007568
2017-07-11,0.784946236559145
2017-07-12,0.6553672316384263
2017-07-13,0.6432748538011789
2017-07-14,0.632530120481939
2017-07-17,0.8928571428571477
2017-07-18,0.4695652173913079
2017-07-19,0.5450450450450447
2017-07-20,0.5589519650654987
2017-07-21,0.44588744588744056
2017-07-24,0.17837837837837148
2017-07-25,0.43956043956043844
2017-07-26,0.4631578947368458
2017-07-27,0.222222222222231
2017-07-28,0.2696629213483234
2017-07-31,0.6272727272727272
2017-08-01,0.5849056603773511
2017-08-02,0.39130434782608003
2017-08-03,0.4411764705882208
2017-08-04,0.62015503875968
2017-08-07,0.6315789473684137
2017-08-08,0.7540106951871626
2017-08-09,0.9107142857142825
2017-08-10,1.0
2017-08-11,1.0
2017-08-14,0.6926078776006386
2017-08-15,0.5729220905285066
2017-08-16,0.30997960121679563
2017-08-17,0.38129529967661185
2017-08-18,0.19605442297938444
2017-08-21,0.43702352237821473
2017-08-22,0.4437241624716118
2017-08-23,0.8230578027106821
2017-08-24,0.7550335570469808
2017-08-25,0.9189189189189181
2017-08-28,0.9068965517241372
2017-08-29,0.9559322033898306
2017-08-30,0.42629482071713265
2017-08-31,0.4403292181069965
2017-09-01,0.1757575757575823
2017-09-04,0.12500000000000627
2017-09-05,0.01657458563536261
2017-09-06,0.5840707964601723
2017-09-07,0.39759036144578264
2017-09-08,0.31499999999999706
2017-09-11,0.272727272727269
2017-09-12,0.37117903930130886
2017-09-13,0.10232558139535107
2017-09-14,0.33823529411764697
2017-09-15,0.26640926640926665
2017-09-18,0.3285714285714299
2017-09-19,0.23499999999999846
2017-09-20,0.2716763005780321
2017-09-21,0.24550898203592608
2017-09-22,0.7848101265822757
2017-09-25,0.6775956284152989
2017-09-26,0.5961538461538474
2017-09-27,0.6231155778894458
2017-09-28,0.48255813953488397
2017-09-29,0.2583333333333368
2017-10-09,0.5555555555555579
2017-10-10,0.8720379146919431
2017-10-11,0.9306930693069337
2017-10-12,1.0
2017-10-13,0.8703703703703689
2017-10-16,0.781512605042015
2017-10-17,0.5774647887323872
2017-10-18,0.5454545454545395
2017-10-19,0.0
2017-10-20,0.3879781420764998
2017-10-23,0.5518867924528293
2017-10-24,0.4680000000000032
2017-10-25,0.5646258503401381
2017-10-26,0.6803278688524624
2017-10-27,0.3625954198473324
2017-10-30,0.16225165562913924
2017-10-31,0.20077220077220032
2017-11-01,0.01287553648068641
2017-11-02,0.05714285714285966
2017-11-03,0.07185628742515247
2017-11-06,0.5792682926829305
2017-11-07,0.48677248677249174
2017-11-08,0.4693877551020457
2017-11-09,0.4029126213592254
2017-11-10,0.5625000000000011
2017-11-13,0.1019108280254765
2017-11-14,0.11188811188811011
2017-11-15,0.3782051282051251
2017-11-16,0.3155080213903741
2017-11-17,0.24855491329479845
2017-11-20,0.32330827067669315
2017-11-21,0.34677419354839023
2017-11-22,0.0
2017-11-23,0.3285714285714254
2017-11-24,0.2446808510638273
2017-11-27,0.42254272488934763
2017-11-28,0.5117386965258284
2017-11-29,0.7798905950249129
2017-11-30,0.6927749072040326
2017-12-01,0.9491825046651859
2017-12-04,0.9501119258362792
2017-12-05,0.8053292018024165
2017-12-06,0.7499077510798513
2017-12-07,0.8998558000107687
2017-12-08,0.9078947368421045
2017-12-11,0.6962025316455686
2017-12-12,0.7866108786610867
2017-12-13,0.5878136200716848
2017-12-14,0.21160409556314022
2017-12-15,0.08214285714285617
2017-12-18,0.2196969696969706
2017-12-19,0.2196969696969729
2017-12-20,0.28019323671497826
2017-12-21,0.6699999999999966
2017-12-22,0.9278350515463872
2017-12-25,0.9166666666666612
2017-12-26,0.446280991735538
2017-12-27,0.41860465116279316
2017-12-28,0.30000000000000143
2017-12-29,0.13414634146341425
2018-01-02,0.0
2018-01-03,0.07432432432432166
2018-01-04,0.08088235294117407
2018-01-05,0.3165467625899287
2018-01-08,0.5322580645161303
2018-01-09,0.5280000000000058
2018-01-10,0.49572649572650623
2018-01-11,0.5043478260869618
2018-01-12,0.25773195876289196
2018-01-15,0.02654867256637814
2018-01-16,0.27027027027027245
2018-01-17,0.18085106382978103
2018-01-18,0.16999999999999546
2018-01-19,0.4471544715447134
2018-01-22,0.6666666666666611
2018-01-23,0.5180722891566264
2018-01-24,0.7462686567164272
2018-01-25,0.9047619047619073
2018-01-26,0.45238095238095244
2018-01-29,0.3561643835616433
2018-01-30,0.4166666666666634
2018-01-31,0.4846625766871135
2018-02-01,0.23943661971830857
2018-02-02,0.5811965811965807
2018-02-05,0.777777777777776
2018-02-06,0.7524752475247479
2018-02-07,0.4310344827586154
2018-02-08,0.4273504273504258
2018-02-09,0.2637362637362647
2018-02-12,0.09090909090909435
2018-02-13,0.08602150537634849
2018-02-14,0.12698412698413591
2018-02-22,0.6739130434782674
2018-02-23,0.6511627906976776
2018-02-26,0.8843537414966035
2018-02-27,0.9285714285714299
2018-02-28,1.0
2018-03-01,0.6544117647058834
2018-03-02,0.5117647058823547
2018-03-05,0.09848484848484874
2018-03-06,0.0
2018-03-07,0.3381642512077308
2018-03-08,0.55665024630542
2018-03-09,0.778688524590164
2018-03-12,0.8636363636363621
2018-03-13,0.9441860465116274
2018-03-14,0.8926174496644302
2018-03-15,0.600000000000001
2018-03-16,0.09090909090909519
2018-03-19,0.317919075144514
2018-03-20,0.27607361963190474
2018-03-21,0.37704918032786944
2018-03-22,0.5483870967741942
2018-03-23,1.0
2018-03-26,0.958333333333333
2018-03-27,0.9667896678966786
2018-03-28,0.8439716312056741
2018-03-29,0.843416370106762
2018-03-30,0.3187772925764173
2018-04-02,0.3717948717948689
2018-04-03,0.13744075829383715
2018-04-04,0.13809523809523666
2018-04-09,0.27076278969006856
2018-04-10,0.3474137410115402
2018-04-11,0.2701300011572801
2018-04-12,0.31097143345147354
2018-04-13,0.5275968015061048
2018-04-16,0.33134020330391756
2018-04-17,0.7612498690962444
2018-04-18,0.9218707420917035
2018-04-19,0.9341551588296813
2018-04-20,0.5849056603773544
2018-04-23,0.488000000000002
2018-04-24,0.15789473684210498
2018-04-25,0.0
2018-04-26,0.08938547486033245
2018-04-27,0.11267605633802488
2018-05-02,0.11678832116787967
2018-05-03,0.4112903225806456
2018-05-04,0.6710526315789529
2018-05-07,0.5000000000000097
2018-05-08,0.42168674698795994
2018-05-09,0.38888888888889533
2018-05-10,0.0
2018-05-11,0.2100000000000011
2018-05-14,0.17796610169491645
2018-05-15,0.4000000000000039
2018-05-16,0.5156250000000003
2018-05-17,0.7383177570093479
2018-05-18,0.7281553398058271
2018-05-21,1.0
2018-05-22,0.8157894736842031
2018-05-23,0.8173913043478217
2018-05-24,0.8220338983050808
2018-05-25,0.8055555555555507
2018-05-28,0.5074626865671628
2018-05-29,0.8636363636363639
2018-05-30,0.6435643564356406
2018-05-31,0.5212765957446738
2018-06-01,0.43749999999999645
2018-06-04,0.47727272727272324
2018-06-05,0.0
2018-06-06,0.0
2018-06-07,0.3035714285714376
2018-06-08,0.2098765432098834
2018-06-11,0.18888888888889543
2018-06-12,0.23611111111111607
2018-06-13,0.2898550724637762
2018-06-14,0.028846153846155607
2018-06-15,0.16249999999999815
2018-06-19,0.5462184873949529
2018-06-20,0.5839999999999994
2018-06-21,0.5937499999999978
2018-06-22,1.0
2018-06-25,1.0
2018-06-26,0.26470588235296405
2018-06-27,0.12820512820514077
2018-06-28,0.049382716049399214
2018-06-29,0.27358490566037863
2018-07-02,0.368852459016388
2018-07-03,0.4999999999999886
2018-07-04,0.5999999999999891
2018-07-05,0.7613636363636266
2018-07-06,0.7692307692307638
2018-07-09,0.7162162162162103
2018-07-10,0.8688524590163935
2018-07-11,0.9275362318840609
2018-07-12,0.9107142857142895
2018-07-13,0.29333333333333084
2018-07-16,0.30263157894737086
2018-07-17,0.407407407407411
2018-07-18,0.19642857142857456
2018-07-19,0.12149532710280905
2018-07-20,0.43902439024390794
2018-07-23,0.30841121495327284
2018-07-24,0.22330097087378403
2018-07-25,0.5869565217391282
2018-07-26,0.40909090909090345
2018-07-27,0.5411764705882324
2018-07-30,0.5974025974025968
2018-07-31,0.6500000000000012
2018-08-01,0.6521739130434806
2018-08-02,0.9104477611940341
2018-08-03,0.45522388059701946
2018-08-06,0.6432748538011708
2018-08-07,0.6125000000000015
2018-08-08,0.4258064516129017
2018-08-09,0.46706586826347224
2018-08-10,0.7383177570093428
2018-08-13,0.6781609195402277
2018-08-14,0.715789473684207
2018-08-15,0.8000000000000002
2018-08-16,0.6290322580645182
2018-08-17,0.7722772277227739
2018-08-20,0.8017241379310355
2018-08-21,0.8506188416246102
2018-08-22,0.966576658284208
2018-08-23,1.0
2018-08-24,0.9431618363293667
2018-08-27,0.6753837558860326
2018-08-28,0.37981643140863286
2018-08-29,0.19577068580851095
2018-08-30,0.15491710928697977
2018-08-31,0.31249427246568173
2018-09-03,0.26271186440677774
2018-09-04,0.33695652173912594
2018-09-05,0.1574074074074049
2018-09-06,0.12408759124087342
2018-09-07,0.14285714285714357
2018-09-10,0.3867924528301915
2018-09-11,0.7297297297297316
2018-09-12,0.8689956331877736
2018-09-13,1.0
2018-09-14,0.7153024911032035
2018-09-17,0.6870229007633581
2018-09-18,0.23599999999999818
2018-09-19,0.09523809523809423
2018-09-20,0.009478672985780501
2018-09-21,0.07194244604316358
2018-09-25,0.105633802816901
2018-09-26,0.3658536585365856
2018-09-27,0.5999999999999899
2018-09-28,0.6874999999999961
2018-10-08,0.6296296296296242
2018-10-09,0.28571428571428337
2018-10-10,0.23076923076923084
2018-10-11,0.38709677419355726
2018-10-12,0.2962962962963068
2018-10-15,0.4722222222222318
2018-10-16,0.5074626865671754
2018-10-17,0.7580645161290362
2018-10-18,0.8235294117647053
2018-10-19,0.6509433962264144
2018-10-22,0.4848484848484787
2018-10-23,0.5161290322580603
2018-10-24,0.4166666666666667
2018-10-25,0.0
2018-10-26,0.0
2018-10-29,0.41481481481482163
2018-10-30,0.47761194029851095
2018-10-31,0.595092024539878
2018-11-01,0.9842931937172781
2018-11-02,1.0
2018-11-05,0.7063829787234028
2018-11-06,0.7272727272727265
2018-11-07,0.5921568627450972
2018-11-08,0.25210084033613334
2018-11-09,0.14009661835748652
2018-11-12,0.3588235294117638
2018-11-13,0.1933701657458567
2018-11-14,0.23809523809523944
2018-11-15,0.4545454545454635
2018-11-16,0.29629629629630183
2018-11-19,0.0
2018-11-20,0.2249999999999999
2018-11-21,0.5611510791366896
2018-11-22,0.46153846153845685
2018-11-23,0.6984126984126929
2018-11-26,0.865079365079363
2018-11-27,0.8827586206896536
2018-11-28,0.8521739130434742
2018-11-29,0.999999999999997
2018-11-30,0.9625141903945461
2018-12-03,0.969477313135787
2018-12-04,0.8406260809408468
2018-12-05,0.7262209516599771
2018-12-06,0.7546704154951589
2018-12-07,0.7689883491436956
2018-12-10,0.12932400519340775
2018-12-11,0.12511291481772205
2018-12-12,0.11224489795918435
2018-12-13,0.23235294117646932
2018-12-14,0.19849246231155684
2018-12-17,0.3264462809917347
2018-12-18,0.3405172413793075
2018-12-19,0.47894736842105134
2018-12-20,0.051063829787235865
2018-12-21,0.20098039215686522
2018-12-24,0.26943005181347274
2018-12-25,0.4038461538461586
2018-12-26,0.32727272727273027
2018-12-27,0.8260869565217387
2018-12-28,0.5944055944055945
2019-01-02,0.5944055944055964
2019-01-03,0.45299145299145405
2019-01-04,0.6610169491525442
2019-01-07,0.3428571428571487
2019-01-08,0.44444444444445314
2019-01-09,0.2808988764044975
2019-01-10,0.1968503937007885
2019-01-11,0.0
2019-01-14,0.0
2019-01-15,0.2460317460317449
2019-01-16,0.23484848484848406
2019-01-17,0.4000000000000026
2019-01-18,0.6559999999999987
2019-01-21,0.7256637168141599
2019-01-22,0.7596899224806187
2019-01-23,0.9423076923076934
2019-01-24,0.9405940594059414
2019-01-25,0.6623376623376597
2019-01-28,0.7999999999999962
2019-01-29,0.28205128205128144
2019-01-30,0.5058823529411709
2019-01-31,0.47953216374268476
2019-02-01,0.4969696969696932
2019-02-11,0.589108910891088
2019-02-12,0.8789808917197471
2019-02-13,0.8318584070796506
2019-02-14,0.8870967741935512
2019-02-15,1.0
2019-02-18,0.6240000000000042
2019-02-19,0.5727272727272718
2019-02-20,0.4954128440366944
2019-02-21,0.4042553191489336
2019-02-22,0.04494382022471202
2019-02-25,0.0677966101694809
2019-02-26,0.4329896907216505
2019-02-27,0.34146341463414615
2019-02-28,0.3984962406015027
2019-03-01,0.5188679245282957
2019-03-04,0.5789473684210488
2019-03-05,0.12149532710279719
2019-03-06,0.512195121951217
2019-03-07,0.47826086956521763
2019-03-08,0.5041322314049612
2019-03-11,0.5041322314049639
2019-03-12,0.938775510204089
2019-03-13,0.48837209302326323
2019-03-14,0.4761904761904801
2019-03-15,0.4634146341463496
2019-03-18,0.5189873417721514
2019-03-19,0.13157894736841885
2019-03-20,0.25641025641025245
2019-03-21,0.14999999999999697
2019-03-22,0.0394736842105175
2019-03-25,0.013513513513521563
2019-03-26,0.016129032258074178
2019-03-27,0.010526315789480099
2019-03-28,0.18181818181819234
2019-03-29,0.5283018867924585
2019-04-01,0.5045871559633026
2019-04-02,0.6082474226804109
2019-04-03,0.961538461538456
2019-04-04,0.8095238095238009
2019-04-08,0.7590361445783054
2019-04-09,0.822222222222219
2019-04-10,0.8376156274555725
2019-04-11,0.5542773235683311
2019-04-12,0.8507515905754025
2019-04-15,0.5657623915731396
2019-04-16,0.5598897661368603
2019-04-17,0.5087018745844745
2019-04-18,0.6702716905975475
2019-04-19,0.31563730745358926
2019-04-22,0.5540615685032078
2019-04-23,0.3398058252427229
2019-04-24,0.29914529914530397
2019-04-25,0.085106382978732
2019-04-26,0.1025641025641127
2019-04-29,0.0
2019-04-30,0.40594059405940536
2019-05-06,0.6106194690265466
2019-05-07,0.6106194690265434
2019-05-08,0.7378640776698948
2019-05-09,0.9560439560439516
2019-05-10,0.4893617021276522
2019-05-13,0.45454545454545053
2019-05-14,0.38095238095238015
2019-05-15,0.4196428571428631
2019-05-16,0.33027522935780695
2019-05-17,0.6375000000000121
2019-05-20,0.5084745762711972
2019-05-21,0.9370078740157513
2019-05-22,0.9407407407407433
2019-05-23,0.9844961240310063
2019-05-24,0.9866666666666654
2019-05-27,0.9874999999999988
2019-05-28,0.4451612903225811
2019-05-29,0.2701149425287376
2019-05-30,0.33155080213903837
2019-05-31,0.1313131313131326
2019-06-03,0.07537688442210934
2019-06-04,0.18032786885245802
2019-06-05,0.26506024096385156
2019-06-06,0.2823529411764683
2019-06-10,0.7878787878787782
2019-06-11,0.9749999999999902
2019-06-12,0.9736842105263054
2019-06-13,1.0
2019-06-14,0.6315789473684235
2019-06-17,0.4507042253521113
2019-06-18,0.05607476635514032
2019-06-19,0.16528925619835283
2019-06-20,0.4058823529411778
2019-06-21,0.6393442622950805
2019-06-24,0.7953795379537953
2019-06-25,1.0
2019-06-26,0.8821428571428563
2019-06-27,0.8613445378151254
2019-06-28,0.7168949771689501
2019-07-01,0.18232044198895167
2019-07-02,0.21276595744681287
2019-07-03,0.42500000000000465
2019-07-04,0.32467532467532817
2019-07-05,0.4618644067796622
2019-07-08,0.5093457943925229
2019-07-09,0.42473118279569616
2019-07-10,0.18681318681318276
2019-07-11,0.21935483870967235
2019-07-12,0.0
2019-07-15,0.3717948717948706
2019-07-16,0.2697674418604643
2019-07-17,0.36263736263736013
2019-07-18,0.44262295081966946
2019-07-19,0.598684210526314
2019-07-22,0.2682926829268275
2019-07-23,0.6547619047619061
2019-07-24,0.6627906976744207
2019-07-25,0.525000000000006
2019-07-26,0.4050632911392426
2019-07-29,0.5517241379310395
2019-07-30,0.1923076923076889
2019-07-31,0.10638297872341353
2019-08-01,0.08771929824562218
2019-08-02,0.5784313725490267
2019-08-05,0.7083333333333357
2019-08-06,0.8303571428571479
2019-08-07,0.6769230769230778
2019-08-08,0.8445945945945916
2019-08-09,0.7722772277227657
2019-08-12,0.7628865979381393
2019-08-13,0.7699999999999945
2019-08-14,1.0
2019-08-15,0.6288659793814437
2019-08-16,0.34177215189873617
2019-08-19,0.15533980582524323
2019-08-20,0.15942028985507326
2019-08-21,0.06030150753768811
2019-08-22,0.07926829268292701
2019-08-23,0.11304347826087023
2019-08-26,0.6595744680851097
2019-08-27,0.7225438185491426
2019-08-28,0.8430015940386832
2019-08-29,0.8804257995626477
2019-08-30,1.0
2019-09-02,1.0
2019-09-03,0.6338077490682562
2019-09-04,0.5140956514658522
2019-09-05,0.306102823904677
2019-09-06,0.21216613259717665
2019-09-09,0.2362204724409507
2019-09-10,0.445945945945957
2019-09-11,0.45205479452055347
2019-09-12,0.7428571428571396
2019-09-16,0.5121951219512153
2019-09-17,0.17599999999999774
2019-09-18,0.1507936507936476
2019-09-19,0.45398773006134835
2019-09-20,0.3216374269005855
2019-09-23,0.589519650655023
2019-09-24,0.8083832335329334
2019-09-25,0.7627118644067817
2019-09-26,0.5970149253731369
2019-09-27,0.7207207207207242
2019-09-30,0.0
2019-10-08,0.0
2019-10-09,0.40229885057471315
2019-10-10,0.388888888888889
2019-10-11,0.495049504950494
2019-10-14,0.537634408602147
2019-10-15,0.5483870967741922
2019-10-16,0.2999999999999987
2019-10-17,0.2686567164179077
2019-10-18,0.1551724137931057
2019-10-21,0.152542372881359
2019-10-22,0.10958904109589082
2019-10-23,0.06382978723404449
2019-10-24,0.1951219512195137
2019-10-25,0.10526315789473531
2019-10-28,0.2962962962962954
2019-10-29,0.382352941176467
2019-10-30,0.5416666666666574
2019-10-31,0.3478260869565169
2019-11-01,0.45714285714285674
2019-11-04,0.06060606060605648
2019-11-05,0.326086956521734
2019-11-06,0.2678571428571421
2019-11-07,0.30612244897959334
2019-11-08,0.30612244897959684
2019-11-11,0.5510204081632779
2019-11-12,0.521739130434794
2019-11-13,0.7567567567567695
2019-11-14,0.9200000000000046
2019-11-15,1.0
2019-11-18,1.0
2019-11-19,0.7659574468085154
2019-11-20,0.8225806451612941
2019-11-21,0.36190476190476767
2019-11-22,0.4682539682539728
2019-11-25,0.5620915032679745
2019-11-26,0.7133757961783432
2019-11-27,0.5098039215686259
2019-11-28,0.6964285714285711
2019-11-29,0.580645161290322
2019-12-02,0.5714285714285713
2019-12-03,0.27659574468085074
2019-12-04,0.5824175824175847
2019-12-05,0.5196078431372537
2019-12-06,0.48181818181817815
2019-12-09,0.290322580645159
2019-12-10,0.37499999999999545
2019-12-11,0.16666666666665772
2019-12-12,0.4339622641509293
2019-12-13,0.7118644067796552
2019-12-16,0.8276916938219031
2019-12-17,0.9853414055396617
2019-12-18,0.5247760076056568
2019-12-19,0.44579021636877225
2019-12-20,0.1950302270567601
2019-12-23,0.13549655850541206
2019-12-24,0.07999103071979065
2019-12-25,0.3483090925314658
2019-12-26,0.28390714658320826
2019-12-27,0.23728813559322467
2019-12-30,0.19718309859155453
2019-12-31,0.35227272727273085
2020-01-02,0.34482758620689863
2020-01-03,0.2857142857142872
2020-01-06,0.3555555555555519
2020-01-07,0.551724137931026
2020-01-08,0.30769230769229794
2020-01-09,0.28947368421050307
2020-01-10,0.49999999999998784
2020-01-13,0.5925925925926108
2020-01-14,0.8571428571428723
2020-01-15,0.6176470588235308
2020-01-16,0.4342105263157955
2020-01-17,0.6442307692307705
2020-01-20,0.576923076923072
2020-01-21,0.572815533980579
2020-01-22,0.7818181818181787
2020-01-23,0.929292929292923
2020-02-03,0.8169014084506908
2020-02-04,0.9589041095890377
2020-02-05,0.7516339869281023
2020-02-06,0.5432098765432077
2020-02-07,0.49696969696969484
2020-02-10,0.4823529411764705
2020-02-11,0.33834586466165506
2020-02-12,0.4411764705882352
2020-02-13,0.6865671641791053
2020-02-14,0.754098360655738
2020-02-17,0.9259259259259226
2020-02-18,0.037037037037040005
2020-02-19,0.034722222222225006
2020-02-20,0.24043715846994573
2020-02-21,0.2404371584699465
2020-02-24,0.2362637362637343
2020-02-25,0.8395061728395076
2020-02-26,0.9638554216867531
2020-02-27,0.5633802816901458
2020-02-28,0.7142857142857142
2020-03-02,0.8362573099415216
2020-03-03,0.7814569536423837
2020-03-04,0.7785234899328842
2020-03-05,0.9279999999999954
2020-03-06,0.6564885496183188
2020-03-09,0.10869565217391011
2020-03-10,0.11494252873563503
2020-03-11,6.690562620618019e-15
2020-03-12,0.11627906976745009
2020-03-13,0.6153846153846161
2020-03-16,0.6597938144329922
2020-03-17,0.5470085470085445
2020-03-18,0.6835443037974659
2020-03-19,0.8226950354609915
2020-03-20,0.8106060606060598
2020-03-23,0.9253731343283564
2020-03-24,1.0
2020-03-25,0.9249999999999996
2020-03-26,0.4611363641589124
2020-03-27,0.2943432900580127
2020-03-30,0.20782802864646538
2020-03-31,0.0038831898851374464
2020-04-01,0.15633610391512506
2020-04-02,0.5733351451437989
2020-04-03,0.827922976439531
2020-04-07,0.6808878454807389
2020-04-08,0.8264432801323941
2020-04-09,0.6236559139784964
2020-04-10,0.30038022813688203
2020-04-13,0.16666666666666766
2020-04-14,0.24882629107981333
2020-04-15,0.05687203791469203
2020-04-16,0.1575757575757577
2020-04-17,0.26262626262626315
2020-04-20,0.23853211009174374
2020-04-21,0.153061224489797
2020-04-22,0.3802816901408471
2020-04-23,0.224137931034484
2020-04-24,0.18571428571428797
2020-04-27,0.3250000000000042
2020-04-28,0.3000000000000027
2020-04-29,0.0
2020-04-30,0.0
2020-05-06,0.07692307692307981
2020-05-07,0.4050632911392393
2020-05-08,0.3678160919540226
2020-05-11,0.6909090909090857
2020-05-12,0.4634146341463396
2020-05-13,0.5268817204301036
2020-05-14,0.24137931034482293
2020-05-15,0.27848101265821834
2020-05-18,0.761506276150627
2020-05-19,0.910569105691057
2020-05-20,0.832669322709164
2020-05-21,0.8855932203389842
2020-05-22,0.9007352941176483
2020-05-25,0.3098039215686292
2020-05-26,0.15416666666666726
2020-05-27,0.2245762711864418
2020-05-28,0.23809523809523928
2020-05-29,0.14146341463414724
2020-06-01,0.5499999999999978
2020-06-02,1.0
2020-06-03,1.0
2020-06-04,1.0
2020-06-05,0.6524822695035454
2020-06-08,0.6878980891719756
2020-06-09,0.6370370370370395
2020-06-10,0.4817518248175212
2020-06-11,0.19642857142857587
2020-06-12,0.5684210526315818
2020-06-15,0.47435897435897306
2020-06-16,0.3465346534653455
2020-06-17,0.5111111111111116
2020-06-18,0.6835443037974672
2020-06-19,0.289473684210519
2020-06-22,0.2021276595744639
2020-06-23,0.2567567567567503
2020-06-24,0.08421052631578334
2020-06-29,0.0
2020-06-30,0.0
2020-07-01,0.0
2020-07-02,0.0
2020-07-03,0.33823529411764225
2020-07-06,0.43396226415093553
2020-07-07,0.4509803921568598
2020-07-08,0.6911764705882341
2020-07-09,0.8101265822784842
2020-07-10,0.6406250000000067
2020-07-13,0.8510638297872375
2020-07-14,0.9215686274509818
2020-07-15,0.6796116504854373
2020-07-16,0.6413043478260875
2020-07-17,0.6781609195402285
2020-07-20,0.2898550724637718
2020-07-21,0.2096774193548327
2020-07-22,0.3333333333333248
2020-07-23,0.3809523809523675
2020-07-24,0.7526881720430081
2020-07-27,0.9729729729729713
2020-07-28,0.8441558441558491
2020-07-29,0.9074074074074122
2020-07-30,0.8900000000000047
2020-07-31,0.6730769230769332
2020-08-03,0.8045977011494327
2020-08-04,0.7142857142857163
2020-08-05,0.3775510204081654
2020-08-06,0.35576923076923356
2020-08-07,0.2720588235294139
2020-08-10,0.0
2020-08-11,0.27647058823529463
2020-08-12,0.3309859154929589
2020-08-13,0.39726027397260344
2020-08-14,0.4566929133858269
2020-08-17,0.7142857142857203
2020-08-18,0.17567567567568276
2020-08-19,0.16455696202532158
2020-08-20,0.022988505747132938
2020-08-21,0.13157894736841916
2020-08-24,0.0941176470588152
2020-08-25,0.39393939393938104
2020-08-26,0.5588235294117566
2020-08-27,0.7599999999999878
2020-08-28,0.6818181818181713
2020-08-31,0.9577464788732378
2020-09-01,0.7042253521126778
2020-09-02,0.5757575757575792
2020-09-03,0.48502978469365515
2020-09-04,0.6814053880530221
2020-09-07,0.6480461395244692
2020-09-08,0.8238253925629845
2020-09-09,0.9214156028241403
2020-09-10,1.0
2020-09-11,0.8594079539842531
2020-09-14,0.5840737360788469
2020-09-15,0.5739085674552418
2020-09-16,0.3373493975903613
2020-09-17,0.1225806451612929
2020-09-18,0.14285714285714599
2020-09-21,0.4901960784313773
2020-09-22,0.28440366972477166
2020-09-23,0.2980769230769222
2020-09-24,0.43373493975903477
2020-09-25,0.3673469387755102
2020-09-28,0.05263157894737103
2020-09-29,0.06097560975610079
2020-09-30,0.07352941176471044
2020-10-09,0.2758620689655171
2020-10-12,0.3157894736842102
2020-10-13,0.4285714285714236
2020-10-14,0.5681818181818128
2020-10-15,0.7307692307692211
2020-10-16,0.2545454545454534
2020-10-19,0.4531249999999961
2020-10-20,0.4328358208955236
2020-10-21,0.49999999999999667
2020-10-22,0.31249999999999634
2020-10-23,0.6111111111111099
2020-10-26,0.4461538461538434
2020-10-27,0.5901639344262253
2020-10-28,0.4814814814814809
2020-10-29,0.7027027027027032
2020-10-30,0.3333333333333333
2020-11-02,0.36842105263158004
2020-11-03,0.20000000000001972
2020-11-04,0.15000000000001246
2020-11-05,0.3703703703703738
2020-11-06,0.21739130434782614
2020-11-09,0.6341463414634145
2020-11-10,0.7692307692307684
2020-11-11,0.7751937984496131
2020-11-12,0.738095238095242
2020-11-13,0.9083333333333388
2020-11-16,0.6836734693877595
2020-11-17,0.2222222222222253
2020-11-18,0.22857142857143012
2020-11-19,0.24242424242424063
2020-11-20,0.0
2020-11-23,0.5499999999999977
2020-11-24,0.5913978494623613
2020-11-25,0.6666666666666634
2020-11-26,0.7272727272727286
2020-11-27,0.8775510204081626
2020-11-30,0.49333333333333323
2020-12-01,0.5703703703703701
2020-12-02,0.6741573033707875
2020-12-03,0.6086956521739096
2020-12-04,0.5499999999999998
2020-12-07,0.9689440993788775
2020-12-08,0.9695121951219469
2020-12-09,0.9656607581003871
2020-12-10,1.0
2020-12-11,1.0
2020-12-14,0.877278772175332
2020-12-15,0.9019827646605476
2020-12-16,0.7373342231389906
2020-12-17,0.6025900575594844
2020-12-18,0.2428194049317254
2020-12-21,0.41788594864493317
2020-12-22,0.5288683602771361
2020-12-23,0.7172131147540984
2020-12-24,0.8227848101265838
2020-12-25,0.8944954128440361
2020-12-28,0.8912529550827417
2020-12-29,0.47702407002188313
2020-12-30,0.2539267015706824
2020-12-31,0.25587467362924154
2021-01-04,0.28323699421965226
2021-01-05,0.09339407744874602
2021-01-06,0.27046263345195554
2021-01-07,0.3977272727272747
2021-01-08,0.23970037453183907
2021-01-11,0.46408839779005656
2021-01-12,0.7972350230414762
2021-01-13,0.5655737704918044
2021-01-14,0.3303030303030291
2021-01-15,0.3875432525951526
2021-01-18,0.025236593059935225
2021-01-19,0.16486486486486276
2021-01-20,0.20833333333333048
2021-01-21,0.5056179775280877
2021-01-22,0.5182481751824816
2021-01-25,1.0
2021-01-26,0.6891891891891868
2021-01-27,0.7325581395348821
2021-01-28,0.6515151515151502
2021-01-29,0.6040609137055823
2021-02-01,0.2793296089385446
2021-02-02,0.5588235294117603
2021-02-03,0.26086956521738947
2021-02-04,0.13684210526315826
2021-02-05,0.13903743315508083
2021-02-08,0.3292682926829339
2021-02-09,0.21985815602837214
2021-02-10,0.2695652173913069
2021-02-18,0.6507936507936493
2021-02-19,0.8024691358024651
2021-02-22,0.902439024390241
2021-02-23,0.9080459770114923
2021-02-24,1.0
2021-02-25,1.0
2021-02-26,0.9189189189189192
2021-03-01,0.46520146520146693
2021-03-02,0.4285714285714302
2021-03-03,0.45519713261648614
2021-03-04,0.16610169491525117
2021-03-05,0.4215938303341873
2021-03-08,0.6721311475409828
2021-03-09,0.7718446601941743
2021-03-10,0.6741854636591494
2021-03-11,0.9166666666666683
2021-03-12,0.7242268041237153
2021-03-15,0.6557377049180381
2021-03-16,0.45357142857143007
2021-03-17,0.5141700404858319
2021-03-18,0.0
2021-03-19,0.0
2021-03-22,0.24313725490195812
2021-03-23,0.19999999999999823
2021-03-24,0.19254658385092935
2021-03-25,0.4127659574468014
2021-03-26,0.5358851674641089
2021-03-29,0.2994011976047895
2021-03-30,0.5882352941176626
2021-03-31,0.7674418604651354
2021-04-01,0.746835443037998
2021-04-02,0.7297297297297465
2021-04-06,0.30681818181816917
2021-04-07,0.5234374999999888
2021-04-08,0.5011203330203094
2021-04-09,0.3841836696238053
2021-04-12,0.5124858732115501
2021-04-13,0.8946519255184117
2021-04-14,0.5484133722614938
2021-04-15,0.5192033036348803
2021-04-16,0.5934212510012905
2021-04-19,0.31646772021905156
2021-04-20,0.04754403149071863
2021-04-21,0.21632653061225057
2021-04-22,0.27822580645162903
2021-04-23,0.19081272084806974
2021-04-26,0.5980707395498437
2021-04-27,0.7099236641221377
2021-04-28,0.6820083682008333
2021-04-29,0.7256317689530608
2021-04-30,0.9139072847682075
2021-05-06,0.6399999999999947
2021-05-07,0.7717842323651447
2021-05-10,0.8769574944071596
2021-05-11,0.892367906066537
2021-05-12,0.9005424954792047
2021-05-13,1.0
2021-05-14,1.0
2021-05-17,0.9797687861271696
2021-05-18,0.8045977011494264
2021-05-19,0.8048780487804893
2021-05-20,0.5840867992766744
2021-05-21,0.2633928571428595
2021-05-24,0.3564154786150719
2021-05-25,0.45103092783505216
2021-05-26,0.14882506527415007
2021-05-27,0.17168674698795078
2021-05-28,0.23949579831932424
2021-05-31,0.0
2021-06-01,0.42307692307692363
2021-06-02,0.4437367303609361
2021-06-03,0.46035242290749095
2021-06-04,0.4815618221258176
2021-06-07,0.6453488372093096
2021-06-08,0.03523035230352469
2021-06-09,0.04207119741100485
2021-06-10,0.03591160220994606
2021-06-11,0.0
2021-06-15,0.17344753747322667
2021-06-16,0.5337423312883391
2021-06-17,0.619937694704051
2021-06-18,0.7653846153846207
2021-06-21,0.9368421052631587
2021-06-22,0.4256292906178526
2021-06-23,0.22355769230769437
2021-06-24,0.1592505854800906
2021-06-25,0.19385342789597845
2021-06-28,0.0312500000000006
2021-06-29,0.20238095238095197
2021-06-30,0.27272727272726843
2021-07-01,0.2698412698412721
2021-07-02,0.167420814479639
2021-07-05,0.4347826086956498
2021-07-06,0.21153846153845618
2021-07-07,0.4678899082568863
2021-07-08,0.5737704918032859
2021-07-09,0.8446601941747583
2021-07-12,0.7050000000000037
2021-07-13,0.7305699481865252
2021-07-14,0.4260355029585763
2021-07-15,0.45197740112993007
2021-07-16,0.10185185185184545
2021-07-19,0.19540229885056978
2021-07-20,0.6896551724137967
2021-07-21,0.7999999999999937
2021-07-22,0.8571428571428532
2021-07-23,0.5119453924914708
2021-07-26,0.5431309904153374
2021-07-27,0.4016736401673595
2021-07-28,0.44239631336405566
2021-07-29,0.4829059829059814
2021-07-30,0.984042553191495
2021-08-02,0.9913544668587927
2021-08-03,0.9919137466307307
2021-08-04,1.0
2021-08-05,0.8655616942909745
2021-08-06,0.8522267206477714
2021-08-09,0.45559845559845474
2021-08-10,0.35551663747810874
2021-08-11,0.041516245487363775
2021-08-12,0.044315992292870136
2021-08-13,0.0
2021-08-16,0.0027624309392306544
2021-08-17,0.003134796238249198
2021-08-18,0.2688679245283067
2021-08-19,0.4844787592652436
2021-08-20,0.8529721058284485
2021-08-23,0.8082686265143114
2021-08-24,0.9502876412958504
2021-08-25,0.6520083413845504
2021-08-26,0.6149623892236382
2021-08-27,0.33181292362175174
2021-08-30,0.4988114227199742
2021-08-31,0.3288922051353599
2021-09-01,0.8000000000000044
2021-09-02,0.5490196078431439
2021-09-03,0.7030075187969985
2021-09-06,0.4729241877256358
2021-09-07,0.5057915057915094
2021-09-08,0.38755980861244194
2021-09-09,0.6792452830188674
2021-09-10,0.24555160142348398
2021-09-13,0.48028673835125135
2021-09-14,0.541401273885344
2021-09-15,0.515723270440246
2021-09-16,0.3196202531645517
2021-09-17,0.6141304347826071
2021-09-22,0.3839999999999893
2021-09-23,0.4761904761904799
2021-09-24,0.5472972972972994
2021-09-27,0.9693877551020347
2021-09-28,0.7841409691629894
2021-09-29,0.6899224806201624
2021-09-30,0.3738317757009369
2021-10-08,0.381538461538464
2021-10-11,0.044117647058823525
2021-10-12,0.3054187192118243
2021-10-13,0.5521023765996329
2021-10-14,0.7549407114624489
2021-10-15,0.7369477911646583
2021-10-18,0.9836829836829858
2021-10-19,0.8505434782608745
2021-10-20,0.4245283018867973
2021-10-21,0.6520912547528561
2021-10-22,0.7016949152542401
2021-10-25,0.6949740034662057
2021-10-26,0.7317518248175183
2021-10-27,0.9646182495344514
2021-10-28,0.9090909090909003
2021-10-29,0.878947368421041
2021-11-01,0.8544303797468237
2021-11-02,0.9885714285714208
2021-11-03,0.6755162241887822
2021-11-04,0.43869731800766276
2021-11-05,0.39748201438848857
2021-11-08,0.3909090909090888
2021-11-09,0.007285974499087457
2021-11-10,0.10408163265305913
2021-11-11,0.19230769230768485
2021-11-12,0.23076923076922642
2021-11-15,0.161202185792349
2021-11-16,0.4226190476190506
2021-11-17,0.09448818897637917
2021-11-18,0.04310344827586688
2021-11-19,0.1897810218978119
2021-11-22,0.3789473684210556
2021-11-23,0.39331619537275136
2021-11-24,0.695266272189352
2021-11-25,0.7912457912457891
2021-11-26,0.4366925064599468
2021-11-29,0.2493946731234845
2021-11-30,0.1690721649484533
2021-12-01,0.0
2021-12-02,0.01600000000000091
2021-12-03,0.1004713417114889
2021-12-06,0.2731002901704755
2021-12-07,0.7626198756454918
2021-12-08,0.7684142463550679
2021-12-09,0.8271862601382074
2021-12-10,0.7488728724865108
2021-12-13,0.7155992299997455
2021-12-14,0.3962147963213989
2021-12-15,0.3896667716404482
2021-12-16,0.037037037037022234
2021-12-17,0.03636363636362177
2021-12-20,0.28378378378378394
2021-12-21,0.4523809523809648
2021-12-22,0.5816326530612396
2021-12-23,0.5089285714286076
2021-12-24,0.5480769230769557
2021-12-27,0.6016949152542532
2021-12-28,0.42424242424242664
2021-12-29,0.35668789808916773
2021-12-30,0.6305732484076336
2021-12-31,0.5928143712574758
2022-01-04,0.17768595041322155
2022-01-05,0.26724137931034453
2022-01-06,0.33486238532110313
2022-01-07,0.13333333333333636
2022-01-10,0.15813953488372545
2022-01-11,0.44444444444445125
2022-01-12,0.20000000000000662
2022-01-13,0.15151515151516382
2022-01-14,0.4603174603174694
2022-01-17,0.7671232876712281
2022-01-18,0.6424242424242352
2022-01-19,0.869791666666664
2022-01-20,0.7330316742081419
2022-01-21,0.6607142857142799
2022-01-24,0.34857142857142964
2022-01-25,0.47953216374268703
2022-01-26,0.1735537190082531
2022-01-27,0.5111111111111039
2022-01-28,0.7461139896373061
2022-02-07,0.7272727272727277
2022-02-08,0.7326732673267371
2022-02-09,0.7990654205607514
2022-02-10,0.7624309392265234
2022-02-11,0.5338983050847446
2022-02-14,0.8928571428571348
2022-02-15,0.8878504672897095
2022-02-16,0.6371681415929122
2022-02-17,0.6132075471697963
2022-02-18,0.6947368421052563
2022-02-21,0.3258426966291973
2022-02-22,0.17808219178079596
2022-02-23,0.24074074074070773
2022-02-24,0.3492063492063519
2022-02-25,0.26582278481012883
2022-02-28,0.7969924812030155
2022-03-01,0.7338129496402969
2022-03-02,0.7669172932330898
2022-03-03,0.6538461538461584
2022-03-04,0.8453038674033134
2022-03-07,0.7925925925925897
2022-03-08,0.936170212765955
2022-03-09,0.9536423841059594
2022-03-10,0.9795918367346949
2022-03-11,0.7213114754098349
2022-03-14,0.6557971014492718
2022-03-15,0.08163265306123108
2022-03-16,0.18918918918918648
2022-03-17,0.16666666666666385
2022-03-18,0.19626168224298854
2022-03-21,0.15671641791044563
2022-03-22,0.2307692307692261
2022-03-23,0.0
2022-03-24,0.0
2022-03-25,0.1406844106463848
2022-03-28,0.18686868686868435
2022-03-29,0.23124999999999826
2022-03-30,0.6022727272727284
2022-03-31,0.7463701840631103
2022-04-01,0.6569374106003849
2022-04-06,0.925984218474172
2022-04-07,1.0
2022-04-08,1.0
2022-04-11,1.0
2022-04-12,1.0
2022-04-13,0.9017814003731669
2022-04-14,0.762826599148993
2022-04-15,0.4975124378109426
2022-04-18,0.12663755458515424
2022-04-19,0.0
2022-04-20,0.03361344537815916
2022-04-21,0.1223628691983216
2022-04-22,0.301886792452837
2022-04-25,0.7905982905982961
2022-04-26,0.9685863874345478
2022-04-27,0.8349056603773475
2022-04-28,0.7058823529411649
2022-04-29,0.6237113402061778
2022-05-05,0.0
2022-05-06,0.33660130718954334
2022-05-09,0.4596273291925483
2022-05-10,0.5541795665634717
2022-05-11,0.5815384615384627
2022-05-12,1.0
2022-05-13,0.6177777777777702
2022-05-16,0.46305418719210956
2022-05-17,0.2812499999999878
2022-05-18,0.23981900452487862
2022-05-19,0.0
2022-05-20,0.0
2022-05-23,0.33333333333333
2022-05-24,0.7033492822966523
2022-05-25,0.6681818181818199
2022-05-26,0.6533333333333315
2022-05-27,0.7461928934010243
2022-05-30,0.3896103896103984
2022-05-31,0.0
2022-06-01,0.0
2022-06-02,0.07329842931937156
2022-06-06,0.06930693069306788
2022-06-07,0.1339285714285616
2022-06-08,0.5166666666666415
2022-06-09,0.7045454545454234
2022-06-10,0.4857142857142439
2022-06-13,0.9358974358974306
2022-06-14,0.9637681159420264
2022-06-15,0.8013698630136952
2022-06-16,0.838888888888886
2022-06-17,0.8995815899581583
2022-06-20,0.9314285714285713
2022-06-21,0.9225806451612901
2022-06-22,1.0
2022-06-23,1.0
2022-06-24,0.7936507936507942
2022-06-27,0.37047353760445606
2022-06-28,0.282828282828284
2022-06-29,0.0376884422110573
2022-06-30,0.0
2022-07-01,0.06613756613756502
2022-07-04,0.18326693227091678
2022-07-05,0.4189723320158091
2022-07-06,0.7272727272727195
2022-07-07,0.9696969696969754
2022-07-08,0.966942148760337
2022-07-11,0.9797979797979837
2022-07-12,0.9736842105263208
2022-07-13,0.9264705882353019
2022-07-14,0.9685863874345566
2022-07-15,0.9760956175298816
2022-07-18,0.7067307692307715
2022-07-19,0.5964125560538136
2022-07-20,0.7010676156583644
2022-07-21,0.5000000000000014
2022-07-22,0.209836065573772
2022-07-25,0.16666666666666743
2022-07-26,0.16000000000000084
2022-07-27,0.0
2022-07-28,0.2636165577342056
2022-07-29,0.3333333333333333
2022-08-01,0.6014760147601473
2022-08-02,0.722466960352422
2022-08-03,0.9625668449197821
2022-08-04,0.36874999999999336
2022-08-05,0.5078534031413573
2022-08-08,0.43373493975903277
2022-08-09,0.40804597701149053
2022-08-10,0.2644230769230787
2022-08-11,0.4583333333333382
2022-08-12,0.11971830985915859
2022-08-15,0.0
2022-08-16,0.046874999999997245
2022-08-17,0.6086956521739116
2022-08-18,0.622222222222221
2022-08-19,0.955801104972373
2022-08-22,0.83980582524272
2022-08-23,0.8366336633663385
2022-08-24,0.30882352941176616
2022-08-25,0.26694915254237384
2022-08-26,0.010362694300518147
2022-08-29,0.359999999999999
2022-08-30,0.3384615384615374
2022-08-31,0.5465838509316768
2022-09-01,0.7888971751509863
2022-09-02,0.8828891112795516
2022-09-05,0.3685971918789938
2022-09-06,0.367921894467527
2022-09-07,0.46040419621991674
2022-09-08,0.1858059157520179
2022-09-09,0.10628643308239018
2022-09-13,0.1458481614201597
2022-09-14,0.2914010823812395
2022-09-15,0.317460317460318
2022-09-16,0.4868421052631604
2022-09-19,0.6964285714285762
2022-09-20,1.0
2022-09-21,0.752808988764043
2022-09-22,0.6451612903225802
2022-09-23,0.3023255813953467
2022-09-26,0.3814432989690704
2022-09-27,0.36842105263157876
2022-09-28,0.39325842696629126
2022-09-29,0.21088435374149633
2022-09-30,0.43884892086330635
2022-10-10,0.27710843373493566
2022-10-11,0.40298507462686334
2022-10-12,0.4799999999999975
2022-10-13,0.7666666666666639
2022-10-14,0.7529411764705872
2022-10-17,1.0
2022-10-18,0.6698564593301439
2022-10-19,0.6188118811881211
2022-10-20,0.4535519125683099
2022-10-21,0.3662790697674434
2022-10-24,0.0
2022-10-25,0.0
2022-10-26,0.06315789473684144
2022-10-27,0.07894736842105157
2022-10-28,0.31460674157303464
2022-10-31,0.7160493827160499
2022-11-01,0.9687499999999992
2022-11-02,0.9007633587786267
2022-11-03,0.9007633587786267
2022-11-04,0.8727272727272726
2022-11-07,0.7415730337078663
2022-11-08,0.0
2022-11-09,0.0
2022-11-10,0.04878048780487864
2022-11-11,0.3000000000000023
2022-11-14,0.2598425196850406
2022-11-15,0.43999999999999656
2022-11-16,0.49333333333332696
2022-11-17,0.5365853658536499
2022-11-18,0.1094890510948846
2022-11-21,0.3093525179856055
2022-11-22,0.4437086092715206
2022-11-23,0.41176470588235203
2022-11-24,0.3793103448275904
2022-11-25,0.9381443298969091
2022-11-28,0.6363636363636417
2022-11-29,0.46428571428572063
2022-11-30,0.43333333333334056
2022-12-01,0.327272727272728
2022-12-02,0.0975609756097612
2022-12-05,0.5768518243330238
2022-12-06,0.6148907298580177
2022-12-07,0.7818128273258086
2022-12-08,0.973439019516418
2022-12-09,0.9744649132693298
2022-12-12,0.4693013575516788
2022-12-13,0.5936347068498065
2022-12-14,0.3787227908317746
2022-12-15,0.5278199278002083
2022-12-16,0.6811594202898571
2022-12-19,0.9257641921397379
2022-12-20,0.84931506849315
2022-12-21,0.9344262295081961
2022-12-22,0.8458149779735645
2022-12-23,0.4448818897637788
2022-12-26,0.18025751072961244
2022-12-27,0.24242424242424182
2022-12-28,0.061946902654867984
2022-12-29,0.0645161290322592
2022-12-30,0.1709401709401708
2023-01-03,0.2777777777777799
2023-01-04,0.07594936708860532
2023-01-05,0.13636363636363405
2023-01-06,0.5555555555555542
2023-01-09,0.4202898550724604
2023-01-10,0.2989690721649441
2023-01-11,0.42682926829267576
2023-01-12,0.45121951219511375
2023-01-13,0.10389610389609973
2023-01-16,0.1176470588235255
2023-01-17,0.5423728813559442
2023-01-18,0.5000000000000231
2023-01-19,0.32894736842107486
2023-01-20,0.3333333333333632
2023-01-30,0.49462365591400137
2023-01-31,0.48913043478260854
2023-02-01,0.6269841269841246
2023-02-02,0.8544303797468408
2023-02-03,1.0
2023-02-06,0.9642857142857141
2023-02-07,0.8421052631579011
2023-02-08,0.7777777777777929
2023-02-09,0.2692307692307642
2023-02-10,0.13636363636364904
2023-02-13,0.13636363636365081
2023-02-14,0.32786885245903896
2023-02-15,0.20618556701031915
2023-02-16,0.5483870967741926
2023-02-17,0.3589743589743485
2023-02-20,0.3414634146341299
2023-02-21,0.20805369127514928
2023-02-22,0.26956521739127937
2023-02-23,0.0
2023-02-24,0.10344827586208988
2023-02-27,0.14102564102567341
2023-02-28,0.23404255319157333
2023-03-01,0.24444444444453714
2023-03-02,0.2820512820513679
2023-03-03,0.2820512820513064
2023-03-06,0.5409836065574003
2023-03-07,0.6393442622950533
2023-03-08,0.5735294117646496
2023-03-09,0.9230769230768997
2023-03-10,0.7699115044247544
2023-03-13,0.5675675675675471
2023-03-14,0.6363636363636272
2023-03-15,0.7419354838709721
2023-03-16,0.6330275229357889
2023-03-17,0.8439716312056801
2023-03-20,1.0
2023-03-21,0.909836065573774
2023-03-22,0.8000000000000049
2023-03-23,0.7500000000000118
2023-03-24,0.42222222222221456
2023-03-27,0.0
2023-03-28,0.0
2023-03-29,0.0
2023-03-30,0.0
2023-03-31,0.0
2023-04-03,0.4375000000000015
2023-04-04,0.5121951219512241
2023-04-06,0.6266810124357136
2023-04-07,0.8231875725125142
2023-04-10,1.0
2023-04-11,0.6443622276200015
2023-04-12,0.5823284643766501
2023-04-13,0.5870263734463412
2023-04-14,0.5810226342963939
2023-04-17,0.15303807775052805
2023-04-18,0.20315223937367077
2023-04-19,0.2026143790849645
2023-04-20,0.05844155844155374
2023-04-21,0.11585365853658297
2023-04-24,0.6052631578947358
2023-04-25,0.7823129251700658
2023-04-26,0.854430379746834
2023-04-27,1.0
2023-04-28,0.8238636363636362
2023-05-04,0.4444444444444467
2023-05-05,0.4797687861271673
2023-05-08,0.6218487394957957
2023-05-09,0.49999999999999917
2023-05-10,0.5963302752293593
2023-05-11,0.8644859813084148
2023-05-12,0.7294685990338198
2023-05-15,0.4489795918367401
2023-05-16,0.623188405797103
2023-05-17,0.623188405797103
2023-05-18,0.23134328358209122
2023-05-19,0.3719008264462816
2023-05-22,0.4166666666666659
2023-05-23,0.24271844660194408
2023-05-24,0.39062499999999567
2023-05-25,0.6707317073170707
2023-05-26,0.7326732673267322
2023-05-29,0.52857142857143
2023-05-30,0.6408450704225338
2023-05-31,0.33132530120481796
2023-06-01,0.41269841269841034
2023-06-02,0.2777777777777739
2023-06-05,0.4923076923076875
2023-06-06,0.3507462686567137
2023-06-07,0.7589285714285752
2023-06-08,0.41911764705882865
2023-06-09,0.34337349397590555
2023-06-12,0.32298136645963227
2023-06-13,0.5243243243243267
2023-06-14,0.29499999999999876
2023-06-15,0.4066666666666615
2023-06-16,0.429577464788729
2023-06-19,0.29374999999999507
2023-06-20,0.01379310344827316
2023-06-21,0.1588785046728973
2023-06-26,0.11904761904762115
2023-06-27,0.4275862068965468
2023-06-28,0.48437500000000017
2023-06-29,0.5391304347826134
2023-06-30,0.5092592592592612
2023-07-03,0.7500000000000113
2023-07-04,0.35507246376812435
2023-07-05,0.37121212121212654
2023-07-06,0.422413793103451
2023-07-07,0.5562913907284794
2023-07-10,0.34677419354838984
2023-07-11,0.657142857142859
2023-07-12,0.7540983606557419
2023-07-13,0.6969696969696989
2023-07-14,0.03797468354430073
2023-07-17,0.36082474226803535
2023-07-18,0.4561403508771881
2023-07-19,0.4521739130434694
2023-07-20,0.5128205128205046
2023-07-21,0.9873417721518858
2023-07-24,0.4893617021276532
2023-07-25,0.633587786259538
2023-07-26,0.6412213740458031
2023-07-27,0.7006369426751621
2023-07-28,0.6987179487179496
2023-07-31,1.0
2023-08-01,0.4428571428571438
2023-08-02,0.48684210526316357
2023-08-03,0.30769230769231154
2023-08-04,0.1742424242424368
2023-08-07,0.09629629629630775
2023-08-08,0.4942528735632362
2023-08-09,0.3947368421052665
2023-08-10,0.40000000000000874
2023-08-11,0.41095890410959107
2023-08-14,0.6296296296296267
2023-08-15,0.33870967741934677
2023-08-16,0.2441860465116268
2023-08-17,0.3076923076923028
2023-08-18,0.3636363636363524
2023-08-21,0.05263157894736341
2023-08-22,0.33846153846153526
2023-08-23,0.7343749999999909
2023-08-24,0.7874999999999938
2023-08-25,0.8400000000000032
2023-08-28,1.0
2023-08-29,0.7022900763358719
2023-08-30,0.5275590551181055
2023-08-31,0.3966942148760269
2023-09-01,0.5321664472630123
2023-09-04,0.22703763391478224
2023-09-05,0.3966673251449722
2023-09-06,0.48694994747865117
2023-09-07,0.5375629043853459
2023-09-08,0.3005391130532585
2023-09-11,0.9264757480067151
2023-09-12,0.4814662485219088
2023-09-13,0.6705488674595455
2023-09-14,0.46534653465345066
2023-09-15,0.3357142857142773
2023-09-18,0.2013888888888851
2023-09-19,0.38709677419354455
2023-09-20,0.19135802469135735
2023-09-21,0.5219512195121991
2023-09-22,0.6666666666666713
2023-09-25,0.791907514450871
2023-09-26,0.7583892617449709
2023-09-27,1.0
2023-09-28,0.38095238095238126
2023-10-09,0.30693069306930837
2023-10-10,0.10752688172042886
2023-10-11,0.02884615384615457
2023-10-12,0.09821428571428333
2023-10-13,0.21568627450980016
2023-10-16,0.5333333333333306
2023-10-17,0.45454545454544776
2023-10-18,0.5263157894736663
2023-10-19,0.4626865671641656
2023-10-20,0.6279069767441746
2023-10-23,0.28409090909090406
2023-10-24,0.5842696629213436
2023-10-25,0.6516853932584279
2023-10-26,0.5333333333333322
2023-10-27,0.388235294117652
2023-10-30,0.5322580645161407
2023-10-31,0.11538461538461771
2023-11-01,0.0
2023-11-02,0.0961538461538395
2023-11-03,0.09259259259258416
2023-11-06,0.2545454545454354
2023-11-07,0.3181818181818033
2023-11-08,0.830769230769233
2023-11-09,0.8253968253968313
2023-11-10,0.6666666666666702
2023-11-13,0.7173913043478327
2023-11-14,0.7849462365591369
2023-11-15,0.611111111111111
2023-11-16,0.7374999999999929
2023-11-17,0.988764044943823
2023-11-20,0.985074626865675
2023-11-21,0.9868421052631613
2023-11-22,0.7731958762886599
2023-11-23,0.7684210526315822
2023-11-24,0.7215189873417746
2023-11-27,0.5773195876288704
2023-11-28,0.48780487804877876
2023-11-29,0.49382716049382375
2023-11-30,0.1585365853658529
2023-12-01,0.0
2023-12-04,0.18292758258577632
2023-12-05,0.1455028525154001
2023-12-06,0.39551556281365424
2023-12-07,0.5870359978400418
2023-12-08,0.815989266106374
2023-12-11,0.7780945757997245
2023-12-12,0.9843630488737649
2023-12-13,0.9831842493448069
2023-12-14,0.6148148148148054
2023-12-15,0.4678899082568747
2023-12-18,0.3834586466165356
2023-12-19,0.27419354838709853
2023-12-20,0.0
2023-12-21,0.07339449541284603
2023-12-22,0.06611570247934001
2023-12-25,0.0833333333333362
2023-12-26,0.08602150537634752
2023-12-27,0.19512195121952572
2023-12-28,0.029411764705896924
2023-12-29,0.03225806451614567
2024-01-02,0.5468750000000087
2024-01-03,0.6619718309859133
2024-01-04,0.7230769230769147
2024-01-05,0.7931034482758554
2024-01-08,0.9659090909090849
2024-01-09,0.5312499999999885
2024-01-10,0.5360824742267949
2024-01-11,0.6249999999999937
2024-01-12,0.3405797101449169
2024-01-15,0.31578947368420934
2024-01-16,0.509999999999996
2024-01-17,0.449438202247193
2024-01-18,0.28205128205128954
2024-01-19,0.7096774193548183
2024-01-22,0.26829268292684166
2024-01-23,0.21052631578949485
2024-01-24,0.10000000000000112
2024-01-25,0.08823529411764998
2024-01-26,0.09090909090911743
2024-01-29,0.18749999999999756
2024-01-30,0.3275862068965445
2024-01-31,0.634146341463419
2024-02-01,0.9629629629629456
2024-02-02,0.9857142857142789
2024-02-05,0.8918918918918879
2024-02-06,0.7042253521126812
2024-02-07,0.5733333333333324
2024-02-08,0.5584415584415632
2024-02-19,0.3200000000000104
2024-02-20,0.6538461538461622
2024-02-21,0.8852459016393434
2024-02-22,0.9756097560975641
2024-02-23,1.0
2024-02-26,0.7375886524822701
2024-02-27,0.6890756302521033
2024-02-28,0.18382352941176863
2024-02-29,0.09629629629630025
2024-03-01,0.21290322580645193
2024-03-04,0.30327868852459094
2024-03-05,0.18604651162790364
2024-03-06,0.47457627118642953
2024-03-07,0.6666666666666576
2024-03-08,0.35087719298244935
2024-03-11,0.4999999999999946
2024-03-12,0.5362318840579691
2024-03-13,0.7037037037037089
2024-03-14,0.748031496062996
2024-03-15,0.8760330578512425
2024-03-18,0.8872180451127846
2024-03-19,1.0
2024-03-20,0.7661290322580612
2024-03-21,0.6274509803921569
2024-03-22,0.563829787234038
2024-03-25,0.17391304347826145
2024-03-26,0.14414414414413837
2024-03-27,0.3333333333333333
2024-03-28,0.5249999999999955
2024-03-29,0.6016661287719838
2024-04-01,1.0
2024-04-02,0.8131960687339385
2024-04-03,0.7864386174516261
2024-04-08,0.7149008129380681
2024-04-09,0.593371449848953
2024-04-10,0.0
2024-04-11,0.0
2024-04-12,0.0
2024-04-15,0.0
2024-04-16,0.0
2024-04-17,0.12213740458016104
2024-04-18,0.2083333333333413
2024-04-19,0.26595744680851824
2024-04-22,0.5208333333333371
2024-04-23,0.7777777777777827
2024-04-24,0.47999999999998827
2024-04-25,0.14285714285714798
2024-04-26,0.31818181818182206
2024-04-29,0.41176470588233066
2024-04-30,0.7435897435897137
2024-05-06,0.8648648648648473
2024-05-07,0.8888888888888666
2024-05-08,0.9344262295081833
2024-05-09,0.8507462686567193
2024-05-10,0.5161290322580747
2024-05-13,0.3918918918918999
2024-05-14,0.5444444444444544
2024-05-15,0.1980198019802031
2024-05-16,0.4680851063829845
2024-05-17,0.48175182481752166
2024-05-20,0.5692307692307688
2024-05-21,0.38297872340425165
2024-05-22,0.6466165413533772
2024-05-23,0.3053435114503745
2024-05-24,0.34188034188033567
2024-05-27,0.2539682539682515
2024-05-28,0.4661016949152534
2024-05-29,0.20353982300884754
2024-05-30,0.6377952755905479
2024-05-31,0.6764705882352884
2024-06-03,0.7804878048780446
2024-06-04,0.6083333333333332
2024-06-05,0.7849462365591444
2024-06-06,0.21739130434783202
2024-06-07,0.2173913043478413
2024-06-11,0.18181818181817533
2024-06-12,0.23999999999998975
2024-06-13,0.3333333333333383
2024-06-14,0.5000000000000108
2024-06-17,0.25806451612903125
2024-06-18,0.20000000000002333
2024-06-19,0.5000000000000085
2024-06-20,0.47826086956521285
2024-06-21,0.6470588235294074
2024-06-24,0.511627906976761
2024-06-25,0.4150943396226544
2024-06-26,0.22500000000000903
2024-06-27,0.08333333333333781
2024-06-28,0.07017543859649276
2024-07-01,0.14893617021276984
2024-07-02,0.21875000000000114
2024-07-03,0.32432432432431896
2024-07-04,0.5384615384615149
2024-07-05,1.0
2024-07-08,1.0
2024-07-09,1.0
2024-07-10,0.7671232876712273
2024-07-11,0.8172043010752658
2024-07-12,0.5520833333333329
2024-07-15,0.49411764705882943
2024-07-16,0.44444444444445436
2024-07-17,0.7027027027027131
2024-07-18,0.51851851851853
2024-07-19,0.694117647058831
2024-07-22,0.3693693693693677
2024-07-23,0.556338028169012
2024-07-24,0.27702702702702475
2024-07-25,0.4666666666666632
2024-07-26,0.5789473684210512
2024-07-29,0.7441860465116283
2024-07-30,0.7647058823529407
2024-07-31,1.0
2024-08-01,1.0
2024-08-02,0.8854961832061086
2024-08-05,0.897260273972605
2024-08-06,0.5270270270270313
2024-08-07,0.21014492753623595
2024-08-08,0.174242424242428
2024-08-09,0.2419354838709678
2024-08-12,0.16814159292034875
2024-08-13,0.44285714285713323
2024-08-14,1.0
2024-08-15,1.0
2024-08-16,1.0
2024-08-19,0.960451977401128
2024-08-20,0.9461077844311379
2024-08-21,0.5000000000000018
2024-08-22,0.30833333333333557
2024-08-23,0.0
2024-08-26,0.35121951219512465
2024-08-27,0.37019230769230954
2024-08-28,0.3989637305699504
2024-08-29,0.4147168411944425
2024-08-30,0.6284712473450602
2024-09-02,0.12526848094330456
2024-09-03,0.1976268940151998
2024-09-04,0.41359815480510864
2024-09-05,0.5399923938512837
2024-09-06,0.6759533883657568
2024-09-09,1.0
2024-09-10,0.7859439570396223
2024-09-11,0.7988505747126433
2024-09-12,0.7365269461077836
2024-09-13,0.3426966292134823
2024-09-18,0.21794871794871853
2024-09-19,0.3958333333333334
2024-09-20,0.1755725190839686
2024-09-23,0.18699186991869807
2024-09-24,0.8124999999999972
2024-09-25,0.622340425531913
2024-09-26,0.5497076023391789
2024-09-27,0.5433526011560694
2024-09-30,0.7650602409638558
2024-10-08,0.8235294117647058
2024-10-09,0.9322429906542061
2024-10-10,0.9498910675381275
2024-10-11,1.0
2024-10-14,0.6739659367396599
2024-10-15,0.14313725490196227
2024-10-16,0.07350096711798912
2024-10-17,0.14311270125223566
2024-10-18,0.21475409836065576
2024-10-21,0.24531835205992508
2024-10-22,0.6124031007751931
2024-10-23,0.7214611872146119
2024-10-24,0.28315412186379896
2024-10-25,0.09926470588235187
2024-10-28,0.34843205574912833
2024-10-29,0.2786259541984738
2024-10-30,0.31868131868131955
2024-10-31,0.576158940397352
2024-11-01,0.7131147540983633
2024-11-04,0.1794871794871817
2024-11-05,0.14432989690721743
2024-11-06,0.17821782178217696
2024-11-07,0.4159292035398205
2024-11-08,0.6428571428571398
2024-11-11,0.7142857142857121
2024-11-12,0.8411214953271049
2024-11-13,0.6050420168067233
2024-11-14,0.41747572815534106
2024-11-15,0.0
2024-11-18,0.04347826086956982
2024-11-19,0.20987654320987717
2024-11-20,0.20987654320987717
2024-11-21,0.20000000000000112
2024-11-22,0.2463768115942052
2024-11-25,0.18421052631578783
2024-11-26,0.0
2024-11-27,0.19999999999999873
2024-11-28,0.303571428571421
2024-11-29,0.23287671232876134
2024-12-02,0.3134328358208884
2024-12-03,0.3962264150943309
2024-12-04,0.2888888888888773
2024-12-05,0.6321839080459775
2024-12-06,0.6605329622184394
2024-12-09,0.5811042104748374
2024-12-10,0.8046916596197797
2024-12-11,0.7483904753103531
2024-12-12,0.39901762496388327
2024-12-13,0.5643679068910133
2024-12-16,0.5276854519043754
2024-12-17,0.1896032831737348
2024-12-18,0.2815620458487651
2024-12-19,0.5063291139240517
2024-12-20,0.2797619047619061
2024-12-23,0.37267080745341885
2024-12-24,0.5904761904761925
2024-12-25,0.3553719008264488
2024-12-26,0.1351351351351374
2024-12-27,0.436170212765962
2024-12-30,0.3414634146341494
2024-12-31,0.36470588235294343
