date,FCT_Cr_Atr_Dfive
2019-08-09,
2019-08-12,
2019-08-13,
2019-08-14,
2019-08-15,
2019-08-16,
2019-08-19,
2019-08-20,
2019-08-21,
2019-08-22,
2019-08-23,0.126777983920841
2019-08-26,0.2951690821256038
2019-08-27,0.38823310716609355
2019-08-28,0.13178807947019877
2019-08-29,0.6465517241379308
2019-08-30,0.15263748597081933
2019-09-02,-0.12545219638242877
2019-09-03,-0.16522464296883155
2019-09-04,0.27142857142857135
2019-09-05,-0.7097560975609755
2019-09-06,-0.09876543209876541
2019-09-09,-0.19335122242098995
2019-09-10,0.11523872350952424
2019-09-11,-0.43349753694581283
2019-09-12,0.09760656485069534
2019-09-16,0.3844054580896687
2019-09-17,0.101963141025641
2019-09-18,-0.163390365246936
2019-09-19,0.33286542569423244
2019-09-20,0.25264540047887546
2019-09-23,-0.6154843630816172
2019-09-24,0.029161509900990132
2019-09-25,0.07130081300813011
2019-09-26,-0.06069545007598098
2019-09-27,-0.3204958677685952
2019-09-30,0.29250618593142474
2019-10-08,0.23609146628948607
2019-10-09,0.009999999999999964
2019-10-10,0.009316465627145203
2019-10-11,0.2276190476190477
2019-10-14,0.01197339246119724
2019-10-15,-0.47180451127819556
2019-10-16,-0.10465116279069761
2019-10-17,-0.09733955365023325
2019-10-18,-0.06170355466130109
2019-10-21,-0.07922077922077922
2019-10-22,0.5888976171772715
2019-10-23,0.09354005167958654
2019-10-24,0.04421421275353859
2019-10-25,-0.04405502784146746
2019-10-28,0.005820105820105816
2019-10-29,-0.5484117872177573
2019-10-30,0.04336917562724013
2019-10-31,-0.01316713483146071
2019-11-01,0.05813953488372093
2019-11-04,-0.028536733454766185
2019-11-05,0.36302294197031026
2019-11-06,0.1344086021505377
2019-11-07,0.18973214285714304
2019-11-08,0.28409090909090906
2019-11-11,0.10982155810242267
2019-11-12,-0.18331846565566456
2019-11-13,-0.218840579710145
2019-11-14,-0.11533420707732651
2019-11-15,-0.43587662337662325
2019-11-18,0.2820680018630647
2019-11-19,0.08891579230562292
2019-11-20,0.11933809214795588
2019-11-21,-0.11843202668890737
2019-11-22,0.2748626373626373
2019-11-25,-0.3811103100216293
2019-11-26,-0.14320220841959988
2019-11-27,-0.13015630508872952
2019-11-28,0.1497326203208556
2019-11-29,-0.2659340659340658
2019-12-02,-0.14890918315575863
2019-12-03,0.021570610043815407
2019-12-04,0.2481773111694371
2019-12-05,0.21200980392156868
2019-12-06,0.20023419203747073
2019-12-09,0.2579672695951766
2019-12-10,0.10225718194254443
2019-12-11,-0.29786124152321336
2019-12-12,-0.48511904761904756
2019-12-13,-0.050478656871251255
2019-12-16,-0.057305951859622055
2019-12-17,-0.09637172173227515
2019-12-18,0.1309832786042927
2019-12-19,0.23226380760171905
2019-12-20,-0.0877064731171595
2019-12-23,-0.11783673491097156
2019-12-24,0.15225407467345703
2019-12-25,-0.15467085862990113
2019-12-26,-0.11008335647389775
2019-12-27,0.051822573561710494
2019-12-30,0.24028210595374605
2019-12-31,-0.15333333333333649
2020-01-02,0.2349551856594117
2020-01-03,0.10492577597840368
2020-01-06,0.10493487433497681
2020-01-07,-0.10763827919226872
2020-01-08,0.37891472868216775
2020-01-09,-0.12490733876946124
2020-01-10,-0.012820512820508802
2020-01-13,0.050176759037520474
2020-01-14,0.00423529411764096
2020-01-15,-0.6169199780260024
2020-01-16,0.048538011695910065
2020-01-17,0.01086956521738755
2020-01-20,-0.3411798895669843
2020-01-21,0.24427397260274308
2020-01-22,0.35655597398150846
2020-01-23,-0.05283446712018318
2020-02-03,0.46281464530893
2020-02-04,0.44362519201228595
2020-02-05,-0.3009716470213431
2020-02-06,-0.053096179183128166
2020-02-07,0.04258829280215163
2020-02-10,-0.7281220803488044
2020-02-11,-0.40317460317459747
2020-02-12,-0.09391771019678255
2020-02-13,-0.001010101010105095
2020-02-14,0.042969007040863844
2020-02-17,0.2544378698224824
2020-02-18,0.03918650793649933
2020-02-19,0.03822984244670839
2020-02-20,0.06888888888889089
2020-02-21,0.4388821055487734
2020-02-24,0.09090909090909473
2020-02-25,0.3096590909090986
2020-02-26,0.25122425184609576
2020-02-27,-0.01296089385475041
2020-02-28,-0.5880679981901671
2020-03-02,-0.1198108250131381
2020-03-03,-0.2635281385281415
2020-03-04,-0.056799493991142994
2020-03-05,-0.1563248204309628
2020-03-06,0.009273517434900652
2020-03-09,0.3003303055326158
2020-03-10,0.15108346709470394
2020-03-11,-0.19856831621537782
2020-03-12,0.21281512605041986
2020-03-13,0.08496732026143808
2020-03-16,-0.38137621540762734
2020-03-17,-0.11473892927957745
2020-03-18,0.06947319990798428
2020-03-19,-0.04660633484163043
2020-03-20,0.04166666666666572
2020-03-23,0.03566192969334295
2020-03-24,0.09615105301379662
2020-03-25,0.048807379911059705
2020-03-26,-0.25134168157423986
2020-03-27,-0.19659624413145735
2020-03-30,0.2492857142857159
2020-03-31,0.020619910690832084
2020-04-01,-0.07108481262327654
2020-04-02,0.2166721257779256
2020-04-03,0.1549295774647903
2020-04-07,-0.0871621621621649
2020-04-08,-0.06382978723403787
2020-04-09,0.01606625258799283
2020-04-10,-0.11246080678848273
2020-04-13,0.06412860899313247
2020-04-14,-0.16701900162987332
2020-04-15,-0.12706874887812408
2020-04-16,0.002248265586287955
2020-04-17,0.12377871423315173
2020-04-20,0.07993918761703575
2020-04-21,0.10881079342166938
2020-04-22,0.17023421650402093
2020-04-23,0.15915674619353434
2020-04-24,-0.041301489921126464
2020-04-27,-0.22891628145865328
2020-04-28,-0.14883492764287928
2020-04-29,-0.1333910315356739
2020-04-30,-0.26463379880307675
2020-05-06,-0.06034686172722723
2020-05-07,-0.02626262626262639
2020-05-08,-0.09670379289584426
2020-05-11,0.14819657840252753
2020-05-12,0.4007698403713419
2020-05-13,0.06981605351170375
2020-05-14,0.1855791962174968
2020-05-15,0.23571107110710948
2020-05-18,-0.028844800900520037
2020-05-19,-0.1753683122253885
2020-05-20,-0.08260869565217274
2020-05-21,-0.14854215918046093
2020-05-22,-0.01980198019801653
2020-05-25,-0.009126213592234585
2020-05-26,-0.2613762486126537
2020-05-27,0.0013457556935827023
2020-05-28,0.09939052977027943
2020-05-29,0.09876543209876551
2020-06-01,-0.16606741573033432
2020-06-02,0.005417956656348227
2020-06-03,0.26587301587301604
2020-06-04,0.1325782811459001
2020-06-05,-0.21240179573513152
2020-06-08,0.1717084413713596
2020-06-09,0.4335526315789484
2020-06-10,-0.34496306773534613
2020-06-11,-0.23835450695704652
2020-06-12,0.2136363636363633
2020-06-15,-0.014277389277385873
2020-06-16,-0.4647471910112362
2020-06-17,0.20903639659740525
2020-06-18,-0.06427707199032047
2020-06-19,-0.3153846153846152
2020-06-22,0.0278520499108736
2020-06-23,0.12677549289803292
2020-06-24,0.09284277091118057
2020-06-29,0.4078947368421035
2020-06-30,0.4514957264957271
2020-07-01,-0.08415950649923051
2020-07-02,0.12253052164261166
2020-07-03,-0.23068103645952398
2020-07-06,-0.35954343690551427
2020-07-07,-0.3027777777777794
2020-07-08,0.2449438202247155
2020-07-09,-0.03515406162464493
2020-07-10,0.06741573033707203
2020-07-13,0.03756201275690987
2020-07-14,0.1541666666666685
2020-07-15,-0.3149425287356273
2020-07-16,-0.024891774891778903
2020-07-17,0.11842105263158564
2020-07-20,0.2235294117647059
2020-07-21,-0.1582070707070713
2020-07-22,0.6801599200399779
2020-07-23,0.3046536796536826
2020-07-24,-0.032399547255234584
2020-07-27,-0.135002912055913
2020-07-28,0.19570707070707172
2020-07-29,-0.6848755109624671
2020-07-30,-0.44215210355987156
2020-07-31,-0.15459293394777435
2020-08-03,-0.09718763287371582
2020-08-04,0.11184210526315688
2020-08-05,0.26859428987088474
2020-08-06,0.15827860193506257
2020-08-07,0.13391537851710883
2020-08-10,0.25152276707340865
2020-08-11,-0.3333177223740317
2020-08-12,-0.16646416957572338
2020-08-13,0.08081442989484942
2020-08-14,-0.06921991893792999
2020-08-17,-0.30855172317376595
2020-08-18,0.05647561711087398
2020-08-19,0.008268740103698595
2020-08-20,-0.10729918372175487
2020-08-21,-0.019933554817274244
2020-08-24,0.1293916674575328
2020-08-25,0.03514563106796139
2020-08-26,-0.08830171635049594
2020-08-27,-0.013740843647385096
2020-08-28,-0.04881617451449647
2020-08-31,0.32042315603878907
2020-09-01,-0.08150926743159818
2020-09-02,0.03785948307244307
2020-09-03,0.0906334906334896
2020-09-04,0.1076256983240183
2020-09-07,-0.5620161806646902
2020-09-08,0.029401611047182294
2020-09-09,0.2140639086446937
2020-09-10,-0.20354989541035937
2020-09-11,-0.06901360544217638
2020-09-14,0.23671497584541398
2020-09-15,0.14146906756997463
2020-09-16,-0.23228449402945808
2020-09-17,0.08901080904028737
2020-09-18,0.07132703827800209
2020-09-21,0.03597122302158256
2020-09-22,-0.13311815336463026
2020-09-23,0.03412645748412147
2020-09-24,0.08687237931405259
2020-09-25,-0.1632393587617527
2020-09-28,-0.15461529081819378
2020-09-29,-0.028311965811967175
2020-09-30,0.13754562043795546
2020-10-09,0.08375136314067669
2020-10-12,0.08319088319088634
2020-10-13,0.08292978208232005
2020-10-14,0.12321937321937154
2020-10-15,-0.12914823008849574
2020-10-16,-0.24272608125819606
2020-10-19,0.5374718848403114
2020-10-20,0.09909456740443384
2020-10-21,-0.006561196958544992
2020-10-22,0.12457020461078898
2020-10-23,0.16352808627072893
2020-10-26,-0.6811775200713701
2020-10-27,0.013008607198743902
2020-10-28,-0.013928647724845783
2020-10-29,-0.27156191162921195
2020-10-30,0.14183535762483054
2020-11-02,0.2125844688157746
2020-11-03,0.14017162066525096
2020-11-04,-0.09386927883803224
2020-11-05,0.17677195957882813
2020-11-06,-0.2786179921773165
2020-11-09,-0.04501171537797452
2020-11-10,-0.3639964069900374
2020-11-11,0.19588237609730635
2020-11-12,0.2989513108614262
2020-11-13,0.13777738948104173
2020-11-16,0.028818173284518637
2020-11-17,0.09324870531767412
2020-11-18,-0.16427788220551148
2020-11-19,-0.42846846846847
2020-11-20,-0.10483247422680154
2020-11-23,0.07058666399546196
2020-11-24,-0.04519168986935485
2020-11-25,0.09852729885057525
2020-11-26,0.21305721305720998
2020-11-27,0.07477409638553856
2020-11-30,-0.14640517622473417
2020-12-01,0.2788660614747587
2020-12-02,-0.07293853073463223
2020-12-03,-0.20429570429570076
2020-12-04,0.08831552625596846
2020-12-07,0.09460389565696388
2020-12-08,-0.2856324308838261
2020-12-09,0.12336956521739068
2020-12-10,0.4746882331151991
2020-12-11,-0.14850628930817472
2020-12-14,-0.06484359055491566
2020-12-15,0.1139761498918354
2020-12-16,-0.19077974662550962
2020-12-17,-0.659277296375077
2020-12-18,0.1730962458880941
2020-12-21,0.1690193507760699
2020-12-22,0.3552975931249234
2020-12-23,0.04139450072386913
2020-12-24,0.3279839662292472
2020-12-25,-0.16495468382394077
2020-12-28,-0.17238507661558947
2020-12-29,-0.5914389939032174
2020-12-30,-0.01636919196818023
2020-12-31,-0.03577127659574371
2021-01-04,0.09061109186366026
2021-01-05,0.015083440308085585
2021-01-06,0.05331050228310483
2021-01-07,0.27295140756679154
2021-01-08,0.10570652173912778
2021-01-11,0.09255686988170952
2021-01-12,0.19021938963108373
2021-01-13,0.2267241379310344
2021-01-14,-0.18691008445107046
2021-01-15,-0.10679779158039567
2021-01-18,-0.10070561017929411
2021-01-19,-0.24395414572864144
2021-01-20,-0.04748684979544429
2021-01-21,-0.08763920592100563
2021-01-22,0.06001984126983978
2021-01-25,-0.09652308387343464
2021-01-26,0.05986015981734864
2021-01-27,-0.03679542767046987
2021-01-28,0.02119847452126134
2021-01-29,0.034448294243067876
2021-02-01,0.05545620728024141
2021-02-02,-0.004990973770840259
2021-02-03,0.356367663344404
2021-02-04,0.105596292197011
2021-02-05,-0.0947610938595592
2021-02-08,-0.01934297311009612
2021-02-09,0.13202774377805346
2021-02-10,-0.43456901748040866
2021-02-18,-0.03635525743106813
2021-02-19,-0.04172144191517274
2021-02-22,0.001994580761704376
2021-02-23,-0.11626256652868398
2021-02-24,0.08057081442560156
2021-02-25,-0.05893349211404564
2021-02-26,0.1295847537684313
2021-03-01,0.09660488764966227
2021-03-02,-0.07237047440699043
2021-03-03,0.0415094339622617
2021-03-04,-0.040086532318948515
2021-03-05,-0.04382470119522089
2021-03-08,-0.1174284220918734
2021-03-09,0.06360094850948457
2021-03-10,-0.06917199438639929
2021-03-11,0.11606441476826422
2021-03-12,-0.06140438247011704
2021-03-15,0.008169521788197034
2021-03-16,0.002807247803419002
2021-03-17,0.1714876033057847
2021-03-18,-0.11793770139635068
2021-03-19,0.08553493449781183
2021-03-22,0.151298701298704
2021-03-23,0.02091560136537104
2021-03-24,-0.18400673400673423
2021-03-25,0.049369867468902755
2021-03-26,-0.07232643247351979
2021-03-29,-0.2660442600276638
2021-03-30,-0.05136512559155376
2021-03-31,0.009145880574452335
2021-04-01,0.026805820197473344
2021-04-02,-0.06710635148665983
2021-04-06,0.1907977117041895
2021-04-07,0.11776607538802604
2021-04-08,-0.0340136054421788
2021-04-09,-0.010869565217394224
2021-04-12,0.1323335219769865
2021-04-13,0.12711920749950498
2021-04-14,-0.0690559440559435
2021-04-15,0.12873091820460597
2021-04-16,0.09259259259259021
2021-04-19,-0.09531170560786015
2021-04-20,-0.23029665294482643
2021-04-21,-0.016849982707887748
2021-04-22,0.09174198160524596
2021-04-23,-0.2177977366058566
2021-04-26,0.0900903188075248
2021-04-27,-0.02691262363678836
2021-04-28,-0.036606358248453416
2021-04-29,-0.27296207729902433
2021-04-30,0.18520514401326577
2021-05-06,0.31019766397125026
2021-05-07,0.17278210027162533
2021-05-10,0.23399347623485495
2021-05-11,0.4277272727272672
2021-05-12,0.005340909090910541
2021-05-13,-0.2472452830188687
2021-05-14,0.022683966972144975
2021-05-17,-0.17876588021778567
2021-05-18,-0.32793028322439854
2021-05-19,0.07195886207613654
2021-05-20,-0.10067873910127409
2021-05-21,-0.14913482618227325
2021-05-24,-0.05289473684210462
2021-05-25,0.025855228036762466
2021-05-26,-0.29079864249887494
2021-05-27,-0.0886545942320589
2021-05-28,0.01887829912023324
2021-05-31,0.05232179547968922
2021-06-01,-0.04658166123027227
2021-06-02,0.21439630722926434
2021-06-03,0.14504733131923572
2021-06-04,-0.039576838726481524
2021-06-07,0.13184540429219863
2021-06-08,0.13072420005519061
2021-06-09,0.038310965008166775
2021-06-10,-0.1530840956814107
2021-06-11,0.10925397975306297
2021-06-15,-0.2159370526155844
2021-06-16,0.011703008165998084
2021-06-17,-0.22389033474784187
2021-06-18,0.02021505893581871
2021-06-21,-0.03990758220441219
2021-06-22,0.015389717552490675
2021-06-23,-0.14734908712100314
2021-06-24,0.13190215044873702
2021-06-25,0.22544177711094326
2021-06-28,0.19369085173501638
2021-06-29,0.041862591431555754
2021-06-30,0.08155731872197895
2021-07-01,-0.0309669184534634
2021-07-02,-0.271277729342245
2021-07-05,-0.30802469135802424
2021-07-06,0.20076412918108663
2021-07-07,-0.04023678792038174
2021-07-08,0.014655792756056676
2021-07-09,0.1610215720307478
2021-07-12,-0.030618376488584786
2021-07-13,-0.3545883300943288
2021-07-14,-0.017534466604204324
2021-07-15,0.017824533545056774
2021-07-16,-0.036697247706424706
2021-07-19,0.3464352756388185
2021-07-20,0.27860018657632596
2021-07-21,0.059532790860591656
2021-07-22,0.042713320883474376
2021-07-23,0.07951070336391643
2021-07-26,-0.38909532393951884
2021-07-27,-0.14200493606677347
2021-07-28,-0.031322993553210894
2021-07-29,-0.014682239455270266
2021-07-30,-0.008588717548311059
2021-08-02,0.2773296062135351
2021-08-03,-0.0012126407342757106
2021-08-04,0.04673996651735434
2021-08-05,-0.13799169974738218
2021-08-06,-0.16989809503062142
2021-08-09,-0.1679961870359229
2021-08-10,0.10866267957333949
2021-08-11,-0.14729463728455677
2021-08-12,0.37079221125633555
2021-08-13,0.1089218491618037
2021-08-16,0.1390017253166253
2021-08-17,-0.14696623587756957
2021-08-18,0.17991214984412313
2021-08-19,-0.4319833605091125
2021-08-20,0.10794043891500267
2021-08-23,-0.04885021016510947
2021-08-24,0.1311499093469583
2021-08-25,0.14222525473603062
2021-08-26,0.1850170131743046
2021-08-27,-0.2366707092485288
2021-08-30,0.09153605015673887
2021-08-31,-0.07899515738498776
2021-09-01,-0.3159420289855073
2021-09-02,-0.05538575530239871
2021-09-03,0.18997097106470573
2021-09-06,-0.21731280504741857
2021-09-07,0.16726770044476455
2021-09-08,0.11283643892339613
2021-09-09,0.28823859864154017
2021-09-10,0.037994700761240244
2021-09-13,0.13891484722340314
2021-09-14,-0.18088952477654177
2021-09-15,0.14531777967836287
2021-09-16,-0.4135544801940575
2021-09-17,-0.20777269073498006
2021-09-22,-0.013090743847874467
2021-09-23,0.22318877565173018
2021-09-24,-0.014782384000700699
2021-09-27,0.4013977859555059
2021-09-28,0.12324486208467958
2021-09-29,0.035906171679196394
2021-09-30,-0.24833723106559535
2021-10-08,-0.25700297634725844
2021-10-11,-0.24329501915708718
2021-10-12,0.0716689288923548
2021-10-13,0.16471450190972717
2021-10-14,0.14020973595107578
2021-10-15,0.2465037432043012
2021-10-18,0.04252998909487442
2021-10-19,-0.10155236720427256
2021-10-20,-0.49329778978240485
2021-10-21,0.12398427260812453
2021-10-22,-0.15195472706196544
2021-10-25,-0.12137854979575056
2021-10-26,0.05821925595779523
2021-10-27,0.5479963366235876
2021-10-28,-0.19999999999999865
2021-10-29,0.06035343523780097
2021-11-01,0.08082484528585651
2021-11-02,-0.07863015607580849
2021-11-03,-0.29581559357450626
2021-11-04,-0.14492753623188473
2021-11-05,-0.1463946559510929
2021-11-08,-0.03227931488801074
2021-11-09,-0.0510635198135201
2021-11-10,-0.09619433198380611
2021-11-11,0.02450868806434539
2021-11-12,0.06749394673123532
2021-11-15,-0.07242233657328001
2021-11-16,0.027639124893799223
2021-11-17,-0.01421659421659352
2021-11-18,0.15441318244515956
2021-11-19,0.0974070450097823
2021-11-22,0.03448389706003742
2021-11-23,0.01807950506778669
2021-11-24,0.21407348151533978
2021-11-25,-0.1280803557829966
2021-11-26,-0.09428072029592065
2021-11-29,0.24636646981627258
2021-11-30,0.13443419135502946
2021-12-01,-0.13187611806797675
2021-12-02,0.11940247720157833
2021-12-03,0.09488954830201064
2021-12-06,-0.3459736997635925
2021-12-07,-0.16310736677116022
2021-12-08,0.15622095049965165
2021-12-09,-0.017119734384727157
2021-12-10,-0.0959349593495934
2021-12-13,0.2992772711921648
2021-12-14,-0.03882575757575746
2021-12-15,-0.2345917218851296
2021-12-16,0.014311317273733642
2021-12-17,0.22444648974791873
2021-12-20,-0.0948315532339947
2021-12-21,0.12409032513094152
2021-12-22,0.14141926188109216
2021-12-23,-0.021967179314507257
2021-12-24,-0.277123527755555
2021-12-27,-0.06484560576519867
2021-12-28,-0.03432640687865257
2021-12-29,-0.05655599105956696
2021-12-30,-0.08029546049769729
2021-12-31,0.0741675529127846
2022-01-04,-0.03017065641563162
2022-01-05,-0.013176879986418883
2022-01-06,0.22309274740666238
2022-01-07,0.34241282907509873
2022-01-10,-0.0025814536340842964
2022-01-11,-0.011528942542245187
2022-01-12,0.02189781021897796
2022-01-13,-0.23481478401862466
2022-01-14,-0.4543986408274539
2022-01-17,0.11652305947350211
2022-01-18,0.09688421346452544
2022-01-19,0.20983606557377085
2022-01-20,0.006929818601805832
2022-01-21,0.21453243577137396
2022-01-24,-0.04494439135473727
2022-01-25,-0.024255061788573895
2022-01-26,-0.3595686858946264
2022-01-27,0.1273968400061361
2022-01-28,-0.04903108984741618
2022-02-07,0.059805180724900306
2022-02-08,-0.0026809651474533677
2022-02-09,0.18787975928543327
2022-02-10,-0.17572921309364684
2022-02-11,0.22100650891585827
2022-02-14,-0.1401649256232052
2022-02-15,0.058375634517766034
2022-02-16,-0.09330301426433932
2022-02-17,0.14026006901421625
2022-02-18,-0.31642194307701055
2022-02-21,-0.09437154160853474
2022-02-22,0.07944487830274724
2022-02-23,0.11149390346877647
2022-02-24,0.052852791878172
2022-02-25,0.347931873479318
2022-02-28,0.16946423075231856
2022-03-01,-0.1915633151237771
2022-03-02,-0.015770076850555814
2022-03-03,-0.09210136452241607
2022-03-04,-0.43210261498121816
2022-03-07,0.09340920557301885
2022-03-08,0.06025039449415392
2022-03-09,0.065035496957403
2022-03-10,0.16959064327485296
2022-03-11,0.25565912976163413
2022-03-14,-0.17460771873355704
2022-03-15,-0.03973018355301681
2022-03-16,-0.10560344827586265
2022-03-17,-0.3985751894053574
2022-03-18,-0.1496121575531656
2022-03-21,0.14845357610525628
2022-03-22,0.05111968308472206
2022-03-23,-0.10989010989010889
2022-03-24,0.2695303550973658
2022-03-25,0.1376033296116316
2022-03-28,-0.19665720345164142
2022-03-29,-0.012859308347279922
2022-03-30,0.02467707730865612
2022-03-31,-0.044444444444444633
2022-04-01,-0.07070177143042097
2022-04-06,0.05034620273993699
2022-04-07,-0.06096488302574373
2022-04-08,0.22229693147595242
2022-04-11,-0.03580717266703519
2022-04-12,0.0591159430287512
2022-04-13,-0.007920262545775297
2022-04-14,-0.028156984433655316
2022-04-15,-0.08134619397646631
2022-04-18,-0.016987858388864165
2022-04-19,-0.0032884110278535578
2022-04-20,0.02760501594157774
2022-04-21,0.13342618934724132
2022-04-22,-0.2814430340716366
2022-04-25,0.2997585938089332
2022-04-26,0.17510112837981767
2022-04-27,0.05274129664373407
2022-04-28,-0.028233925843631866
2022-04-29,0.36265623354636856
2022-05-05,-0.3287817445712157
2022-05-06,-0.4133984827054149
2022-05-09,-0.027100271002706657
2022-05-10,0.04198330323031488
2022-05-11,-0.19629808540166643
2022-05-12,0.11336392314310278
2022-05-13,0.26427619826202803
2022-05-16,0.005830903790085376
2022-05-17,-0.1297581493165089
2022-05-18,-0.04003170097867573
2022-05-19,0.006385293157839485
2022-05-20,-0.02567384965507355
2022-05-23,-0.022064670023856144
2022-05-24,0.05676567656765993
2022-05-25,0.11604554865424271
2022-05-26,-0.19530808366308994
2022-05-27,0.16740566464573353
2022-05-30,-0.016445972328322733
2022-05-31,0.026792881990899964
2022-06-01,0.17602436323366769
2022-06-02,0.455427188456097
2022-06-06,-0.32585461164643076
2022-06-07,-0.0020597155322026744
2022-06-08,0.016527131244355817
2022-06-09,-0.20015371646749702
2022-06-10,-0.5712330966692512
2022-06-13,0.307606926150655
2022-06-14,0.11121004232959054
2022-06-15,-0.038883504010564535
2022-06-16,-0.11616368705920885
2022-06-17,0.3170701047289047
2022-06-20,-0.20244382313347617
2022-06-21,0.000928792569655626
2022-06-22,0.10891275673638522
2022-06-23,0.2902930402930386
2022-06-24,-0.0037085759068481577
2022-06-27,-0.01932619314593547
2022-06-28,-0.048054008344455
2022-06-29,-0.0990623109497873
2022-06-30,-0.2889374090247434
2022-07-01,-0.06256663113006572
2022-07-04,0.03154451834135965
2022-07-05,-0.10188423256412446
2022-07-06,-0.004385964912282018
2022-07-07,0.16137688760947377
2022-07-08,0.33421601669074086
2022-07-11,0.034205147457556415
2022-07-12,0.07858724720040211
2022-07-13,0.012024048096194622
2022-07-14,-0.013363570993969828
2022-07-15,-0.491364636525928
2022-07-18,0.025959498553520477
2022-07-19,0.14970782057816837
2022-07-20,-0.10968029809619384
2022-07-21,-0.038729587244439624
2022-07-22,0.17295773216825905
2022-07-25,0.010627191273859332
2022-07-26,-0.2584815745512534
2022-07-27,0.07896466121495385
2022-07-28,-0.04653679653679588
2022-07-29,0.01164223850766143
2022-08-01,-0.002602298697181024
2022-08-02,0.08593879613290488
2022-08-03,0.0577159790289484
2022-08-04,0.06656606304493584
2022-08-05,-0.049564839147100186
2022-08-08,-0.20847408202099063
2022-08-09,-0.03287631498725392
2022-08-10,-0.022166637687655023
2022-08-11,-0.06457838971367348
2022-08-12,0.20450154800786036
2022-08-15,0.16671693792301492
2022-08-16,0.04681388288165799
2022-08-17,-0.08542918112767554
2022-08-18,0.201707915333651
2022-08-19,-0.23238605898123427
2022-08-22,-0.034632250348814106
2022-08-23,0.1096739286650239
2022-08-24,0.09270011489850527
2022-08-25,-0.2619728262615221
2022-08-26,-0.010699994431229168
2022-08-29,0.08426398787810596
2022-08-30,-0.2046842530331476
2022-08-31,-0.0614168219202965
2022-09-01,0.1389278076837966
2022-09-02,0.21412053617108337
2022-09-05,-0.09483779303812304
2022-09-06,0.09785932721712495
2022-09-07,0.021465350783094275
2022-09-08,-0.04363479914858629
2022-09-09,-0.24616606170598854
2022-09-13,-0.02661166016864877
2022-09-14,-0.11507936507936656
2022-09-15,0.0830873588011559
2022-09-16,0.10654165203058515
2022-09-19,0.060868013055895044
2022-09-20,0.06319702602230623
2022-09-21,0.2831121519646146
2022-09-22,-0.09533474942962591
2022-09-23,-0.10208415496162318
2022-09-26,0.05058709530323697
2022-09-27,0.12546125461254523
2022-09-28,-0.2106557377049218
2022-09-29,0.041768805575582865
2022-09-30,0.041699190164894234
2022-10-10,0.10268637157833463
2022-10-11,-0.21855434770563742
2022-10-12,0.002887851481926433
2022-10-13,0.13802550779404676
2022-10-14,-0.08352888816960607
2022-10-17,-0.054423913728951306
2022-10-18,0.032117483336994226
2022-10-19,0.08843639803904538
2022-10-20,-0.35915447848830984
2022-10-21,0.11066148952095675
2022-10-24,-0.24532948168493912
2022-10-25,0.1446965399886572
2022-10-26,-0.17745666350816444
2022-10-27,0.28624807454742474
2022-10-28,0.008579480593608788
2022-10-31,0.23522625304448028
2022-11-01,0.0412790697674385
2022-11-02,0.20653314258464417
2022-11-03,-0.10287271680801836
2022-11-04,-0.09809312495980585
2022-11-07,-0.03814576228369284
2022-11-08,-0.21323529411764386
2022-11-09,-0.14229390681003412
2022-11-10,0.006813603507525117
2022-11-11,-0.018285149493450295
2022-11-14,0.2548257943606775
2022-11-15,0.06964793352285054
2022-11-16,0.09860703812316382
2022-11-17,0.29929266136162425
2022-11-18,0.10273182957393386
2022-11-21,-0.37138136993264476
2022-11-22,0.009270590408460865
2022-11-23,-0.04036050156739618
2022-11-24,-0.27258755965380344
2022-11-25,-0.13321428571428534
2022-11-28,0.1852870723856564
2022-11-29,0.025393940604340182
2022-11-30,-0.009553192333636872
2022-12-01,-0.1895280310791478
2022-12-02,0.3424019607843119
2022-12-05,-0.11506849315068557
2022-12-06,-0.019366644102216453
2022-12-07,0.029024104942138428
2022-12-08,0.20286561161326738
2022-12-09,-0.433245909828898
2022-12-12,0.18565891472868257
2022-12-13,-0.0649699119813173
2022-12-14,0.027091720161027018
2022-12-15,-0.013047754445654399
2022-12-16,0.37875823023015065
2022-12-19,-0.11417780859955795
2022-12-20,0.1640737296991603
2022-12-21,0.006161118551448741
2022-12-22,-0.02502072405845948
2022-12-23,-0.32444528893750296
2022-12-26,-0.06277904123236937
2022-12-27,-0.1665835748028636
2022-12-28,-0.14579190718885954
2022-12-29,0.02629658733722206
2022-12-30,0.11675828047921231
2023-01-03,-0.006321112515801926
2023-01-04,0.10153846153846273
2023-01-05,0.18515864386675868
2023-01-06,0.0748812411562586
2023-01-09,-0.02120828538550329
2023-01-10,0.07042035055064383
2023-01-11,-0.046692797648212506
2023-01-12,-0.10200212529584998
2023-01-13,-0.2372264423946478
2023-01-16,0.09437248552644803
2023-01-17,-0.09916493929523149
2023-01-18,-0.003761472491096658
2023-01-19,0.024213358287518076
2023-01-20,0.1274114070035662
2023-01-30,0.11778199651953514
2023-01-31,0.13498432601880542
2023-02-01,0.058772987252814005
2023-02-02,-0.05191927584947869
2023-02-03,0.12554372673241374
2023-02-06,-0.3681972789115645
2023-02-07,-0.11336521520261525
2023-02-08,-0.08928099807578585
2023-02-09,-0.021153503071080375
2023-02-10,-0.21033499643620726
2023-02-13,0.24306039488966535
2023-02-14,0.04091964075481859
2023-02-15,0.06421174178183446
2023-02-16,0.1479899591622621
2023-02-17,0.07465309898242267
2023-02-20,-0.023294294616956077
2023-02-21,-0.07128149818609703
2023-02-22,-0.004716366007387946
2023-02-23,-0.04147465437788023
2023-02-24,0.011918659386179063
2023-02-27,0.023581238662865413
2023-02-28,0.1321149299872716
2023-03-01,0.03151400094921421
2023-03-02,-0.033631517122975595
2023-03-03,0.04936124789091276
2023-03-06,-0.13079322638146143
2023-03-07,-0.06741671027385529
2023-03-08,-0.11164965986394326
2023-03-09,-0.10201354084234686
2023-03-10,0.15593096274608156
2023-03-13,0.10544250031697779
2023-03-14,0.02850532925720939
2023-03-15,0.07886546184738848
2023-03-16,0.09417040358744382
2023-03-17,-0.1951205080667433
2023-03-20,-0.09798893237953914
2023-03-21,0.1513855926287863
2023-03-22,-0.008032128514056035
2023-03-23,0.02230483271375514
2023-03-24,-0.09713871785584963
2023-03-27,0.06859776168531939
2023-03-28,-0.2611087748808506
2023-03-29,0.14027149321266968
2023-03-30,-0.1215111819201051
2023-03-31,0.1355226271525837
2023-04-03,0.12038188666024403
2023-04-04,0.09017563458077166
2023-04-06,-0.06305141599259233
2023-04-07,0.16013824884792624
2023-04-10,-0.033188474818433365
2023-04-11,-0.1958920907418766
2023-04-12,-0.0434946732656642
2023-04-13,-0.030314097310120504
2023-04-14,0.027300932493695883
2023-04-17,0.0105803460269936
2023-04-18,0.07730494254192133
2023-04-19,0.07944004612089003
2023-04-20,-0.15760708692102796
2023-04-21,-0.05503781138838401
2023-04-24,0.04035311755707483
2023-04-25,0.08643132119434307
2023-04-26,-0.017452737654708103
2023-04-27,-0.0046835083735445315
2023-04-28,-0.13991438833582043
2023-05-04,0.03104453211074202
2023-05-05,-0.1993035770813552
2023-05-08,0.043648990718504546
2023-05-09,0.2250337381916332
2023-05-10,0.07509881422924725
2023-05-11,-0.22216001444825534
2023-05-12,0.10699588477366247
2023-05-15,-0.08896875620135468
2023-05-16,-0.22905210788164504
2023-05-17,0.0316205533596868
2023-05-18,0.24863369076444056
2023-05-19,-0.051282051282052356
2023-05-22,0.18422345790766825
2023-05-23,0.39770487186708225
2023-05-24,0.01476014760147433
2023-05-25,-0.08714946070878227
2023-05-26,0.14088778604907748
2023-05-29,-0.22818278805120873
2023-05-30,-0.3499864746060751
2023-05-31,0.1975950647537363
2023-06-01,-0.027284308048639377
2023-06-02,-0.12186379928315474
2023-06-05,0.31890350877193024
2023-06-06,0.03125332096725962
2023-06-07,-0.3247147629170106
2023-06-08,-0.006248488268967671
2023-06-09,-0.029032258064513247
2023-06-12,-0.4669072164948456
2023-06-13,0.04489555256064626
2023-06-14,0.1256928838951333
2023-06-15,0.08477681545636472
2023-06-16,0.06952077525553804
2023-06-19,0.2669752437057292
2023-06-20,-0.09501546681664695
2023-06-21,-0.0652813852813883
2023-06-26,-0.07035568372987547
2023-06-27,-0.040340544418014865
2023-06-28,-0.0035593384273132564
2023-06-29,0.2052300801849289
2023-06-30,0.08075463631019368
2023-07-03,-0.03943378995433737
2023-07-04,0.07813519634563079
2023-07-05,-0.06917535545023853
2023-07-06,-0.20181582854314867
2023-07-07,0.08482977927422361
2023-07-10,0.14604081632653268
2023-07-11,-0.008988067565474607
2023-07-12,0.11814285714285895
2023-07-13,0.1399422099886342
2023-07-14,-0.16692789968652175
2023-07-17,-0.14839843222057253
2023-07-18,0.2268518518518528
2023-07-19,-0.19203296703296752
2023-07-20,0.008923114533674795
2023-07-21,0.06491944302690275
2023-07-24,0.04061048945725837
2023-07-25,-0.36504495825305094
2023-07-26,0.32853962757499705
2023-07-27,0.02534284504381338
2023-07-28,0.04662452020772051
2023-07-31,-0.001133607508171681
2023-08-01,0.06420456820942708
2023-08-02,-0.3145727790757744
2023-08-03,-0.15073171755912146
2023-08-04,-0.06108528837426716
2023-08-07,0.05233527939949853
2023-08-08,0.036369888881617914
2023-08-09,0.1536901077668705
2023-08-10,0.051196030840754386
2023-08-11,0.09855254910123133
2023-08-14,-0.05691014944296045
2023-08-15,0.022144954591175665
2023-08-16,-0.04457423423878044
2023-08-17,0.02548527994615845
2023-08-18,-0.1342800992224834
2023-08-21,0.17990480184937804
2023-08-22,-0.07648325078487764
2023-08-23,0.1127153781775669
2023-08-24,0.017086693548388245
2023-08-25,-0.00945629015032378
2023-08-28,-0.12458954873815453
2023-08-29,0.1662644462819445
2023-08-30,-0.18261876536202876
2023-08-31,-0.08621975133061797
2023-09-01,0.09047954647199208
2023-09-04,-0.1456926430128283
2023-09-05,-0.18390689609176902
2023-09-06,-0.07042858925592016
2023-09-07,0.2942074625441333
2023-09-08,-0.11259859161694927
2023-09-11,-0.005222967180540189
2023-09-12,0.04531440187337213
2023-09-13,0.2868032298493993
2023-09-14,-0.45065562456866537
2023-09-15,0.10387807789467873
2023-09-18,0.11299067917145073
2023-09-19,-0.016999831207348746
2023-09-20,-0.30472559394128396
2023-09-21,0.19089973665393384
2023-09-22,-0.05957258959092798
2023-09-25,0.07739861523244379
2023-09-26,0.03725478061761287
2023-09-27,0.04647017909928958
2023-09-28,-0.009589350180504379
2023-10-09,0.09841090346387474
2023-10-10,0.09711779448621662
2023-10-11,0.07387198788472692
2023-10-12,0.2299348328778631
2023-10-13,0.06818931398416826
2023-10-16,-0.1285602889271943
2023-10-17,-0.3529578663640256
2023-10-18,-0.04407767796012321
2023-10-19,0.07247837246886801
2023-10-20,-0.07133084837570174
2023-10-23,0.12721252047823217
2023-10-24,0.16227655951634207
2023-10-25,-0.043473137556920186
2023-10-26,-0.475589466077343
2023-10-27,0.18656544743501108
2023-10-30,-0.02406306539157369
2023-10-31,-0.013793844995891598
2023-11-01,0.008364142317631268
2023-11-02,0.29045939881143246
2023-11-03,-0.19192926472543465
2023-11-06,-0.1044946520850866
2023-11-07,0.14226726726726863
2023-11-08,0.015328840343945813
2023-11-09,0.07468190519085781
2023-11-10,0.20779942881694366
2023-11-13,-0.0016374233866118248
2023-11-14,-0.025511413669310243
2023-11-15,-0.03742481776102344
2023-11-16,-0.10287468162436161
2023-11-17,-0.24718076778246928
2023-11-20,0.058962264150944015
2023-11-21,-0.2411693295739337
2023-11-22,0.08639143730886714
2023-11-23,-0.07770811467712255
2023-11-24,-0.06417541126334471
2023-11-27,0.0817843866170977
2023-11-28,0.11407323883161538
2023-11-29,0.03698020394615074
2023-11-30,0.1100851193190436
2023-12-01,0.39570826804501
2023-12-04,-0.1353558151885264
2023-12-05,0.25538851992849276
2023-12-06,-0.08676046601148449
2023-12-07,0.058621980363364454
2023-12-08,-0.3562658199020028
2023-12-11,0.05824640630962918
2023-12-12,-0.37656078959023565
2023-12-13,-0.07130298590243168
2023-12-14,-0.114143453613955
2023-12-15,0.02041248298339239
2023-12-18,0.04919707613385322
2023-12-19,0.07566432635728507
2023-12-20,0.006595480383668695
2023-12-21,-0.06365064003916893
2023-12-22,0.27608012160409884
2023-12-25,-0.14321913290985633
2023-12-26,0.06100427994453995
2023-12-27,0.02019230769230697
2023-12-28,0.15252119589468796
2023-12-29,-0.4473758025306981
2024-01-02,0.19138789536433298
2024-01-03,0.22257162823200746
2024-01-04,0.203846153846154
2024-01-05,-0.10258251549243183
2024-01-08,0.4978084072665828
2024-01-09,-0.16628662638239605
2024-01-10,-0.31415146489773527
2024-01-11,-0.20851832731027423
2024-01-12,0.08861113702080177
2024-01-15,-0.4085960960960966
2024-01-16,0.06424581005586506
2024-01-17,0.17117650613330193
2024-01-18,0.03171269019929386
2024-01-19,-0.14690468391746106
2024-01-22,0.1828565578565598
2024-01-23,-0.0212765957446813
2024-01-24,0.10448864636507477
2024-01-25,-0.018314913979719096
2024-01-26,0.1162341743737121
2024-01-29,-0.00968242952976088
2024-01-30,0.08188265635074221
2024-01-31,-0.34736024844720426
2024-02-01,0.06414977514175672
2024-02-02,0.026552581637323568
2024-02-05,-0.10559277145972634
2024-02-06,-0.12395447689565317
2024-02-07,0.331901311249139
2024-02-08,-0.04317272760632639
2024-02-19,0.07250270465200395
2024-02-20,0.14010477754319772
2024-02-21,0.11114253393665174
2024-02-22,-0.24800406814136927
2024-02-23,-0.08856227315828816
2024-02-26,-0.23617942341346748
2024-02-27,-0.12630400971131422
2024-02-28,0.00625993640699319
2024-02-29,0.03157894736842158
2024-03-01,0.5187497327575117
2024-03-04,0.09453337360314293
2024-03-05,0.196158415841585
2024-03-06,-0.17635621232743381
2024-03-07,0.09125683060109199
2024-03-08,-0.633582417582415
2024-03-11,0.02080367030533091
2024-03-12,-0.18931958762886575
2024-03-13,0.2284474096700294
2024-03-14,-0.059943699287961366
2024-03-15,0.13223036649214495
2024-03-18,0.2844897959183692
2024-03-19,0.1266469418889547
2024-03-20,-0.12323926849066599
2024-03-21,0.04839701361440614
2024-03-22,0.11810439745635201
2024-03-25,-0.3697213989330209
2024-03-26,-0.08143744600320779
2024-03-27,0.10714141045894665
2024-03-28,-0.021739130434783108
2024-03-29,-0.0738084481590257
2024-04-01,0.1294125826995281
2024-04-02,-0.02133231993953176
2024-04-03,-0.19150140292533552
2024-04-08,0.05063069739471654
2024-04-09,0.07942531610151868
2024-04-10,-0.07966217724004074
2024-04-11,0.09067645423584125
2024-04-12,0.4706847787911771
2024-04-15,-0.04568036357286436
2024-04-16,-0.017395240913547473
2024-04-17,0.04936174977605235
2024-04-18,0.05067804535889583
2024-04-19,-0.4264698264698273
2024-04-22,0.07160246120920412
2024-04-23,-0.03927879900419727
2024-04-24,-0.03428871548619421
2024-04-25,-0.17212261422787448
2024-04-26,-0.17647741785673002
2024-04-29,-0.14285714285714468
2024-04-30,0.103208894513237
2024-05-06,0.19479134937557
2024-05-07,0.20386864597390597
2024-05-08,0.22608288730952972
2024-05-09,0.07884615384615565
2024-05-10,-0.07116081598839932
2024-05-13,-0.30380174598704357
2024-05-14,-0.21176338281601303
2024-05-15,0.012464505660651593
2024-05-16,0.024999999999999307
2024-05-17,-0.024671464890606613
2024-05-20,0.6584905660377348
2024-05-21,0.20701209545603172
2024-05-22,0.04252284257128883
2024-05-23,-0.044803600654664516
2024-05-24,-0.0014650164182885596
2024-05-27,-0.8412722961130015
2024-05-28,-0.30845521939491205
2024-05-29,-0.052353760445684225
2024-05-30,0.08128407997434065
2024-05-31,-0.05522692503824458
2024-06-03,0.40321245239277964
2024-06-04,0.3430810973771492
2024-06-05,-0.0722357723577234
2024-06-06,-0.11378478294556599
2024-06-07,0.19566736547868396
2024-06-11,-0.12998840867693284
2024-06-12,-0.34780857234933965
2024-06-13,0.055730396013635955
2024-06-14,0.0594471607687462
2024-06-17,-0.2926731078904959
2024-06-18,0.15307643176495786
2024-06-19,0.2512170385395552
2024-06-20,0.04943833723794613
2024-06-21,0.010750119445773386
2024-06-24,0.1417668825161847
2024-06-25,-0.03324392998306379
2024-06-26,-0.058017318602569
2024-06-27,-0.03813704252651126
2024-06-28,-0.14029583146571187
2024-07-01,0.13823566007217183
2024-07-02,-0.24866264511722896
2024-07-03,0.3362863332147782
2024-07-04,0.024558148618299417
2024-07-05,0.1327076444271535
2024-07-08,-0.11695906432749226
2024-07-09,0.2524290758553511
2024-07-10,-0.551989411862019
2024-07-11,-0.014354066985645984
2024-07-12,0.024737945492664663
2024-07-15,0.01604278074866784
2024-07-16,-0.18494492044063726
2024-07-17,0.2681164988857278
2024-07-18,-0.05649717514124374
2024-07-19,-0.09876912840984757
2024-07-22,-0.21986443679961737
2024-07-23,0.12652631578947235
2024-07-24,-0.10245538834272747
2024-07-25,0.08983050847457423
2024-07-26,0.08407378790805448
2024-07-29,0.20382165605095096
2024-07-30,0.13360629921260145
2024-07-31,0.048268795167723796
2024-08-01,-0.04022988505746112
2024-08-02,0.14941756272401663
2024-08-05,0.04733727810650974
2024-08-06,-0.14960629921260168
2024-08-07,-0.04964786007274777
2024-08-08,0.04282469543670398
2024-08-09,-0.23141457931920822
2024-08-12,-0.04120230878135344
2024-08-13,-0.09146341463414338
2024-08-14,0.27126227581239004
2024-08-15,0.012929647381832825
2024-08-16,0.21309849242650025
2024-08-19,-0.01853646722409345
2024-08-20,0.10802467392663688
2024-08-21,-0.3029278158815652
2024-08-22,-0.04885779109440733
2024-08-23,-0.3908971184592429
2024-08-26,0.16308642940578807
2024-08-27,-0.0820374497686851
2024-08-28,0.0754238617072318
2024-08-29,-0.05161290322580722
2024-08-30,0.18118032553335395
2024-09-02,-0.3161525574061326
2024-09-03,0.07409688013136813
2024-09-04,-0.07273123196689645
2024-09-05,-0.013807657521852909
2024-09-06,0.1044217687074844
2024-09-09,0.2702295306611907
2024-09-10,0.16379310344827397
2024-09-11,0.35752890899949485
2024-09-12,0.21570957808870161
2024-09-13,-0.01482412060301739
2024-09-18,-0.1581599630143354
2024-09-19,-0.1467727674624228
2024-09-20,-0.39705882352941246
2024-09-23,-0.25314616019818315
2024-09-24,0.08584322888327335
2024-09-25,0.3431707855251581
2024-09-26,-0.10493617982604903
2024-09-27,0.16327751196172488
2024-09-30,0.12129032258064523
2024-10-08,0.055451479955037464
2024-10-09,-0.44361888111888503
2024-10-10,0.1702042450941153
2024-10-11,-0.0924441786283908
2024-10-14,0.03883554274345838
2024-10-15,-0.23897058823529527
2024-10-16,0.22940170940171234
2024-10-17,-0.09090909090909338
2024-10-18,0.21119146005509587
2024-10-21,-0.07155443675267514
2024-10-22,-0.08967391304347672
2024-10-23,-0.1994871794871826
2024-10-24,-0.10243902439024279
2024-10-25,-0.352676967301472
2024-10-28,0.03455598455598434
2024-10-29,0.10581629714943645
2024-10-30,0.21420940170940436
2024-10-31,0.013267049867950978
2024-11-01,0.24460322286409353
2024-11-04,-0.08693693693693616
2024-11-05,0.11064333017975615
2024-11-06,0.017104772557791983
2024-11-07,0.1497780351283528
2024-11-08,-0.08323676323676557
2024-11-11,0.09625246548323327
2024-11-12,-0.08727422003284133
2024-11-13,-0.30150019739439426
2024-11-14,-0.07520460075204478
2024-11-15,-0.04719576719576615
2024-11-18,-0.13442450849398355
2024-11-19,0.2662317489903693
2024-11-20,0.2448422847399824
2024-11-21,-0.03367732192298041
2024-11-22,0.08872785829307589
2024-11-25,0.11203295428173178
2024-11-26,-0.45752895752895667
2024-11-27,0.022002635046111642
2024-11-28,0.0313267095265912
2024-11-29,0.10482258870564566
2024-12-02,-0.06920974848028459
2024-12-03,0.16469893742621033
2024-12-04,0.06640316205533676
2024-12-05,0.08565144261870883
2024-12-06,-0.2192118226600977
2024-12-09,0.14201550387596895
2024-12-10,0.21254973982246667
2024-12-11,-0.36206037108833805
2024-12-12,-0.13812396585046827
2024-12-13,0.2545578947000507
2024-12-16,-0.1993065506653015
2024-12-17,-0.25085429731322156
2024-12-18,0.39276880440055195
2024-12-19,0.49461852616783414
2024-12-20,-0.20266365634172356
2024-12-23,0.2011778956945417
2024-12-24,0.09329673975566351
2024-12-25,-0.23973134121310136
2024-12-26,-0.5870465613763602
2024-12-27,0.013869308439703167
2024-12-30,-0.16100803567672145
2024-12-31,-0.04446790540540518
