date,FCT_Demark_Atr_Dfive
2019-08-09,
2019-08-12,
2019-08-13,
2019-08-14,
2019-08-15,
2019-08-16,
2019-08-19,
2019-08-20,
2019-08-21,
2019-08-22,0.0
2019-08-23,0.0
2019-08-26,0.12403100775193796
2019-08-27,0.32967032967032966
2019-08-28,0.44117647058823534
2019-08-29,0.8
2019-08-30,0.8867924528301887
2019-09-02,0.8787878787878789
2019-09-03,0.8021978021978021
2019-09-04,0.9449541284403669
2019-09-05,0.5
2019-09-06,0.41489361702127664
2019-09-09,0.2803738317757009
2019-09-10,0.36607142857142855
2019-09-11,0.09166666666666663
2019-09-12,0.12359550561797751
2019-09-16,0.37931034482758624
2019-09-17,0.4444444444444445
2019-09-18,0.33673469387755106
2019-09-19,0.6029411764705883
2019-09-20,0.7945205479452055
2019-09-23,0.3246753246753246
2019-09-24,0.3424657534246575
2019-09-25,0.390625
2019-09-26,0.31578947368421056
2019-09-27,0.017241379310344765
2019-09-30,0.13043478260869593
2019-10-08,0.5365853658536586
2019-10-09,0.55
2019-10-10,0.5609756097560975
2019-10-11,1.0
2019-10-14,1.0
2019-10-15,0.28205128205128194
2019-10-16,0.2291666666666666
2019-10-17,0.1730769230769231
2019-10-18,0.0833333333333334
2019-10-21,0.0
2019-10-22,0.5476190476190477
2019-10-23,0.6764705882352942
2019-10-24,0.7419354838709677
2019-10-25,0.6571428571428571
2019-10-28,0.6571428571428571
2019-10-29,0.0
2019-10-30,0.06896551724137936
2019-10-31,0.06896551724137936
2019-11-01,0.0833333333333334
2019-11-04,0.08000000000000007
2019-11-05,0.6111111111111109
2019-11-06,0.7407407407407407
2019-11-07,0.8857142857142859
2019-11-08,0.9333333333333335
2019-11-11,1.0
2019-11-12,0.9454545454545453
2019-11-13,0.82
2019-11-14,0.7857142857142856
2019-11-15,0.2352941176470586
2019-11-18,0.5666666666666667
2019-11-19,0.6461538461538462
2019-11-20,0.7500000000000001
2019-11-21,0.6153846153846154
2019-11-22,0.8311688311688311
2019-11-25,0.6111111111111112
2019-11-26,0.4385964912280701
2019-11-27,0.28571428571428564
2019-11-28,0.45999999999999996
2019-11-29,0.13461538461538455
2019-12-02,0.10606060606060595
2019-12-03,0.11666666666666659
2019-12-04,0.32835820895522383
2019-12-05,0.4767441860465116
2019-12-06,0.6399999999999999
2019-12-09,0.9166666666666666
2019-12-10,1.0
2019-12-11,0.7419354838709677
2019-12-12,0.3174603174603175
2019-12-13,0.24139433551198364
2019-12-16,0.1336956771539549
2019-12-17,0.013886780112357205
2019-12-18,0.06896835453453144
2019-12-19,0.42912540269654137
2019-12-20,0.20485175202154313
2019-12-23,0.12595451875471045
2019-12-24,0.37698374806638446
2019-12-25,0.2392339026656228
2019-12-26,0.17391304347826791
2019-12-27,0.20000000000001025
2019-12-30,0.4324324324324425
2019-12-31,0.2424242424242453
2020-01-02,0.5357142857142975
2020-01-03,0.7272727272727407
2020-01-06,0.8461538461538489
2020-01-07,0.7894736842105327
2020-01-08,1.0
2020-01-09,0.9230769230769177
2020-01-10,0.9210526315789427
2020-01-13,0.9347826086956483
2020-01-14,0.9361702127659528
2020-01-15,0.2857142857142821
2020-01-16,0.32727272727272677
2020-01-17,0.33928571428570925
2020-01-20,0.08064516129031787
2020-01-21,0.27848101265822855
2020-01-22,0.5833333333333309
2020-01-23,0.5306122448979549
2020-02-03,0.7526881720430111
2020-02-04,0.9714285714285714
2020-02-05,0.892473118279573
2020-02-06,0.8876404494382065
2020-02-07,0.9204545454545499
2020-02-10,0.4186046511627938
2020-02-11,0.05263157894737552
2020-02-12,0.04819277108434353
2020-02-13,0.03658536585365852
2020-02-14,0.07058823529411781
2020-02-17,0.1428571428571429
2020-02-18,0.1818181818181768
2020-02-19,0.22222222222221474
2020-02-20,0.3437499999999932
2020-02-21,0.6865671641790955
2020-02-24,0.7307692307692252
2020-02-25,0.9090909090909081
2020-02-26,1.0
2020-02-27,1.0
2020-02-28,0.795454545454542
2020-03-02,0.7195121951219484
2020-03-03,0.4864864864864824
2020-03-04,0.41538461538461274
2020-03-05,0.22058823529411967
2020-03-06,0.2380952380952425
2020-03-09,0.5520833333333361
2020-03-10,0.6956521739130473
2020-03-11,0.5104166666666676
2020-03-12,0.6862745098039216
2020-03-13,0.7865168539325831
2020-03-16,0.4444444444444473
2020-03-17,0.3000000000000033
2020-03-18,0.3750000000000055
2020-03-19,0.2553191489361744
2020-03-20,0.35185185185185325
2020-03-23,0.4130434782608707
2020-03-24,0.59090909090909
2020-03-25,0.6904761904761905
2020-03-26,0.28333333333333394
2020-03-27,0.1333333333333332
2020-03-30,0.37349397590361433
2020-03-31,0.38823529411764635
2020-04-01,0.3333333333333307
2020-04-02,0.5454545454545432
2020-04-03,0.8181818181818161
2020-04-07,0.7777777777777735
2020-04-08,0.7037037037037055
2020-04-09,0.7600000000000051
2020-04-10,0.435042626288335
2020-04-13,0.5684991415335798
2020-04-14,0.2415129334614073
2020-04-15,0.16441568397555828
2020-04-16,0.16949073751249344
2020-04-17,0.3121753452426232
2020-04-20,0.4152179064607149
2020-04-21,0.5629758646429496
2020-04-22,0.8903412749517124
2020-04-23,1.0
2020-04-24,1.0
2020-04-27,0.6818181818181809
2020-04-28,0.4482758620689591
2020-04-29,0.31249999999999317
2020-04-30,0.03174603174602665
2020-05-06,0.0
2020-05-07,0.0
2020-05-08,0.0
2020-05-11,0.07142857142857106
2020-05-12,0.3965517241379357
2020-05-13,0.4545454545454574
2020-05-14,0.6274509803921611
2020-05-15,1.0
2020-05-18,1.0
2020-05-19,1.0
2020-05-20,0.7499999999999999
2020-05-21,0.4827586206896489
2020-05-22,0.44444444444444436
2020-05-25,0.42307692307691974
2020-05-26,0.05714285714285875
2020-05-27,0.06060606060606245
2020-05-28,0.14814814814815325
2020-05-29,0.3428571428571443
2020-06-01,0.21739130434783058
2020-06-02,0.24390243902439585
2020-06-03,0.469387755102045
2020-06-04,0.5593220338983068
2020-06-05,0.40983606557377067
2020-06-08,0.5399999999999977
2020-06-09,0.8275862068965508
2020-06-10,0.593220338983049
2020-06-11,0.4259259259259244
2020-06-12,0.5961538461538447
2020-06-15,0.5882352941176479
2020-06-16,0.18750000000000164
2020-06-17,0.3589743589743593
2020-06-18,0.3255813953488376
2020-06-19,0.1224489795918381
2020-06-22,0.14000000000000026
2020-06-23,0.19444444444444606
2020-06-24,0.25641025641025883
2020-06-29,0.5813953488372123
2020-06-30,0.9130434782608745
2020-07-01,0.8333333333333378
2020-07-02,0.9166666666666666
2020-07-03,0.7826086956521757
2020-07-06,0.5384615384615392
2020-07-07,0.14814814814814098
2020-07-08,0.4864864864864812
2020-07-09,0.44117647058823545
2020-07-10,0.5357142857142754
2020-07-13,0.599999999999988
2020-07-14,0.8148148148148042
2020-07-15,0.34782608695652384
2020-07-16,0.30434782608695227
2020-07-17,0.5000000000000032
2020-07-20,0.731707317073172
2020-07-21,0.5609756097560991
2020-07-22,0.9036144578313234
2020-07-23,0.9435483870967741
2020-07-24,0.9465648854961832
2020-07-27,0.9430894308943089
2020-07-28,1.0
2020-07-29,0.7627118644067803
2020-07-30,0.44859813084112293
2020-07-31,0.3106796116504853
2020-08-03,0.24074074074074178
2020-08-04,0.3050847457627118
2020-08-05,0.5423728813559315
2020-08-06,0.7406502253905027
2020-08-07,0.8789980313450775
2020-08-10,1.0
2020-08-11,0.7657290553317433
2020-08-12,0.6551421665453802
2020-08-13,0.7179517156719469
2020-08-14,0.6685441810149425
2020-08-17,0.25004204365813076
2020-08-18,0.31236869085835806
2020-08-19,0.32307692307691716
2020-08-20,0.0
2020-08-21,0.0
2020-08-24,0.0476190476190545
2020-08-25,0.07692307692308765
2020-08-26,0.032258064516134076
2020-08-27,0.030303030303035147
2020-08-28,0.024390243902443126
2020-08-31,0.5744680851063876
2020-09-01,0.48214285714285987
2020-09-02,0.5192307692307725
2020-09-03,0.5963302752293603
2020-09-04,0.6990291262135914
2020-09-07,0.18367346938775064
2020-09-08,0.2045454545454504
2020-09-09,0.41414141414140926
2020-09-10,0.2654867256637128
2020-09-11,0.20720720720720498
2020-09-14,0.3709677419354845
2020-09-15,0.5384615384615368
2020-09-16,0.2222222222222235
2020-09-17,0.32432432432432473
2020-09-18,0.4594594594594675
2020-09-21,0.5238095238095302
2020-09-22,0.2702702702702835
2020-09-23,0.3225806451613046
2020-09-24,0.5185185185185327
2020-09-25,0.23076923076923328
2020-09-28,0.08333333333333327
2020-09-29,0.08163265306122415
2020-09-30,0.24999999999999795
2020-10-09,0.349999999999998
2020-10-12,0.4375000000000009
2020-10-13,0.5526315789473623
2020-10-14,0.7428571428571326
2020-10-15,0.5666666666666559
2020-10-16,0.1562499999999897
2020-10-19,0.7027027027026941
2020-10-20,0.7721518987341741
2020-10-21,0.7749999999999979
2020-10-22,0.8444444444444419
2020-10-23,1.0
2020-10-26,0.514705882352948
2020-10-27,0.5285714285714316
2020-10-28,0.5147058823529437
2020-10-29,0.2530120481927735
2020-10-30,0.38000000000000045
2020-11-02,0.5915492957746477
2020-11-03,0.6914893617021272
2020-11-04,0.5922330097087397
2020-11-05,0.8133333333333361
2020-11-06,0.5428571428571426
2020-11-09,0.49275362318840604
2020-11-10,0.0
2020-11-11,0.2741935483870906
2020-11-12,0.580952380952379
2020-11-13,0.7234042553191478
2020-11-16,0.7526881720430079
2020-11-17,0.864197530864202
2020-11-18,0.7464788732394402
2020-11-19,0.1730769230769185
2020-11-20,0.035714285714281445
2020-11-23,0.18181818181818749
2020-11-24,0.16901408450704553
2020-11-25,0.2876712328767157
2020-11-26,0.5499999999999997
2020-11-27,0.6799999999999938
2020-11-30,0.4489795918367241
2020-12-01,0.8196721311475375
2020-12-02,0.7592592592592557
2020-12-03,0.44615384615384485
2020-12-04,0.5443037974683551
2020-12-07,0.6575342465753456
2020-12-08,0.3125000000000041
2020-12-09,0.47500000000000375
2020-12-10,0.8403361344537839
2020-12-11,0.7264957264957304
2020-12-14,0.6655767484105383
2020-12-15,0.7940285682460712
2020-12-16,0.6235902531801114
2020-12-17,0.016574614807850063
2020-12-18,0.17162542583790502
2020-12-21,0.3275630060440181
2020-12-22,0.5588899760915172
2020-12-23,0.58565157406246
2020-12-24,0.922275507730621
2020-12-25,0.8181818181818122
2020-12-28,0.704081632653056
2020-12-29,0.04819277108433479
2020-12-30,0.04819277108433516
2020-12-31,0.0
2021-01-04,0.0897435897435928
2021-01-05,0.09589041095890698
2021-01-06,0.13725490196078804
2021-01-07,0.5070422535211272
2021-01-08,0.6097560975609732
2021-01-11,0.6767676767676739
2021-01-12,0.7812499999999992
2021-01-13,1.0
2021-01-14,1.0
2021-01-15,0.9390243902439084
2021-01-18,0.9253731343283654
2021-01-19,0.5370370370370442
2021-01-20,0.41860465116278656
2021-01-21,0.20833333333332688
2021-01-22,0.3653846153846123
2021-01-25,0.1754385964912199
2021-01-26,0.24390243902437658
2021-01-27,0.1914893617021322
2021-01-28,0.21951219512195883
2021-01-29,0.31914893617021467
2021-02-01,0.4411764705882418
2021-02-02,0.4285714285714336
2021-02-03,0.8645833333333331
2021-02-04,0.9449541284403637
2021-02-05,0.8799999999999976
2021-02-08,0.8301886792452815
2021-02-09,0.9015151515151525
2021-02-10,0.5151515151515224
2021-02-18,0.4606741573033756
2021-02-19,0.40594059405941063
2021-02-22,0.410000000000005
2021-02-23,0.14084507042253352
2021-02-24,0.2272727272727237
2021-02-25,0.0
2021-02-26,0.43589743589743307
2021-03-01,0.698113207547162
2021-03-02,0.49999999999999706
2021-03-03,0.5797101449275291
2021-03-04,0.49999999999999606
2021-03-05,0.42028985507245414
2021-03-08,0.14999999999998725
2021-03-09,0.21951219512193412
2021-03-10,0.11538461538461132
2021-03-11,0.38297872340425554
2021-03-12,0.24000000000000452
2021-03-15,0.2553191489361727
2021-03-16,0.26086956521739296
2021-03-17,0.649122807017543
2021-03-18,0.40983606557376634
2021-03-19,0.571428571428557
2021-03-22,0.7710843373493891
2021-03-23,0.8048780487804809
2021-03-24,0.5394736842105191
2021-03-25,0.640624999999999
2021-03-26,0.5084745762711942
2021-03-29,0.02985074626865573
2021-03-30,0.0
2021-03-31,0.0
2021-04-01,0.030769230769239143
2021-04-02,0.02631578947369112
2021-04-06,0.19148936170213307
2021-04-07,0.43137254901961014
2021-04-08,0.38596491228070157
2021-04-09,0.36363636363635754
2021-04-12,0.5999999999999942
2021-04-13,0.7352941176470572
2021-04-14,0.6785714285714278
2021-04-15,1.0
2021-04-16,1.0
2021-04-19,0.8188303442765681
2021-04-20,0.5126800699462468
2021-04-21,0.4809710695447107
2021-04-22,0.6117365833950533
2021-04-23,0.30772601226846336
2021-04-26,0.42198043726943935
2021-04-27,0.3971391417425198
2021-04-28,0.367130931679794
2021-04-29,0.07949800039770996
2021-04-30,0.2318840579710142
2021-05-06,0.5470085470085513
2021-05-07,0.700854700854705
2021-05-10,0.8278145695364275
2021-05-11,1.0
2021-05-12,1.0
2021-05-13,1.0
2021-05-14,1.0
2021-05-17,1.0
2021-05-18,0.8294573643410865
2021-05-19,0.8674698795180725
2021-05-20,0.8230769230769226
2021-05-21,0.5887850467289709
2021-05-24,0.47619047619047544
2021-05-25,0.5263157894736831
2021-05-26,0.0
2021-05-27,0.0
2021-05-28,0.0
2021-05-31,0.016393442622949048
2021-06-01,0.014814814814813228
2021-06-02,0.24418604651162498
2021-06-03,0.5571428571428558
2021-06-04,0.46428571428571613
2021-06-07,0.6458851373618165
2021-06-08,0.8270050194090479
2021-06-09,0.8507215926704106
2021-06-10,0.6233708825414594
2021-06-11,0.7453167992160102
2021-06-15,0.5178237164553636
2021-06-16,0.5321754302482348
2021-06-17,0.26814728142541805
2021-06-18,0.2939042207792205
2021-06-21,0.2132352941176455
2021-06-22,0.23199999999999874
2021-06-23,0.01666666666666522
2021-06-24,0.05479452054794163
2021-06-25,0.5172413793103449
2021-06-28,0.7181208053691293
2021-06-29,0.7810218978102188
2021-06-30,0.9322033898305061
2021-07-01,0.8639999999999978
2021-07-02,0.5153846153846128
2021-07-05,0.02970297029702581
2021-07-06,0.37931034482758685
2021-07-07,0.3398692810457551
2021-07-08,0.35374149659864307
2021-07-09,0.5663716814159362
2021-07-12,0.512000000000003
2021-07-13,0.09677419354838956
2021-07-14,0.09600000000000207
2021-07-15,0.1129032258064524
2021-07-16,0.017857142857141305
2021-07-19,0.4424778761061929
2021-07-20,0.8681318681318654
2021-07-21,0.9999999999999954
2021-07-22,0.9999999999999961
2021-07-23,1.0
2021-07-26,0.5362318840579726
2021-07-27,0.37500000000000305
2021-07-28,0.34146341463414825
2021-07-29,0.3076923076923055
2021-07-30,0.27027027027026856
2021-08-02,0.7763157894736821
2021-08-03,0.756410256410252
2021-08-04,0.8374999999999998
2021-08-05,0.55339805825243
2021-08-06,0.3303571428571446
2021-08-09,0.0784313725490216
2021-08-10,0.23584905660377378
2021-08-11,0.1307692307692293
2021-08-12,0.496855345911948
2021-08-13,0.6162648218821386
2021-08-16,0.7606083775646488
2021-08-17,0.6001545046832345
2021-08-18,0.8060304013640505
2021-08-19,0.3468305525929122
2021-08-20,0.47369369964932767
2021-08-23,0.41323872791898064
2021-08-24,0.5768958134681456
2021-08-25,0.6936298712634206
2021-08-26,1.0
2021-08-27,0.6692307692307705
2021-08-30,0.7312500000000005
2021-08-31,0.6623376623376633
2021-09-01,0.31851851851851876
2021-09-02,0.2554744525547444
2021-09-03,0.4869565217391305
2021-09-06,0.184210526315789
2021-09-07,0.4206896551724134
2021-09-08,0.5754716981132085
2021-09-09,0.8033707865168547
2021-09-10,0.82587064676617
2021-09-13,0.9944751381215485
2021-09-14,0.8805031446540901
2021-09-15,0.9185520361990952
2021-09-16,0.5525114155251145
2021-09-17,0.3548387096774198
2021-09-22,0.333333333333334
2021-09-23,0.537878787878789
2021-09-24,0.5307692307692331
2021-09-27,0.8631921824104244
2021-09-28,1.0
2021-09-29,1.0
2021-09-30,0.8409893992932855
2021-10-08,0.5792880258899662
2021-10-11,0.28571428571428253
2021-10-12,0.4117647058823506
2021-10-13,0.5962732919254652
2021-10-14,0.7462686567164178
2021-10-15,1.0
2021-10-18,1.0
2021-10-19,0.9850746268656723
2021-10-20,0.42047930283224405
2021-10-21,0.5064935064935058
2021-10-22,0.37499999999999956
2021-10-25,0.2782258064516124
2021-10-26,0.33396226415094316
2021-10-27,0.8087318087318092
2021-10-28,0.731778425655978
2021-10-29,0.8141592920353983
2021-11-01,1.0
2021-11-02,0.9018867924528304
2021-11-03,0.36000000000000604
2021-11-04,0.12558139534883764
2021-11-05,0.006896551724138394
2021-11-08,0.0
2021-11-09,0.0
2021-11-10,0.0
2021-11-11,0.0
2021-11-12,0.0
2021-11-15,0.0
2021-11-16,0.0
2021-11-17,0.0
2021-11-18,0.0736196319018414
2021-11-19,0.18421052631578722
2021-11-22,0.2170542635658892
2021-11-23,0.2352941176470541
2021-11-24,0.602150537634399
2021-11-25,0.37931034482757797
2021-11-26,0.2393162393162349
2021-11-29,0.5743243243243207
2021-11-30,0.704545454545455
2021-12-01,0.5680473372781081
2021-12-02,0.7361111111111124
2021-12-03,0.855172413793104
2021-12-06,0.4213836477987433
2021-12-07,0.19858156028368767
2021-12-08,0.4064516129032269
2021-12-09,0.3783783783783794
2021-12-10,0.25503355704698094
2021-12-13,0.6774193548387109
2021-12-14,0.5915492957746492
2021-12-15,0.32026143790849704
2021-12-16,0.33757961783439533
2021-12-17,0.5595854922279812
2021-12-20,0.4709017361138148
2021-12-21,0.6503258964926123
2021-12-22,1.0
2021-12-23,1.0
2021-12-24,0.4072431851593763
2021-12-27,0.22499767102443818
2021-12-28,0.08629764630207218
2021-12-29,0.0030790142426565274
2021-12-30,0.0
2021-12-31,0.0
2022-01-04,0.0
2022-01-05,0.0
2022-01-06,0.4528301886792439
2022-01-07,0.8036809815950938
2022-01-10,0.784431137724554
2022-01-11,0.7401129943502823
2022-01-12,0.7660818713450287
2022-01-13,0.5804195804195825
2022-01-14,0.0
2022-01-17,0.17037037037037228
2022-01-18,0.26724137931034836
2022-01-19,0.5277777777777808
2022-01-20,0.5337078651685407
2022-01-21,0.8512396694214879
2022-01-24,0.8392857142857144
2022-01-25,0.8285714285714287
2022-01-26,0.23711340206185735
2022-01-27,0.4615384615384629
2022-01-28,0.3809523809523825
2022-02-07,0.4758064516129034
2022-02-08,0.4715447154471542
2022-02-09,0.8888888888888903
2022-02-10,0.5053763440860202
2022-02-11,0.7549668874172172
2022-02-14,0.5999999999999995
2022-02-15,0.6582278481012649
2022-02-16,0.5389221556886199
2022-02-17,0.7278911564625821
2022-02-18,0.30769230769230504
2022-02-21,0.24691358024691207
2022-02-22,0.3296703296703293
2022-02-23,0.44692737430167767
2022-02-24,0.500000000000001
2022-02-25,0.7966804979253121
2022-02-28,1.0
2022-03-01,0.8556701030927812
2022-03-02,0.8556701030927812
2022-03-03,0.8249999999999977
2022-03-04,0.2254335260115629
2022-03-07,0.3557692307692314
2022-03-08,0.4207650273224071
2022-03-09,0.5000000000000018
2022-03-10,0.6454849498327769
2022-03-11,1.0
2022-03-14,0.8507462686567169
2022-03-15,0.7706422018348612
2022-03-16,0.7041420118343164
2022-03-17,0.14218009478672752
2022-03-18,0.0
2022-03-21,0.1729957805907169
2022-03-22,0.217777777777778
2022-03-23,0.17818181818181872
2022-03-24,0.4135802469135822
2022-03-25,0.6240601503759408
2022-03-28,0.3134328358208969
2022-03-29,0.281250000000002
2022-03-30,0.3214285714285734
2022-03-31,0.19148936170212907
2022-04-01,0.022222222222224714
2022-04-06,0.03125000000000331
2022-04-07,0.0
2022-04-08,0.48212579325214905
2022-04-11,0.42173434686937256
2022-04-12,0.5246844649495267
2022-04-13,0.5091900755739334
2022-04-14,0.46581659274719545
2022-04-15,0.30419305645822536
2022-04-18,0.28970960668657336
2022-04-19,0.2735724540839359
2022-04-20,0.3116883116883145
2022-04-21,0.6093750000000048
2022-04-22,0.184873949579833
2022-04-25,0.5092024539877298
2022-04-26,0.6313364055299546
2022-04-27,0.6712328767123287
2022-04-28,0.6603773584905663
2022-04-29,1.0
2022-05-05,0.7857142857142858
2022-05-06,0.3659793814432978
2022-05-09,0.33152173913043764
2022-05-10,0.37244897959183676
2022-05-11,0.12269938650306854
2022-05-12,0.21897810218978178
2022-05-13,0.696969696969698
2022-05-16,0.7058823529411746
2022-05-17,0.39436619718309435
2022-05-18,0.3373493975903579
2022-05-19,0.3452380952380961
2022-05-20,0.26666666666667077
2022-05-23,0.23076923076923275
2022-05-24,0.31034482758621273
2022-05-25,0.7419354838709633
2022-05-26,0.1764705882352876
2022-05-27,0.4909090909090856
2022-05-30,0.4695652173913026
2022-05-31,0.5042735042735003
2022-06-01,0.6588235294117631
2022-06-02,0.956331877729258
2022-06-06,0.699588477366258
2022-06-07,0.688259109311742
2022-06-08,0.698039215686276
2022-06-09,0.6000000000000021
2022-06-10,0.06435643564356575
2022-06-13,0.33333333333333154
2022-06-14,0.4427860696517428
2022-06-15,0.40000000000000074
2022-06-16,0.3275862068965526
2022-06-17,0.6569343065693429
2022-06-20,0.4123711340206203
2022-06-21,0.406249999999994
2022-06-22,0.5769230769230733
2022-06-23,0.9328859060402677
2022-06-24,0.9346405228758168
2022-06-27,0.8614457831325303
2022-06-28,0.8506493506493514
2022-06-29,0.8083333333333349
2022-06-30,0.2946428571428645
2022-07-01,0.1456310679611683
2022-07-04,0.1724137931034517
2022-07-05,0.019607843137255762
2022-07-06,0.0
2022-07-07,0.24137931034482135
2022-07-08,0.7878787878787846
2022-07-11,0.8313253012048163
2022-07-12,0.9999999999999971
2022-07-13,1.0
2022-07-14,1.0
2022-07-15,0.24390243902439576
2022-07-18,0.3007518796992544
2022-07-19,0.532663316582916
2022-07-20,0.41152263374485604
2022-07-21,0.3686440677966094
2022-07-22,0.5958904109589032
2022-07-25,0.6118421052631555
2022-07-26,0.18181818181817952
2022-07-27,0.2666666666666643
2022-07-28,0.2201834862385306
2022-07-29,0.24074074074073937
2022-08-01,0.2115384615384647
2022-08-02,0.3548387096774239
2022-08-03,0.5428571428571443
2022-08-04,0.8541666666666664
2022-08-05,0.5991596638655452
2022-08-08,0.17289039767215914
2022-08-09,0.15828708301687996
2022-08-10,0.077842778325376
2022-08-11,0.043965603774217904
2022-08-12,0.3556409454447958
2022-08-15,0.618766558728291
2022-08-16,0.7444879310039579
2022-08-17,0.5407434743729921
2022-08-18,0.7967479674796789
2022-08-19,0.49019607843137647
2022-08-22,0.43518518518518823
2022-08-23,0.5804195804195804
2022-08-24,0.71875
2022-08-25,0.35714285714285526
2022-08-26,0.35433070866141597
2022-08-29,0.4632352941176451
2022-08-30,0.20454545454545212
2022-08-31,0.13432835820895508
2022-09-01,0.2526315789473645
2022-09-02,0.5904761904761895
2022-09-05,0.4444444444444444
2022-09-06,0.65671641791045
2022-09-07,0.7213114754098416
2022-09-08,0.6129032258064618
2022-09-09,0.0
2022-09-13,0.0
2022-09-14,0.0
2022-09-15,0.14563106796116246
2022-09-16,0.3017241379310298
2022-09-19,0.3684210526315729
2022-09-20,0.4487179487179434
2022-09-21,0.8444444444444448
2022-09-22,0.7349397590361478
2022-09-23,0.6029411764705926
2022-09-26,0.7454545454545477
2022-09-27,0.8426966292134837
2022-09-28,0.5573770491803217
2022-09-29,0.6666666666666583
2022-09-30,0.7627118644067712
2022-10-10,0.8522727272727222
2022-10-11,0.48235294117647026
2022-10-12,0.48809523809524247
2022-10-13,0.6532258064516155
2022-10-14,0.5401459854014623
2022-10-17,0.4793388429752107
2022-10-18,0.5272727272727296
2022-10-19,0.6460176991150443
2022-10-20,0.21323529411764763
2022-10-21,0.32558139534883607
2022-10-24,0.16568047337277889
2022-10-25,0.27544910179640636
2022-10-26,0.17032967032967047
2022-10-27,0.35877862595420035
2022-10-28,0.35877862595420223
2022-10-31,0.6470588235294145
2022-11-01,0.690721649484536
2022-11-02,1.0
2022-11-03,0.9113924050632906
2022-11-04,0.766233766233762
2022-11-07,0.728571428571423
2022-11-08,0.3281249999999995
2022-11-09,0.0
2022-11-10,0.0
2022-11-11,0.0
2022-11-14,0.4864864864864905
2022-11-15,0.5869565217391345
2022-11-16,0.7411764705882362
2022-11-17,0.8860759493670888
2022-11-18,0.9689440993788816
2022-11-21,0.6754966887417218
2022-11-22,0.6845637583892629
2022-11-23,0.654929577464791
2022-11-24,0.27941176470588586
2022-11-25,0.03750000000000114
2022-11-28,0.4000000000000036
2022-11-29,0.4736842105263151
2022-11-30,0.4500000000000008
2022-12-01,0.21238938053097248
2022-12-02,0.5933333333333337
2022-12-05,0.47619047619047494
2022-12-06,0.45454545454545386
2022-12-07,0.4859154929577444
2022-12-08,0.8172043010752648
2022-12-09,0.1309523809523792
2022-12-12,0.4466019417475715
2022-12-13,0.37704918032786877
2022-12-14,0.41085271317829464
2022-12-15,0.39087925569345766
2022-12-16,0.8415751394834273
2022-12-19,0.7972374189126924
2022-12-20,1.0
2022-12-21,1.0
2022-12-22,0.9497929426227731
2022-12-23,0.5156531248514191
2022-12-26,0.42510867964633675
2022-12-27,0.16087302640307757
2022-12-28,0.0
2022-12-29,0.02542372881355555
2022-12-30,0.04166666666666074
2023-01-03,0.042253521126754734
2023-01-04,0.19642857142856804
2023-01-05,0.6938775510204124
2023-01-06,0.7887323943662032
2023-01-09,0.7179487179487158
2023-01-10,0.8749999999999958
2023-01-11,0.7971014492753566
2023-01-12,0.6274509803921544
2023-01-13,0.09722222222222283
2023-01-16,0.30000000000000443
2023-01-17,0.1808510638297917
2023-01-18,0.18085106382979232
2023-01-19,0.20879120879121282
2023-01-20,0.37254901960785297
2023-01-30,0.5949367088607639
2023-01-31,0.8533333333333359
2023-02-01,0.9268292682926843
2023-02-02,0.7872340425531923
2023-02-03,0.8823529411764707
2023-02-06,0.4411764705882321
2023-02-07,0.3208955223880592
2023-02-08,0.2296296296296296
2023-02-09,0.22627737226277386
2023-02-10,0.0
2023-02-13,0.14814814814815225
2023-02-14,0.1739130434782657
2023-02-15,0.25423728813559765
2023-02-16,0.5409836065573788
2023-02-17,0.7500000000000001
2023-02-20,0.7249999999999985
2023-02-21,0.5087719298245582
2023-02-22,0.5
2023-02-23,0.404255319148936
2023-02-24,0.4318181818181803
2023-02-27,0.48979591836734393
2023-02-28,0.8749999999999967
2023-03-01,0.895833333333329
2023-03-02,0.8780487804878016
2023-03-03,1.0
2023-03-06,0.6122448979591834
2023-03-07,0.4418604651162729
2023-03-08,0.1800000000000009
2023-03-09,0.10144927536231607
2023-03-10,0.37373737373737465
2023-03-13,0.5113636363636379
2023-03-14,0.5529411764705906
2023-03-15,0.7000000000000006
2023-03-16,1.0
2023-03-17,0.8000000000000028
2023-03-20,0.1739130434782553
2023-03-21,0.6724137931034463
2023-03-22,0.6607142857142839
2023-03-23,0.6935483870967734
2023-03-24,0.48314606741572924
2023-03-27,0.5945945945945937
2023-03-28,0.11290322580645268
2023-03-29,0.40860215053763554
2023-03-30,0.2857142857142852
2023-03-31,0.4318181818181821
2023-04-03,0.5689655172413799
2023-04-04,0.7021276595744653
2023-04-06,0.6626506024096358
2023-04-07,0.9599999999999967
2023-04-10,0.9295774647887212
2023-04-11,0.5873015873015781
2023-04-12,0.49333333333332924
2023-04-13,0.43369578188505636
2023-04-14,0.48602519097100505
2023-04-17,0.5072372196181915
2023-04-18,0.7211446685172446
2023-04-19,1.0
2023-04-20,0.5022151634205497
2023-04-21,0.36206111572351096
2023-04-24,0.4739128194179603
2023-04-25,0.6225438411155703
2023-04-26,0.6000000000000001
2023-04-27,0.5769230769230785
2023-04-28,0.3814432989690748
2023-05-04,0.4174757281553399
2023-05-05,0.1809523809523802
2023-05-08,0.24561403508771834
2023-05-09,0.5
2023-05-10,0.6091954022988478
2023-05-11,0.33962264150943444
2023-05-12,0.45
2023-05-15,0.32467532467532384
2023-05-16,0.0
2023-05-17,4.5459211009273834e-15
2023-05-18,0.36000000000000215
2023-05-19,0.3000000000000011
2023-05-22,0.5696202531645556
2023-05-23,0.9122807017543847
2023-05-24,0.915254237288134
2023-05-25,0.9038461538461523
2023-05-26,1.0
2023-05-29,0.786324786324787
2023-05-30,0.4230769230769229
2023-05-31,0.651162790697674
2023-06-01,0.6201550387596894
2023-06-02,0.4824561403508759
2023-06-05,0.7874999999999986
2023-06-06,0.8129032258064516
2023-06-07,0.5071428571428567
2023-06-08,0.499999999999999
2023-06-09,0.4701986754966907
2023-06-12,0.0
2023-06-13,0.007518796992480899
2023-06-14,0.041666666666670384
2023-06-15,0.18095238095238833
2023-06-16,0.23863636363636634
2023-06-19,1.0
2023-06-20,0.5576923076923118
2023-06-21,0.4262295081967192
2023-06-26,0.23404255319147865
2023-06-27,0.17307692307692038
2023-06-28,0.14000000000000024
2023-06-29,0.6153846153846061
2023-06-30,0.829787234042547
2023-07-03,0.6842105263157863
2023-07-04,0.8196721311475393
2023-07-05,0.682539682539678
2023-07-06,0.3050847457627126
2023-07-07,0.46753246753246613
2023-07-10,0.67032967032967
2023-07-11,0.6666666666666653
2023-07-12,0.7980769230769236
2023-07-13,1.0
2023-07-14,0.8131868131868114
2023-07-17,0.6124999999999966
2023-07-18,0.78767123287671
2023-07-19,0.5644171779141094
2023-07-20,0.5748502994011958
2023-07-21,0.6493506493506493
2023-07-24,0.7042253521126761
2023-07-25,0.23762376237623853
2023-07-26,0.7131782945736432
2023-07-27,0.7394366197183102
2023-07-28,0.7716049382716045
2023-07-31,0.7668711656441728
2023-08-01,0.8680555555555561
2023-08-02,0.4913793103448281
2023-08-03,0.22429906542056038
2023-08-04,0.0
2023-08-07,0.1649484536082461
2023-08-08,0.19701028685085473
2023-08-09,0.5963162616278586
2023-08-10,0.8600034967072668
2023-08-11,0.9359772249988827
2023-08-14,0.8544231341064547
2023-08-15,0.8738477138643098
2023-08-16,0.8415223253428663
2023-08-17,0.92195133907417
2023-08-18,0.4825830427490656
2023-08-21,0.8437500000000004
2023-08-22,0.6517857142857153
2023-08-23,0.7547169811320769
2023-08-24,0.7678571428571448
2023-08-25,0.7329545454545475
2023-08-28,0.6466165413533872
2023-08-29,0.8580246913580263
2023-08-30,0.6214285714285741
2023-08-31,0.47402597402597696
2023-09-01,0.6158940397351005
2023-09-04,0.4033149171270708
2023-09-05,0.12499999999999795
2023-09-06,0.10989010989010778
2023-09-07,0.4393305439330518
2023-09-08,0.33999999999999847
2023-09-11,0.3483606557377029
2023-09-12,0.38288288288287936
2023-09-13,0.6255506607929493
2023-09-14,0.24782608695652297
2023-09-15,0.32380952380952527
2023-09-18,0.4166666666666687
2023-09-19,0.40462427745665025
2023-09-20,0.07975460122699449
2023-09-21,0.1604938271604934
2023-09-22,0.025974025974025115
2023-09-25,0.22680412371133798
2023-09-26,0.26190476190475925
2023-09-27,0.33846153846153837
2023-09-28,0.3283582089552252
2023-10-09,0.5128205128205161
2023-10-10,0.6346153846153884
2023-10-11,0.7073170731707348
2023-10-12,0.9424460431654682
2023-10-13,1.0
2023-10-16,0.8523489932885906
2023-10-17,0.4787878787878774
2023-10-18,0.4304635761589393
2023-10-19,0.49707602339181367
2023-10-20,0.41764705882353215
2023-10-23,0.5574712643678186
2023-10-24,0.85087719298246
2023-10-25,0.7826086956521765
2023-10-26,0.1688311688311689
2023-10-27,0.3715846994535505
2023-10-30,0.33139534883720817
2023-10-31,0.32386363636363497
2023-11-01,0.3313953488372083
2023-11-02,0.8399999999999984
2023-11-03,0.45652173913043514
2023-11-06,0.12244897959183527
2023-11-07,0.5394736842105278
2023-11-08,0.5753424657534255
2023-11-09,0.6836734693877566
2023-11-10,0.8767123287671232
2023-11-13,0.8366013071895432
2023-11-14,0.8387096774193549
2023-11-15,0.7633136094674575
2023-11-16,0.6901408450704216
2023-11-17,0.3245614035087687
2023-11-20,0.41573033707864937
2023-11-21,2.3339020381813194e-15
2023-11-22,0.15315315315315306
2023-11-23,0.12408759124087697
2023-11-24,0.11409395973154488
2023-11-27,0.22807017543859467
2023-11-28,0.31451612903225673
2023-11-29,0.35606060606060475
2023-11-30,0.4954128440366948
2023-12-01,0.9300699300699299
2023-12-04,0.7816901408450706
2023-12-05,0.9018691588785053
2023-12-06,0.889473684210527
2023-12-07,0.9045454545454552
2023-12-08,0.6250000000000022
2023-12-11,0.7052993933406417
2023-12-12,0.25064913355992635
2023-12-13,0.21156898023761167
2023-12-14,0.012941031473036437
2023-12-15,0.015124234785739633
2023-12-18,0.11025345281400707
2023-12-19,0.1540788744968066
2023-12-20,0.16498349279967633
2023-12-21,0.14280132688786754
2023-12-22,0.4772727272727298
2023-12-25,0.3309859154929578
2023-12-26,0.38524590163934297
2023-12-27,0.40869565217391096
2023-12-28,0.5922330097087329
2023-12-29,0.11382113821137925
2024-01-02,0.2905982905982887
2024-01-03,0.5
2024-01-04,0.6417112299465242
2024-01-05,0.5668449197860973
2024-01-08,0.9263157894736846
2024-01-09,0.8082901554404164
2024-01-10,0.6021505376344096
2024-01-11,0.4430379746835449
2024-01-12,0.5256410256410274
2024-01-15,0.08888888888889196
2024-01-16,0.10714285714286047
2024-01-17,0.300000000000004
2024-01-18,0.33750000000000513
2024-01-19,0.15789473684210603
2024-01-22,0.3800000000000053
2024-01-23,0.34545454545455
2024-01-24,0.5384615384615371
2024-01-25,0.5060240963855421
2024-01-26,0.7627118644067842
2024-01-29,0.7543859649122822
2024-01-30,0.8676470588235328
2024-01-31,0.2592592592592613
2024-02-01,0.35443037974683483
2024-02-02,0.3999999999999926
2024-02-05,0.2990654205607443
2024-02-06,0.1523809523809473
2024-02-07,0.5529411764705892
2024-02-08,0.49382716049382736
2024-02-19,0.5816326530612277
2024-02-20,0.7999999999999988
2024-02-21,0.9642857142857122
2024-02-22,0.6172839506172807
2024-02-23,0.4807692307692311
2024-02-26,0.2242990654205582
2024-02-27,0.11504424778761192
2024-02-28,0.09090909090908875
2024-02-29,0.10526315789473453
2024-03-01,0.5931034482758589
2024-03-04,0.6935483870967737
2024-03-05,0.8444444444444454
2024-03-06,0.6540880503144663
2024-03-07,0.7236842105263163
2024-03-08,0.26153846153846233
2024-03-11,0.2741935483870973
2024-03-12,0.05405405405405297
2024-03-13,0.26041666666666724
2024-03-14,0.19587628865979512
2024-03-15,0.32203389830508516
2024-03-18,0.638095238095239
2024-03-19,0.7722772277227715
2024-03-20,0.6860465116279052
2024-03-21,0.7560975609756088
2024-03-22,0.9459459459459444
2024-03-25,0.4489795918367314
2024-03-26,0.2444444444444463
2024-03-27,0.5
2024-03-28,0.45762711864406697
2024-03-29,0.3166666666666642
2024-04-01,0.5949680693694471
2024-04-02,0.5337022892528099
2024-04-03,0.14230663082254413
2024-04-08,0.26586996336996505
2024-04-09,0.41013962239547214
2024-04-10,0.2705950016625185
2024-04-11,0.42908427552702616
2024-04-12,0.9127841311905032
2024-04-15,0.8964461488625781
2024-04-16,0.8947368421052616
2024-04-17,0.9885057471264348
2024-04-18,0.9903846153846138
2024-04-19,0.6326530612244872
2024-04-22,0.7462686567164192
2024-04-23,0.6666666666666741
2024-04-24,0.5810810810810869
2024-04-25,0.2567567567567631
2024-04-26,0.1610169491525444
2024-04-29,0.0
2024-04-30,0.12799999999999567
2024-05-06,0.32885906040268
2024-05-07,0.5032679738562024
2024-05-08,0.8191489361702139
2024-05-09,0.9750000000000077
2024-05-10,0.9705882352941269
2024-05-13,0.45833333333333776
2024-05-14,0.07692307692307938
2024-05-15,0.09374999999999711
2024-05-16,0.15942028985506815
2024-05-17,0.10447761194029478
2024-05-20,0.8357142857142864
2024-05-21,0.9871794871794881
2024-05-22,0.9883720930232568
2024-05-23,0.9534883720930241
2024-05-24,0.9425287356321831
2024-05-27,0.29670329670329815
2024-05-28,0.08808290155440551
2024-05-29,0.0
2024-05-30,0.07065217391304399
2024-05-31,0.06701030927835112
2024-06-03,0.3152173913043474
2024-06-04,0.8026315789473689
2024-06-05,0.6489361702127665
2024-06-06,0.5217391304347822
2024-06-07,0.7169811320754691
2024-06-11,0.5882352941176446
2024-06-12,0.24137931034482518
2024-06-13,0.27722772277227387
2024-06-14,0.32608695652173453
2024-06-17,0.021276595744679248
2024-06-18,0.18367346938775553
2024-06-19,0.44262295081967507
2024-06-20,0.5161290322580749
2024-06-21,0.5312500000000125
2024-06-24,0.8947368421052565
2024-06-25,0.8857142857142772
2024-06-26,0.8148148148148078
2024-06-27,0.7083333333333197
2024-06-28,0.3023255813953397
2024-07-01,0.5593220338983061
2024-07-02,0.25000000000000555
2024-07-03,0.5496183206106875
2024-07-04,0.568181818181819
2024-07-05,0.696428571428572
2024-07-08,0.6304347826086889
2024-07-09,0.9999999999999901
2024-07-10,0.3013698630136957
2024-07-11,0.2714285714285684
2024-07-12,0.3108108108108117
2024-07-15,0.33766233766234355
2024-07-16,0.12195121951219992
2024-07-17,0.46153846153846456
2024-07-18,0.367346938775512
2024-07-19,0.21153846153846215
2024-07-22,0.09876543209876379
2024-07-23,0.16129032258064144
2024-07-24,0.03278688524589938
2024-07-25,0.10909090909090227
2024-07-26,0.18749999999999356
2024-07-29,0.5624999999999807
2024-07-30,0.7878787878787828
2024-07-31,0.9629629629629394
2024-08-01,0.9166666666666828
2024-08-02,0.9565217391304438
2024-08-05,0.962962962962975
2024-08-06,0.9428571428571537
2024-08-07,0.7500000000000123
2024-08-08,0.7959183673469319
2024-08-09,0.4117647058823361
2024-08-12,0.2592592592592488
2024-08-13,0.1666666666666637
2024-08-14,0.609375000000003
2024-08-15,0.6259907142522187
2024-08-16,0.826238001283095
2024-08-19,0.7987396005174564
2024-08-20,0.9645063201385397
2024-08-21,0.6544190827364494
2024-08-22,0.5990573180888861
2024-08-23,0.04912426306450607
2024-08-26,0.2859203918893202
2024-08-27,0.2280567978072228
2024-08-28,0.2749999999999962
2024-08-29,0.24999999999999672
2024-08-30,0.4313725490195982
2024-09-02,0.0
2024-09-03,0.02380952380953003
2024-09-04,0.020000000000005586
2024-09-05,0.020408163265312047
2024-09-06,0.13043478260870345
2024-09-09,0.5000000000000173
2024-09-10,0.6792452830188778
2024-09-11,0.9125000000000035
2024-09-12,1.0
2024-09-13,1.0
2024-09-18,0.8910891089108889
2024-09-19,0.8720930232558114
2024-09-20,0.5135135135135095
2024-09-23,0.18181818181817858
2024-09-24,0.3076923076923096
2024-09-25,0.6355932203389847
2024-09-26,0.5343511450381689
2024-09-27,0.6842105263157912
2024-09-30,0.8200000000000001
2024-10-08,0.8499999999999995
2024-10-09,0.46788990825688
2024-10-10,0.6396396396396395
2024-10-11,0.5431034482758614
2024-10-14,0.5759999999999994
2024-10-15,0.3267326732673272
2024-10-16,0.6410256410256417
2024-10-17,0.5172413793103435
2024-10-18,0.8192771084337309
2024-10-21,0.7432432432432389
2024-10-22,0.5445544554455448
2024-10-23,0.33628318584070543
2024-10-24,0.2835820895522374
2024-10-25,0.0
2024-10-28,0.022900763358778272
2024-10-29,0.03124999999999939
2024-10-30,0.20000000000000065
2024-10-31,0.21917808219178148
2024-11-01,0.5227272727272739
2024-11-04,0.3921568627451012
2024-11-05,0.5471698113207597
2024-11-06,0.5714285714285756
2024-11-07,0.8076923076923099
2024-11-08,0.6862745098039209
2024-11-11,0.8695652173913011
2024-11-12,0.7560975609756061
2024-11-13,0.25862068965516893
2024-11-14,0.09999999999999702
2024-11-15,0.09090909090908848
2024-11-18,0.0
2024-11-19,0.31395348837209536
2024-11-20,0.5666666666666712
2024-11-21,0.5230769230769265
2024-11-22,0.6363636363636413
2024-11-25,0.8372093023255818
2024-11-26,0.19565217391304093
2024-11-27,0.21276595744680327
2024-11-28,0.23809523809523153
2024-11-29,0.4074074074074009
2024-12-02,0.3442622950819627
2024-12-03,0.5675675675675627
2024-12-04,0.6444444444444413
2024-12-05,0.7307692307692294
2024-12-06,0.46296296296296047
2024-12-09,0.6249999999999984
2024-12-10,0.7916666666666654
2024-12-11,0.450549450549451
2024-12-12,0.35371058368387265
2024-12-13,0.5285593782008832
2024-12-16,0.39628861291881273
2024-12-17,0.19499012913039496
2024-12-18,0.5030165607158785
2024-12-19,0.7715792601396524
2024-12-20,0.664428643176231
2024-12-23,0.8085943818407286
2024-12-24,0.8973706781816569
2024-12-25,0.7499999999999992
2024-12-26,0.22727272727272646
2024-12-27,0.24193548387096708
2024-12-30,0.01694915254237217
2024-12-31,0.0
