date,FCT_Demark_Atr_Dfive
2012-07-16,
2012-07-17,
2012-07-18,
2012-07-19,
2012-07-20,
2012-07-23,
2012-07-24,
2012-07-25,
2012-07-26,
2012-07-27,
2012-07-30,
2012-07-31,
2012-08-01,
2012-08-02,
2012-08-03,
2012-08-06,1.0
2012-08-07,1.0
2012-08-08,1.0
2012-08-09,1.0
2012-08-10,1.0
2012-08-13,0.0
2012-08-14,0.0
2012-08-15,0.0
2012-08-16,0.0
2012-08-17,0.0
2012-08-20,
2012-08-21,
2012-08-22,
2012-08-23,
2012-08-24,
2012-08-27,
2012-08-28,
2012-08-29,
2012-08-30,
2012-08-31,
2012-09-03,
2012-09-04,
2012-09-05,
2012-09-06,
2012-09-07,
2012-09-10,
2012-09-11,
2012-09-12,
2012-09-13,
2012-09-14,
2012-09-17,
2012-09-18,
2012-09-19,
2012-09-20,
2012-09-21,
2012-09-24,
2012-09-25,
2012-09-26,
2012-09-27,
2012-09-28,
2012-10-08,
2012-10-09,
2012-10-10,1.0
2012-10-11,1.0
2012-10-12,1.0
2012-10-15,1.0
2012-10-16,1.0
2012-10-17,0.5829076878129381
2012-10-18,0.0
2012-10-19,0.0
2012-10-22,0.0
2012-10-23,0.002193597788832488
2012-10-24,0.0035442337174626973
2012-10-25,0.05882352941176465
2012-10-26,0.8297872340425515
2012-10-29,0.8848920863309345
2012-10-30,0.8776978417266178
2012-10-31,0.9384615384615379
2012-11-01,0.9633027522935776
2012-11-02,0.9560439560439556
2012-11-05,0.9617224880382769
2012-11-06,0.9663461538461532
2012-11-07,1.0
2012-11-08,0.6157205240174611
2012-11-09,0.3278688524590113
2012-11-12,0.10144927536231972
2012-11-13,0.11743772241992985
2012-11-14,0.01811594202898563
2012-11-15,0.026595744680851324
2012-11-16,0.5319148936170217
2012-11-19,0.5102040816326469
2012-11-20,0.47619047619046995
2012-11-21,0.5426356589147293
2012-11-22,0.7177033492822961
2012-11-23,0.5333333333333309
2012-11-26,0.8278688524590201
2012-11-27,0.8873239436619762
2012-11-28,0.932515337423312
2012-11-29,0.5853658536585453
2012-11-30,0.4186046511627996
2012-12-03,0.28491620111732435
2012-12-04,0.16049382716049576
2012-12-05,0.14999999999999683
2012-12-06,0.15584415584415082
2012-12-07,0.255319148936158
2012-12-10,0.2857142857142748
2012-12-11,0.2580645161290326
2012-12-12,0.5460526315789546
2012-12-13,0.7328244274809314
2012-12-14,0.8128342245989405
2012-12-17,0.9123711340206263
2012-12-18,1.0
2012-12-19,0.5890909090909117
2012-12-20,0.6208053691275147
2012-12-21,0.5039062500000019
2012-12-24,0.49402390438247185
2012-12-25,0.26923076923076306
2012-12-26,0.6249999999999956
2012-12-27,0.3918918918919066
2012-12-28,0.7019230769230804
2012-12-31,0.7102803738317768
2013-01-04,0.962025316455707
2013-01-07,0.9773584905660442
2013-01-08,1.0
2013-01-09,0.7695035460992895
2013-01-10,0.7528517110266152
2013-01-11,0.47843137254901374
2013-01-14,0.026431718061670273
2013-01-15,0.017094017094017356
2013-01-16,0.08333333333332962
2013-01-17,0.050925925925922357
2013-01-18,0.06358381502889715
2013-01-21,0.09322033898304315
2013-01-22,0.08396946564884801
2013-01-23,0.0
2013-01-24,0.22881355932202962
2013-01-25,0.35922330097088584
2013-01-28,0.5138888888889147
2013-01-29,0.7450980392157358
2013-01-30,0.9512195121951433
2013-01-31,0.27272727272729913
2013-02-01,0.047619047619028756
2013-02-04,0.0731707317072979
2013-02-05,0.2399999999999626
2013-02-06,0.21153846153845143
2013-02-07,0.3437499999999911
2013-02-08,0.40740740740740117
2013-02-18,0.370370370370349
2013-02-19,0.43333333333333346
2013-02-20,0.7627118644067797
2013-02-21,0.9420289855072337
2013-02-22,0.9850746268656579
2013-02-25,1.0
2013-02-26,0.9166666666666565
2013-02-27,0.7613636363636129
2013-02-28,0.8995215311004683
2013-03-01,0.9082969432314326
2013-03-04,0.7012987012987029
2013-03-05,0.692307692307702
2013-03-06,0.6694214876033222
2013-03-07,0.07894736842105825
2013-03-08,0.07894736842104876
2013-03-11,0.10045662100456502
2013-03-12,0.1590909090909048
2013-03-13,0.24657534246574603
2013-03-14,1.0
2013-03-15,0.6875000000000034
2013-03-18,0.714285714285713
2013-03-19,0.6078431372549057
2013-03-20,0.42156862745098667
2013-03-21,0.124999999999993
2013-03-22,0.18181818181817147
2013-03-25,0.04255319148936266
2013-03-26,0.07894736842103076
2013-03-27,0.19999999999991763
2013-03-28,0.23529411764697658
2013-03-29,0.21052631578940775
2013-04-01,0.4827586206896052
2013-04-02,0.5161290322580367
2013-04-03,0.4411764705882172
2013-04-08,0.39473684210525295
2013-04-09,0.4545454545454496
2013-04-10,0.07500000000000842
2013-04-11,0.19565217391307918
2013-04-12,0.19565217391308695
2013-04-15,0.5614035087719841
2013-04-16,0.8050847457627386
2013-04-17,0.9223300970873848
2013-04-18,0.9166666666666715
2013-04-19,0.9663865546218395
2013-04-22,0.9639639639639542
2013-04-23,0.9393939393939239
2013-04-24,1.0
2013-04-25,1.0
2013-04-26,1.0
2013-05-02,0.854014598540144
2013-05-03,0.5210526315789428
2013-05-06,0.5449999999999958
2013-05-07,0.3418367346938761
2013-05-08,0.167487684729061
2013-05-09,0.17616580310880517
2013-05-10,0.257575757575756
2013-05-13,0.0
2013-05-14,0.0
2013-05-15,0.1100000000000019
2013-05-16,0.24038461538461967
2013-05-17,0.2886597938144357
2013-05-20,0.49122807017544645
2013-05-21,0.595744680851087
2013-05-22,0.30357142857144354
2013-05-23,0.04761904761905029
2013-05-24,0.0
2013-05-27,0.0
2013-05-28,0.08064516129032497
2013-05-29,0.11111111111111341
2013-05-30,0.5128205128205012
2013-05-31,0.6999999999999695
2013-06-03,0.9791666666666664
2013-06-04,0.9884615384615383
2013-06-05,1.0
2013-06-06,1.0
2013-06-07,1.0
2013-06-13,0.7887766325801369
2013-06-14,0.5138817725294391
2013-06-17,0.16133528836979288
2013-06-18,0.058579645163957854
2013-06-19,0.0
2013-06-20,0.0
2013-06-21,0.014201537058198543
2013-06-24,0.42211595113018446
2013-06-25,0.6666666666666607
2013-06-26,0.7899999999999937
2013-06-27,1.0
2013-06-28,1.0
2013-07-01,0.8121827411167521
2013-07-02,0.8471074380165295
2013-07-03,0.8412017167381984
2013-07-04,0.35964912280702044
2013-07-05,0.27927927927928275
2013-07-08,0.4252336448598164
2013-07-09,0.13750000000000032
2013-07-10,0.12288135593220334
2013-07-11,0.23437500000000322
2013-07-12,0.30578512396694185
2013-07-15,0.0784313725490204
2013-07-16,0.846153846153843
2013-07-17,0.7857142857142766
2013-07-18,0.7826086956521633
2013-07-19,0.8928571428571387
2013-07-22,0.8620689655172397
2013-07-23,0.5864661654135362
2013-07-24,0.577777777777784
2013-07-25,0.6322580645161342
2013-07-26,0.24691358024691343
2013-07-29,0.4588235294117666
2013-07-30,0.8333333333333302
2013-07-31,0.9545454545454489
2013-08-01,0.942857142857136
2013-08-02,0.4342105263157887
2013-08-05,0.2848484848484826
2013-08-06,0.18452380952381095
2013-08-07,0.1696969696969687
2013-08-08,0.14606741573033596
2013-08-09,0.5599999999999977
2013-08-12,0.7926829268292681
2013-08-13,0.9193548387096765
2013-08-14,0.8630952380952366
2013-08-15,0.9529411764705876
2013-08-16,0.7027027027027051
2013-08-19,0.400000000000002
2013-08-20,0.2232142857142881
2013-08-21,0.16556291390728656
2013-08-22,0.13698630136986717
2013-08-23,0.14598540145985758
2013-08-26,0.5345911949685549
2013-08-27,0.4450867052023133
2013-08-28,0.637037037037037
2013-08-29,0.7083333333333302
2013-08-30,0.8380281690140823
2013-09-02,0.4090909090909059
2013-09-03,0.5130434782608698
2013-09-04,0.39062499999999983
2013-09-05,0.0322580645161323
2013-09-06,0.11834319526627608
2013-09-09,0.17391304347826542
2013-09-10,0.1250000000000009
2013-09-11,0.17000000000000093
2013-09-12,0.37777777777777416
2013-09-13,0.31707317073170455
2013-09-16,0.2708333333333364
2013-09-17,0.23214285714285948
2013-09-18,0.21818181818182006
2013-09-23,0.4693877551020499
2013-09-24,0.18181818181818846
2013-09-25,0.510638297872338
2013-09-26,0.6410256410256391
2013-09-27,0.8120805369127502
2013-09-30,0.8556701030927817
2013-10-08,1.0
2013-10-09,0.8861386138613867
2013-10-10,0.8550724637681161
2013-10-11,0.561497326203208
2013-10-14,0.28823529411764737
2013-10-15,0.0
2013-10-16,0.0
2013-10-17,0.22826086956521668
2013-10-18,0.29370629370629253
2013-10-21,0.38181818181817934
2013-10-22,0.7045454545454493
2013-10-23,0.8031490126350053
2013-10-24,0.38009377214274725
2013-10-25,0.4038281343851466
2013-10-28,0.39423009264689735
2013-10-29,0.14177458635143925
2013-10-30,0.4875521909267356
2013-10-31,0.6385378692517694
2013-11-01,0.846330341843106
2013-11-04,0.9219004460808602
2013-11-05,0.8682170542635682
2013-11-06,0.5833333333333357
2013-11-07,0.5882352941176481
2013-11-08,0.15517241379310165
2013-11-11,0.0
2013-11-12,0.15447154471544958
2013-11-13,0.17117117117117395
2013-11-14,0.348484848484852
2013-11-15,0.6262626262626304
2013-11-18,0.7529411764705912
2013-11-19,0.5769230769230743
2013-11-20,0.844155844155837
2013-11-21,0.58461538461537
2013-11-22,0.4999999999999838
2013-11-25,0.4999999999999876
2013-11-26,0.49090909090908574
2013-11-27,0.1555555555555588
2013-11-28,0.18918918918919697
2013-11-29,0.03846153846154458
2013-12-02,0.0
2013-12-03,0.0
2013-12-04,0.0
2013-12-05,0.27397260273972845
2013-12-06,0.35714285714285543
2013-12-09,0.4878048780487737
2013-12-10,0.48780487804877326
2013-12-11,0.7906976744185948
2013-12-12,0.39999999999998725
2013-12-13,0.7931034482758571
2013-12-16,0.8299999999999957
2013-12-17,0.8645833333333306
2013-12-18,0.8539325842696603
2013-12-19,0.8444444444444488
2013-12-20,0.22826086956521613
2013-12-23,0.10126582278481992
2013-12-24,0.21348314606741897
2013-12-25,0.20454545454545636
2013-12-26,0.22784810126582494
2013-12-27,0.8947368421052689
2013-12-30,0.8684210526315693
2013-12-31,0.8529411764705784
2014-01-02,0.46938775510203173
2014-01-03,0.614035087719285
2014-01-06,0.661538461538452
2014-01-07,0.7123287671232847
2014-01-08,0.671641791044777
2014-01-09,0.9795918367346995
2014-01-10,0.9777777777777843
2014-01-13,0.43478260869565727
2014-01-14,0.23913043478261647
2014-01-15,0.18644067796610703
2014-01-16,0.13333333333333883
2014-01-17,0.0
2014-01-20,0.7079646017699144
2014-01-21,0.6722689075630273
2014-01-22,0.7142857142857181
2014-01-23,0.7723577235772369
2014-01-24,0.7364341085271319
2014-01-27,0.11450381679388898
2014-01-28,0.2681159420289822
2014-01-29,0.2681159420289822
2014-01-30,0.15384615384615427
2014-02-07,0.3634484671937854
2014-02-10,0.721853818484355
2014-02-11,0.6394312796208554
2014-02-12,0.7375600682064792
2014-02-13,0.9981605624591209
2014-02-14,0.31968544320027903
2014-02-17,0.20802029951738765
2014-02-18,0.31157566032007805
2014-02-19,0.3206796199606343
2014-02-20,0.5066666666666698
2014-02-21,0.9999999999999769
2014-02-24,0.863636363636362
2014-02-25,0.5081967213114721
2014-02-26,0.4915254237288096
2014-02-27,0.11666666666666714
2014-02-28,0.11475409836065703
2014-03-03,0.1999999999999954
2014-03-04,0.29268292682926667
2014-03-05,0.27499999999999797
2014-03-06,0.8000000000000089
2014-03-07,0.8484848484848577
2014-03-10,0.8648648648648766
2014-03-11,1.0
2014-03-12,0.9423076923076914
2014-03-13,0.9531249999999992
2014-03-14,0.965317919075144
2014-03-17,0.9672131147540978
2014-03-18,0.7954545454545487
2014-03-19,0.8409090909090945
2014-03-20,0.6607142857142895
2014-03-21,0.3086419753086391
2014-03-24,0.06593406593406224
2014-03-25,0.06976744186046058
2014-03-26,0.0
2014-03-27,0.0
2014-03-28,0.0
2014-03-31,0.0
2014-04-01,0.0
2014-04-02,0.2017543859649115
2014-04-03,0.19658119658119724
2014-04-04,0.32098765432098414
2014-04-08,0.3291139240506329
2014-04-09,0.6060606060606115
2014-04-10,0.2982456140350849
2014-04-11,0.6610169491525397
2014-04-14,0.5714285714285792
2014-04-15,0.6379310344827632
2014-04-16,0.38983050847458184
2014-04-17,0.39655172413794293
2014-04-18,0.027027027027027938
2014-04-21,0.5245901639344303
2014-04-22,0.5606060606060651
2014-04-23,0.578125000000001
2014-04-24,0.5873015873015883
2014-04-25,0.4512195121951239
2014-04-28,0.23728813559321793
2014-04-29,0.48275862068965486
2014-04-30,0.6701030927835067
2014-05-05,0.7959183673469388
2014-05-06,1.0
2014-05-07,0.7000000000000033
2014-05-08,0.3875968992248052
2014-05-09,0.2045454545454535
2014-05-12,0.5493562231759676
2014-05-13,0.49781659388646565
2014-05-14,0.629107981220657
2014-05-15,0.7613636363636399
2014-05-16,0.8961038961038993
2014-05-19,0.14634146341462992
2014-05-20,0.21212121212120702
2014-05-21,0.13333333333333555
2014-05-22,0.34391534391534473
2014-05-23,0.3861386138613863
2014-05-26,1.0
2014-05-27,1.0
2014-05-28,0.8348623853210977
2014-05-29,0.41441441441440924
2014-05-30,0.2685185185185148
2014-06-03,0.22429906542055927
2014-06-04,0.0
2014-06-05,0.04347826086956591
2014-06-06,0.5128205128205184
2014-06-09,0.838709677419353
2014-06-10,0.8654756451366701
2014-06-11,0.5085232370357079
2014-06-12,0.3759889018034553
2014-06-13,0.10132073279367312
2014-06-16,0.12947400015007088
2014-06-17,0.3224417740336923
2014-06-18,0.4794712682760934
2014-06-19,0.6172576056029696
2014-06-20,0.9686847599164886
2014-06-23,0.9807692307692281
2014-06-24,0.9729729729729691
2014-06-25,0.9791666666666635
2014-06-26,1.0
2014-06-27,1.0
2014-06-30,0.3648648648648641
2014-07-01,0.4597701149425326
2014-07-02,0.25000000000000494
2014-07-03,0.16964285714286317
2014-07-04,0.12844036697248037
2014-07-07,0.40000000000000097
2014-07-08,0.18947368421052382
2014-07-09,0.4487179487179463
2014-07-10,0.7539682539682512
2014-07-11,0.776923076923076
2014-07-14,0.691666666666667
2014-07-15,0.9157894736842117
2014-07-16,0.7865168539325862
2014-07-17,0.12195121951219774
2014-07-18,0.21739130434783055
2014-07-21,0.31914893617021833
2014-07-22,0.28888888888889214
2014-07-23,0.3536585365853722
2014-07-24,0.9999999999999697
2014-07-25,0.2708333333333382
2014-07-28,0.06818181818182621
2014-07-29,0.05555555555556311
2014-07-30,0.0
2014-07-31,0.20833333333333337
2014-08-01,0.5686274509803856
2014-08-04,0.49152542372880503
2014-08-05,0.7014925373134229
2014-08-06,0.7230769230769206
2014-08-07,0.477611940298504
2014-08-08,0.26470588235294334
2014-08-11,0.35714285714286587
2014-08-12,0.03846153846154453
2014-08-13,0.1320754716981174
2014-08-14,0.7211538461538489
2014-08-15,0.8715596330275234
2014-08-18,0.8750000000000004
2014-08-19,1.0
2014-08-20,1.0
2014-08-21,0.33333333333333504
2014-08-22,0.11111111111111209
2014-08-25,0.3076923076923063
2014-08-26,0.3076923076923094
2014-08-27,0.4240000000000003
2014-08-28,0.6883116883116859
2014-08-29,0.8666666666666638
2014-09-01,0.4567901234567866
2014-09-02,0.5599999999999958
2014-09-03,0.3398058252427181
2014-09-04,0.45794392523364474
2014-09-05,0.3737373737373725
2014-09-09,0.705263157894738
2014-09-10,0.49438202247191154
2014-09-11,0.7199999999999981
2014-09-12,0.7307692307692305
2014-09-15,0.8131868131868148
2014-09-16,0.7096774193548449
2014-09-17,0.7719298245614086
2014-09-18,0.7083333333333455
2014-09-19,0.31481481481482265
2014-09-22,0.4307692307692294
2014-09-23,0.3943661971830916
2014-09-24,0.5441176470588176
2014-09-25,0.5522388059701372
2014-09-26,0.9263157894736732
2014-09-29,0.6185567010309224
2014-09-30,0.6739130434782604
2014-10-08,0.6703296703296677
2014-10-09,0.7196261682243005
2014-10-10,0.26262626262626326
2014-10-13,0.3376623376623363
2014-10-14,0.2637362637362609
2014-10-15,0.1702127659574497
2014-10-16,0.0
2014-10-17,0.039215686274507534
2014-10-20,0.33870967741936026
2014-10-21,0.42000000000000476
2014-10-22,0.5609756097560958
2014-10-23,0.9069767441860436
2014-10-24,0.9069767441860436
2014-10-27,0.3921568627450953
2014-10-28,0.41666666666666374
2014-10-29,0.5
2014-10-30,0.4615384615384603
2014-10-31,0.5254237288135595
2014-11-03,0.9729729729729695
2014-11-04,1.0
2014-11-05,1.0
2014-11-06,0.8115942028985486
2014-11-07,0.8452380952380935
2014-11-10,0.8602150537634387
2014-11-11,0.6086956521739106
2014-11-12,0.4367816091954028
2014-11-13,0.6086956521739152
2014-11-14,0.3200000000000008
2014-11-17,0.20444569249641714
2014-11-18,0.5247578766099112
2014-11-19,0.5409772194441053
2014-11-20,0.30844290207392094
2014-11-21,0.3392119892071097
2014-11-24,0.36567560692077733
2014-11-25,0.028263597235302394
2014-11-26,0.029097512830634897
2014-11-27,0.04051914466913481
2014-11-28,0.23437499999999822
2014-12-01,0.1643835616438346
2014-12-02,0.5217391304347871
2014-12-03,0.745762711864416
2014-12-04,0.7894736842105295
2014-12-05,0.8181818181818218
2014-12-08,0.8852459016393466
2014-12-09,0.8939393939393951
2014-12-10,0.6610169491525447
2014-12-11,0.7142857142857159
2014-12-12,0.41428571428571426
2014-12-15,0.6494845360824757
2014-12-16,0.5168539325842719
2014-12-17,0.5897435897435886
2014-12-18,0.41975308641975384
2014-12-19,0.6119402985074612
2014-12-22,0.11864406779660858
2014-12-23,0.1568627450980368
2014-12-24,0.28070175438596834
2014-12-25,0.3636363636363666
2014-12-26,0.166666666666672
2014-12-29,0.7121212121212142
2014-12-30,0.5411764705882349
2014-12-31,0.4578313253012025
2015-01-05,0.5656565656565631
2015-01-06,0.7011494252873514
2015-01-07,0.2643678160919477
2015-01-08,0.5849056603773559
2015-01-09,0.6513761467889883
2015-01-12,0.5247524752475227
2015-01-13,0.47058823529411786
2015-01-14,0.7681159420289885
2015-01-15,0.3043478260869635
2015-01-16,0.10638297872341258
2015-01-19,0.6767676767676795
2015-01-20,0.7425742574257448
2015-01-21,0.7142857142857122
2015-01-22,0.6930693069306884
2015-01-23,0.654205607476629
2015-01-26,0.06557377049180249
2015-01-27,0.08064516129032144
2015-01-28,0.07352941176470543
2015-01-29,0.14400000000000243
2015-01-30,0.4090909090909124
2015-02-02,0.8627450980392206
2015-02-03,0.742857142857148
2015-02-04,0.8951612903225813
2015-02-05,0.8888888888888887
2015-02-06,0.6344086021505358
2015-02-09,0.38202247191010746
2015-02-10,0.42499999999999466
2015-02-11,0.010989010989006183
2015-02-12,0.0
2015-02-13,0.0
2015-02-16,0.1764705882352975
2015-02-17,0.17441860465116613
2015-02-25,0.5500000000000034
2015-02-26,0.7600000000000042
2015-02-27,0.945652173913044
2015-03-02,0.9230769230769235
2015-03-03,0.9887640449438203
2015-03-04,0.9863013698630139
2015-03-05,0.9178082191780775
2015-03-06,0.20000000000000576
2015-03-09,0.18556701030928313
2015-03-10,0.02040816326530995
2015-03-11,0.021148543675732528
2015-03-12,0.11761613203780333
2015-03-13,0.40720307261661026
2015-03-16,0.38909277516873325
2015-03-17,0.6109388353070676
2015-03-18,0.37686944306444015
2015-03-19,0.3603109282121721
2015-03-20,0.2653794886294822
2015-03-23,0.37545002571575725
2015-03-24,0.6585365853658447
2015-03-25,0.9000000000000031
2015-03-26,0.7499999999999909
2015-03-27,0.6666666666666506
2015-03-30,0.6896551724137787
2015-03-31,0.06896551724138003
2015-04-01,0.2500000000000001
2015-04-02,0.15384615384615782
2015-04-03,0.16000000000000564
2015-04-07,0.1923076923076989
2015-04-08,0.5471698113207625
2015-04-09,0.40350877192983
2015-04-10,0.7659574468085149
2015-04-13,0.7826086956521753
2015-04-14,0.6153846153846109
2015-04-15,0.5238095238095146
2015-04-16,0.8245614035087646
2015-04-17,0.6538461538461477
2015-04-20,0.7391304347826043
2015-04-21,0.8961038961038973
2015-04-22,0.7317073170731752
2015-04-23,0.5147058823529482
2015-04-24,0.6527777777777842
2015-04-27,0.5901639344262354
2015-04-28,0.6212121212121244
2015-04-29,0.6507936507936533
2015-04-30,0.6721311475409825
2015-05-04,0.7183098591549287
2015-05-05,0.7560975609756099
2015-05-06,0.5342465753424687
2015-05-07,0.6805555555555572
2015-05-08,0.8271604938271634
2015-05-11,0.5232558139534895
2015-05-12,0.3218390804597704
2015-05-13,0.39999999999999647
2015-05-14,0.3076923076923012
2015-05-15,0.04255319148936253
2015-05-18,0.074074074074075
2015-05-19,0.13333333333333394
2015-05-20,2.3802194534828496e-14
2015-05-21,2.0231865354605237e-14
2015-05-22,0.0
2015-05-25,0.22222222222223545
2015-05-26,0.4210526315789534
2015-05-27,0.3018867924528298
2015-05-28,0.4769230769230743
2015-05-29,0.574074074074069
2015-06-01,0.651515151515143
2015-06-02,0.538461538461532
2015-06-03,0.8405797101449234
2015-06-04,0.8307692307692258
2015-06-05,0.9124999999999985
2015-06-08,0.6794871794871793
2015-06-09,0.6794871794871791
2015-06-10,0.36585365853658675
2015-06-11,0.18627450980392302
2015-06-12,0.0
2015-06-15,0.0
2015-06-16,0.1846747846747878
2015-06-17,0.5046656140172145
2015-06-18,0.974114520136355
2015-06-19,0.8118341992199013
2015-06-23,0.8607510787376549
2015-06-24,0.8775916279169832
2015-06-25,0.7109596733222033
2015-06-26,0.7691509776463865
2015-06-29,0.8888888888888866
2015-06-30,0.897058823529409
2015-07-01,0.8978102189780997
2015-07-02,1.0
2015-07-03,0.6423841059602639
2015-07-06,0.5645161290322547
2015-07-07,0.37383177570093473
2015-07-08,0.28723404255319107
2015-07-09,0.767361111111111
2015-07-10,0.9523809523809522
2015-07-13,0.9543859649122819
2015-07-14,1.0
2015-07-15,0.8173913043478265
2015-07-16,0.22492401215805446
2015-07-17,0.14429530201342425
2015-07-20,0.10197368421052704
2015-07-21,0.02346041055718609
2015-07-22,0.03225806451613014
2015-07-23,0.07964601769911797
2015-07-24,0.006756756756755789
2015-07-27,0.12244897959183536
2015-07-28,0.21590909090909138
2015-07-29,0.16981132075471844
2015-07-30,0.24390243902438843
2015-07-31,0.6935483870967722
2015-08-03,0.4814814814814763
2015-08-04,0.5333333333333247
2015-08-05,0.7906976744185941
2015-08-06,0.7857142857142756
2015-08-07,0.6666666666666511
2015-08-10,0.4186046511627818
2015-08-11,0.5098039215686258
2015-08-12,0.6212121212121242
2015-08-13,0.8031496062992147
2015-08-14,0.6811594202898578
2015-08-17,0.8571428571428585
2015-08-18,0.8389830508474592
2015-08-19,0.8173076923076936
2015-08-20,0.2643678160919555
2015-08-21,0.2643678160919555
2015-08-24,0.4838709677419327
2015-08-25,0.6213017751479266
2015-08-26,0.6363636363636346
2015-08-27,0.8235294117647046
2015-08-28,0.9704142011834315
2015-08-31,0.5815217391304359
2015-09-01,0.3195876288659818
2015-09-02,0.25615763546798154
2015-09-07,0.24186046511628048
2015-09-08,0.0
2015-09-09,0.0
2015-09-10,0.0
2015-09-11,0.0
2015-09-14,0.1351351351351371
2015-09-15,0.7391304347826115
2015-09-16,0.8139534883720968
2015-09-17,0.744680851063833
2015-09-18,0.8888888888888906
2015-09-21,0.7654320987654324
2015-09-22,0.05633802816901703
2015-09-23,0.04285714285714209
2015-09-24,0.0454545454545445
2015-09-25,0.20253164556961556
2015-09-28,0.23188405797100956
2015-09-29,0.8387096774193518
2015-09-30,0.5952380952380958
2015-10-08,0.8181818181818192
2015-10-09,0.7735849056603796
2015-10-12,0.873684210526317
2015-10-13,0.8295454545454557
2015-10-14,0.9620253164556964
2015-10-15,0.7121212121212116
2015-10-16,0.6081081081081091
2015-10-19,0.04347826086956513
2015-10-20,0.11267605633802924
2015-10-21,0.09999999999999716
2015-10-22,0.12727272727272457
2015-10-23,0.33333333333333054
2015-10-26,0.7599999999999995
2015-10-27,0.34999999999999
2015-10-28,0.3499999999999972
2015-10-29,0.4047619047618998
2015-10-30,0.08928571428571547
2015-11-02,0.29230769230769227
2015-11-03,0.3015873015873043
2015-11-04,0.4883720930232603
2015-11-05,0.482352941176476
2015-11-06,0.7500000000000031
2015-11-09,0.5882352941176526
2015-11-10,0.8550724637681196
2015-11-11,0.7440729483282702
2015-11-12,0.6053599579611145
2015-11-13,0.5735377626348712
2015-11-16,0.7826570316842691
2015-11-17,0.7545511613308226
2015-11-18,0.5123614663256606
2015-11-19,0.5751196172248797
2015-11-20,0.6453674121405739
2015-11-23,0.5926605504587152
2015-11-24,0.7757009345794382
2015-11-25,0.9770114942528734
2015-11-26,1.0
2015-11-27,0.8403361344537811
2015-11-30,0.8416666666666662
2015-12-01,0.34188034188034194
2015-12-02,0.41666666666666485
2015-12-03,0.1754385964912243
2015-12-04,0.18518518518518046
2015-12-07,0.40136054421768125
2015-12-08,0.7435897435897362
2015-12-09,0.7142857142857072
2015-12-10,0.7281553398058211
2015-12-11,0.8695652173913039
2015-12-14,0.5087719298245614
2015-12-15,0.25862068965517243
2015-12-16,0.17857142857142913
2015-12-17,0.2366412213740465
2015-12-18,0.043795620437956394
2015-12-21,0.05405405405405436
2015-12-22,0.056603773584906224
2015-12-23,0.07792207792207821
2015-12-24,0.0
2015-12-25,0.0
2015-12-28,0.1250000000000013
2015-12-29,0.7499999999999974
2015-12-30,0.8181818181818244
2015-12-31,0.7894736842105261
2016-01-04,0.8735632183908039
2016-01-05,0.8352941176470619
2016-01-06,0.6478873239436657
2016-01-07,0.5081967213114718
2016-01-08,0.6607142857142806
2016-01-11,0.11999999999999371
2016-01-12,0.1799999999999934
2016-01-13,0.1525423728813512
2016-01-14,0.14999999999999744
2016-01-15,0.05263157894737014
2016-01-18,0.29268292682927743
2016-01-19,0.18367346938775986
2016-01-20,0.6000000000000102
2016-01-21,0.6250000000000056
2016-01-22,0.6808510638297874
2016-01-25,0.45098039215686275
2016-01-26,0.5348837209302325
2016-01-27,0.05000000000000017
2016-01-28,0.05128205128205143
2016-01-29,0.0
2016-02-01,0.0
2016-02-02,0.07142857142857165
2016-02-03,0.4285714285714284
2016-02-04,0.6875000000000001
2016-02-05,0.5
2016-02-15,0.8378378378378359
2016-02-16,0.8285714285714162
2016-02-17,0.6249999999999893
2016-02-18,0.5128205128204963
2016-02-19,0.6486486486486296
2016-02-22,0.12121212121211955
2016-02-23,0.11764705882353083
2016-02-24,0.4878048780487856
2016-02-25,0.5952380952381114
2016-02-26,0.5384615384615552
2016-02-29,0.9375000000000133
2016-03-01,0.96969696969697
2016-03-02,0.961538461538462
2016-03-03,0.7692307692307692
2016-03-04,0.7692307692307696
2016-03-07,0.8636363636363639
2016-03-08,0.8846153846153848
2016-03-09,0.7609018830525273
2016-03-10,0.8774959383680095
2016-03-11,0.9513198638746662
2016-03-14,0.7732437538811133
2016-03-15,0.7165360359733248
2016-03-16,0.7584491943148869
2016-03-17,0.7965255925670741
2016-03-18,0.3063247889321923
2016-03-21,0.5272791167598921
2016-03-22,0.5922330097087346
2016-03-23,0.6347826086956524
2016-03-24,0.42718446601941584
2016-03-25,0.7702702702702691
2016-03-28,0.478873239436616
2016-03-29,0.39682539682540285
2016-03-30,0.39682539682540285
2016-03-31,0.4310344827586259
2016-04-01,0.484375000000002
2016-04-05,0.607843137254901
2016-04-06,0.5961538461538367
2016-04-07,0.33928571428570575
2016-04-08,0.3725490196078351
2016-04-11,0.31914893617021184
2016-04-12,0.5283018867924528
2016-04-13,0.7909090909090906
2016-04-14,0.861386138613862
2016-04-15,0.9444444444444446
2016-04-18,0.6540880503144669
2016-04-19,0.5909090909090926
2016-04-20,0.28828828828828845
2016-04-21,0.6555023923444983
2016-04-22,0.6742081447963812
2016-04-25,0.8914027149321264
2016-04-26,0.9304347826086949
2016-04-27,0.8425196850393691
2016-04-28,0.5165876777251175
2016-04-29,0.31249999999999833
2016-05-03,0.08374384236453207
2016-05-04,0.0
2016-05-05,0.0
2016-05-06,0.1792452830188703
2016-05-09,0.5000000000000048
2016-05-10,0.9558823529411821
2016-05-11,0.9920634920634965
2016-05-12,1.0
2016-05-13,1.0
2016-05-16,0.8556149732620317
2016-05-17,0.8057142857142856
2016-05-18,0.7384615384615384
2016-05-19,0.6699029126213558
2016-05-20,0.09036144578313154
2016-05-23,0.3861386138613844
2016-05-24,0.3842364532019682
2016-05-25,0.2299270072992694
2016-05-26,0.21799307958477462
2016-05-27,0.41711229946523953
2016-05-30,0.09868421052631525
2016-05-31,0.22754491017964174
2016-06-01,0.4175824175824184
2016-06-02,0.5869565217391359
2016-06-03,0.6310679611650529
2016-06-06,0.5200000000000009
2016-06-07,0.40384615384615585
2016-06-08,0.5229357798165168
2016-06-13,0.48514851485148247
2016-06-14,0.2738095238095208
2016-06-15,0.7962962962962971
2016-06-16,0.7166666666666651
2016-06-17,0.6666666666666637
2016-06-20,0.33766233766234105
2016-06-21,0.34666666666667095
2016-06-22,0.10714285714285988
2016-06-23,0.08695652173913201
2016-06-24,0.1126760563380262
2016-06-27,0.5538461538461468
2016-06-28,0.537313432835816
2016-06-29,0.43902439024390205
2016-06-30,0.6376811594202955
2016-07-01,0.6268656716417956
2016-07-04,0.7448979591836762
2016-07-05,0.9367588932806333
2016-07-06,1.0
2016-07-07,1.0
2016-07-08,1.0
2016-07-11,0.8079163863944245
2016-07-12,0.40115395877586235
2016-07-13,0.14356953546574946
2016-07-14,0.05450445689321068
2016-07-15,0.0
2016-07-18,0.1078299977939639
2016-07-19,0.2413793103448234
2016-07-20,0.2258064516129001
2016-07-21,0.19999999999999876
2016-07-22,0.35114503816794174
2016-07-25,0.14400000000000449
2016-07-26,0.13740458015267568
2016-07-27,0.17475728155340187
2016-07-28,0.3563218390804574
2016-07-29,0.13265306122448436
2016-08-01,0.22222222222221058
2016-08-02,0.21428571428570334
2016-08-03,0.23684210526314697
2016-08-04,0.1470588235294109
2016-08-05,0.23255813953488172
2016-08-08,0.08333333333333932
2016-08-09,0.3090909090909136
2016-08-10,0.37777777777778565
2016-08-11,0.41666666666666213
2016-08-12,0.32258064516128976
2016-08-15,0.8000000000000071
2016-08-16,0.7234042553191568
2016-08-17,0.7876106194690309
2016-08-18,0.6000000000000059
2016-08-19,0.7464788732394395
2016-08-22,0.3538461538461515
2016-08-23,0.33093525179855837
2016-08-24,0.201612903225804
2016-08-25,0.563291139240505
2016-08-26,0.4266666666666679
2016-08-29,0.5079365079365119
2016-08-30,0.6147540983606599
2016-08-31,0.7573964497041447
2016-09-01,0.374269005847953
2016-09-02,0.39751552795030937
2016-09-05,0.4671532846715306
2016-09-06,0.38686131386861217
2016-09-07,0.0
2016-09-08,0.04347826086956704
2016-09-09,0.04545454545454743
2016-09-12,0.32800000000000096
2016-09-13,0.4251968503937005
2016-09-14,0.9625000000000012
2016-09-19,0.8795180722891572
2016-09-20,0.9559748427672952
2016-09-21,0.7098765432098763
2016-09-22,0.7134146341463421
2016-09-23,0.5911949685534597
2016-09-26,0.686486486486487
2016-09-27,0.30967741935484006
2016-09-28,0.4765625000000007
2016-09-29,0.37096774193548054
2016-09-30,0.4736842105263109
2016-10-10,0.19090909090908786
2016-10-11,0.5061728395061661
2016-10-12,0.5454545454545395
2016-10-13,0.7478260869565212
2016-10-14,0.8187499999999999
2016-10-17,1.0
2016-10-18,0.946745562130179
2016-10-19,0.9612068965517252
2016-10-20,0.955223880597016
2016-10-21,0.8034682080924845
2016-10-24,0.7384615384615376
2016-10-25,0.8447204968944078
2016-10-26,0.35570469798657806
2016-10-27,0.2822085889570555
2016-10-28,0.2875000000000018
2016-10-31,0.21276595744680846
2016-11-01,0.0
2016-11-02,0.2000000000000005
2016-11-03,0.1913043478260882
2016-11-04,0.3879310344827592
2016-11-07,0.6300000000000022
2016-11-08,0.54310344827586
2016-11-09,0.34166666666666407
2016-11-10,0.6159420289855038
2016-11-11,0.6988636363636329
2016-11-14,0.8398791540785477
2016-11-15,0.9144736842105254
2016-11-16,0.9788732394366189
2016-11-17,0.857142857142855
2016-11-18,0.56168831168831
2016-11-21,0.0
2016-11-22,0.0
2016-11-23,0.0
2016-11-24,0.26915562478773386
2016-11-25,0.46165535723594175
2016-11-28,0.8045099947701804
2016-11-29,0.9006947599659473
2016-11-30,1.0
2016-12-01,0.8072166398375878
2016-12-02,0.6351491886055878
2016-12-05,0.552513507888571
2016-12-06,0.46822742474916357
2016-12-07,0.0
2016-12-08,0.0
2016-12-09,0.11818181818181586
2016-12-12,0.1792452830188655
2016-12-13,0.17194570135746348
2016-12-14,0.35714285714285515
2016-12-15,0.7499999999999977
2016-12-16,0.41747572815534223
2016-12-19,0.3617021276595783
2016-12-20,0.7565789473684236
2016-12-21,0.6384180790960453
2016-12-22,0.5384615384615394
2016-12-23,0.7586206896551717
2016-12-26,0.7586206896551709
2016-12-27,0.28431372549019296
2016-12-28,0.5533980582524268
2016-12-29,0.6637168141592922
2016-12-30,0.3550724637681156
2017-01-03,0.285714285714287
2017-01-04,0.41666666666666713
2017-01-05,0.21428571428571494
2017-01-06,0.07499999999999854
2017-01-09,0.15492957746478667
2017-01-10,0.15492957746478767
2017-01-11,0.01886792452830228
2017-01-12,0.0222222222222226
2017-01-13,0.01709401709401746
2017-01-16,0.2532467532467534
2017-01-17,0.37323943661971537
2017-01-18,0.58333333333333
2017-01-19,0.5943396226415093
2017-01-20,0.9000000000000079
2017-01-23,0.3243243243243238
2017-01-24,0.1538461538461554
2017-01-25,0.12698412698413336
2017-01-26,0.29166666666667335
2017-02-03,0.4838709677419399
2017-02-06,0.9218750000000039
2017-02-07,0.7866666666666697
2017-02-08,0.5999999999999989
2017-02-09,0.45783132530120035
2017-02-10,0.22580645161289678
2017-02-13,0.020408163265306405
2017-02-14,0.47540983606556547
2017-02-15,0.52727272727272
2017-02-16,0.7321428571428567
2017-02-17,0.81818181818182
2017-02-20,0.557894736842107
2017-02-21,0.29069767441861083
2017-02-22,0.32051282051282803
2017-02-23,0.34567901234567927
2017-02-24,0.1562499999999956
2017-02-27,0.39999999999999675
2017-02-28,0.47887323943661897
2017-03-01,0.6632653061224458
2017-03-02,0.4464285714285698
2017-03-03,0.4854368932038852
2017-03-06,0.43010752688171966
2017-03-07,0.6129032258064506
2017-03-08,0.4455445544554455
2017-03-09,0.7352941176470628
2017-03-10,0.943262411347519
2017-03-13,0.9509202453987743
2017-03-14,0.753164556962026
2017-03-15,0.7828947368421048
2017-03-16,0.7548865457796756
2017-03-17,0.3404387407736617
2017-03-20,0.08242096128094067
2017-03-21,0.09794739166662787
2017-03-22,0.08400731058668168
2017-03-23,0.0
2017-03-24,0.07681739653413644
2017-03-27,0.6725873758287019
2017-03-28,0.7290809028270671
2017-03-29,0.8541666666666615
2017-03-30,0.7522935779816488
2017-03-31,0.7652173913043457
2017-04-05,0.2405063291139286
2017-04-06,0.18421052631579043
2017-04-07,0.5045871559633043
2017-04-10,0.5729166666666673
2017-04-11,0.46590909090908994
2017-04-12,0.8390804597701088
2017-04-13,0.8666666666666625
2017-04-14,0.47435897435897134
2017-04-17,0.5512820512820511
2017-04-18,0.6547619047619042
2017-04-19,0.2346938775510174
2017-04-20,0.17475728155339634
2017-04-21,0.23684210526315472
2017-04-24,0.16666666666666122
2017-04-25,0.0
2017-04-26,0.0
2017-04-27,0.27500000000000296
2017-04-28,0.30769230769231076
2017-05-02,0.5
2017-05-03,0.6249999999999972
2017-05-04,0.7446808510638281
2017-05-05,0.7209302325581375
2017-05-08,0.8032786885245915
2017-05-09,0.5454545454545467
2017-05-10,0.7313432835820883
2017-05-11,0.7831325301204819
2017-05-12,0.5631067961165033
2017-05-15,0.448275862068959
2017-05-16,0.5199999999999941
2017-05-17,0.3823529411764659
2017-05-18,0.0
2017-05-19,0.31372549019608137
2017-05-22,0.280701754385974
2017-05-23,0.3518518518518555
2017-05-24,0.5735294117647147
2017-05-25,0.48148148148148673
2017-05-26,0.5333333333333372
2017-05-31,0.7155172413793096
2017-06-01,0.645161290322581
2017-06-02,0.4724409448818895
2017-06-05,0.7094017094017107
2017-06-06,0.5523809523809523
2017-06-07,0.19327731092437156
2017-06-08,0.21296296296296835
2017-06-09,0.39805825242718484
2017-06-12,0.2093023255813941
2017-06-13,0.17307692307692304
2017-06-14,0.37288135593220373
2017-06-15,0.44776119402984255
2017-06-16,0.35087719298245396
2017-06-19,0.37735849056603865
2017-06-20,0.952380952380958
2017-06-21,0.9534883720930291
2017-06-22,0.9574468085106445
2017-06-23,0.6065573770491858
2017-06-26,0.606557377049181
2017-06-27,0.4418604651162881
2017-06-28,0.4418604651162818
2017-06-29,0.21874999999999659
2017-06-30,0.8421052631578727
2017-07-03,0.9782608695652105
2017-07-04,0.9855072463768068
2017-07-05,0.7590361445783108
2017-07-06,0.7078651685393259
2017-07-07,0.6428571428571384
2017-07-10,0.5454545454545361
2017-07-11,0.1770535872305142
2017-07-12,0.44874795404830276
2017-07-13,0.5821196471373141
2017-07-14,0.6596046212110367
2017-07-17,0.29154464957463505
2017-07-18,0.33492453959178914
2017-07-19,0.1845804012923918
2017-07-20,0.1740251151675447
2017-07-21,0.1069890638456872
2017-07-24,0.7846153846153839
2017-07-25,0.9240506329113933
2017-07-26,1.0
2017-07-27,0.8083333333333343
2017-07-28,0.8647058823529415
2017-07-31,0.7761194029850731
2017-08-01,0.6119402985074599
2017-08-02,0.36764705882352566
2017-08-03,0.5655172413793056
2017-08-04,0.22857142857142707
2017-08-07,0.18934911242603444
2017-08-08,0.35754189944133935
2017-08-09,0.4527027027027043
2017-08-10,0.2592592592592623
2017-08-11,0.6099290780141848
2017-08-14,0.868965517241381
2017-08-15,0.6308724832214793
2017-08-16,0.6802325581395363
2017-08-17,0.6763005780346825
2017-08-18,0.34196891191709855
2017-08-21,0.13829787234042545
2017-08-22,0.32258064516129037
2017-08-23,0.2173913043478279
2017-08-24,0.3248407643312106
2017-08-25,0.6534653465346558
2017-08-28,1.0
2017-08-29,0.597014925373136
2017-08-30,0.4642857142857116
2017-08-31,0.26744186046511603
2017-09-01,0.09638554216867083
2017-09-04,0.12790697674418702
2017-09-05,0.16923076923077018
2017-09-06,0.19642857142857387
2017-09-07,0.25000000000000305
2017-09-08,0.6612903225806487
2017-09-11,0.7200000000000036
2017-09-12,0.6749999999999983
2017-09-13,0.8229166666666634
2017-09-14,0.9009009009008967
2017-09-15,0.6363636363636316
2017-09-18,0.4509803921568573
2017-09-19,0.5360824742268027
2017-09-20,0.3292682926829255
2017-09-21,0.08571428571429048
2017-09-22,0.12000000000000814
2017-09-25,0.5555555555555618
2017-09-26,0.4754098360655777
2017-09-27,0.43939393939394505
2017-09-28,0.7113402061855731
2017-09-29,0.820754716981134
2017-10-09,0.4264705882352955
2017-10-10,0.4598540145985397
2017-10-11,0.49606299212598304
2017-10-12,0.1869918699186957
2017-10-13,0.18699186991869596
2017-10-16,0.3970588235294037
2017-10-17,0.35937499999999284
2017-10-18,0.5135135135135112
2017-10-19,1.0
2017-10-20,0.731343283582093
2017-10-23,0.661764705882361
2017-10-24,0.5789473684210614
2017-10-25,0.703703703703708
2017-10-26,0.39166666666666655
2017-10-27,0.3759999999999979
2017-10-30,0.48591549295774195
2017-10-31,0.5524475524475485
2017-11-01,0.1975308641975295
2017-11-02,0.3206106870229005
2017-11-03,0.40000000000000174
2017-11-06,0.2291666666666731
2017-11-07,0.13793103448276353
2017-11-08,0.6896551724138064
2017-11-09,0.32258064516128654
2017-11-10,0.6379310344827575
2017-11-13,0.6379310344827468
2017-11-14,0.5285714285714165
2017-11-15,0.48437499999999173
2017-11-16,0.6666666666666616
2017-11-17,0.1969696969697033
2017-11-20,0.19696969696970623
2017-11-21,0.23790223532302718
2017-11-22,0.18819611895740868
2017-11-23,0.0
2017-11-24,0.2756313764843665
2017-11-27,0.6521883656509669
2017-11-28,0.6955286691215163
2017-11-29,0.7727883538633843
2017-11-30,1.0
2017-12-01,1.0
2017-12-04,0.5000000000000034
2017-12-05,0.6574074074074076
2017-12-06,0.6574074074074058
2017-12-07,0.5256410256410233
2017-12-08,0.45555555555555366
2017-12-11,0.8260869565217392
2017-12-12,0.2608695652173911
2017-12-13,0.21917808219178275
2017-12-14,0.27848101265822944
2017-12-15,0.31884057971014507
2017-12-18,0.08450704225352064
2017-12-19,0.3333333333333333
2017-12-20,0.2653061224489793
2017-12-21,0.20000000000000662
2017-12-22,0.55263157894737
2017-12-25,0.7974683544303792
2017-12-26,0.6086956521739078
2017-12-27,0.7894736842105193
2017-12-28,0.6697247706421946
2017-12-29,0.4123711340206123
2018-01-02,0.3666666666666591
2018-01-03,0.5256410256410267
2018-01-04,0.30985915492958543
2018-01-05,0.3793103448275967
2018-01-08,0.6153846153846331
2018-01-09,0.17857142857144853
2018-01-10,0.061224489795919323
2018-01-11,0.2608695652173933
2018-01-12,0.4150943396226406
2018-01-15,0.4259259259259216
2018-01-16,1.0
2018-01-17,0.9772727272727232
2018-01-18,0.9444444444444348
2018-01-19,0.7058823529411727
2018-01-22,0.6562499999999928
2018-01-23,0.0
2018-01-24,0.0
2018-01-25,0.0
2018-01-26,0.0
2018-01-29,0.0
2018-01-30,0.47761194029850773
2018-01-31,0.46376811594203043
2018-02-01,0.5633802816901405
2018-02-02,0.7341772151898757
2018-02-05,0.9736842105263182
2018-02-06,0.6268656716417923
2018-02-07,0.6973684210526299
2018-02-08,0.6891891891891904
2018-02-09,0.423076923076924
2018-02-12,0.25373134328358266
2018-02-13,0.3207547169811302
2018-02-14,0.43750000000000344
2018-02-22,0.3492063492063488
2018-02-23,0.7361111111111004
2018-02-26,0.8205128205128132
2018-02-27,0.928571428571425
2018-02-28,0.6231884057970949
2018-03-01,0.7374999999999965
2018-03-02,0.6181818181818172
2018-03-05,0.6315789473684187
2018-03-06,0.6865671641791026
2018-03-07,1.0
2018-03-08,0.7424242424242468
2018-03-09,0.5584415584415646
2018-03-12,0.3333333333333371
2018-03-13,0.39393939393939686
2018-03-14,0.20833333333333565
2018-03-15,0.2716049382716053
2018-03-16,0.28947368421052605
2018-03-19,0.6000000000000014
2018-03-20,0.3384615384615367
2018-03-21,0.44000000000000045
2018-03-22,0.4402096850427567
2018-03-23,0.6568983112223056
2018-03-26,0.6420559527979789
2018-03-27,0.9327911386089314
2018-03-28,0.6463535220130037
2018-03-29,0.6675917560883536
2018-03-30,0.7100828189037877
2018-04-02,0.5361319848578876
2018-04-03,0.4461452694079731
2018-04-04,0.7499999999999913
2018-04-09,0.9281045751633964
2018-04-10,0.7
2018-04-11,0.626865671641793
2018-04-12,0.7027027027027057
2018-04-13,0.6400000000000022
2018-04-16,0.1357466063348431
2018-04-17,0.22916666666666746
2018-04-18,0.23529411764705904
2018-04-19,0.07486631016042693
2018-04-20,0.15508021390374324
2018-04-23,0.33333333333333526
2018-04-24,0.2000000000000027
2018-04-25,0.3437500000000007
2018-04-26,0.7142857142857143
2018-04-27,0.4054054054053934
2018-05-02,0.612903225806433
2018-05-03,0.575757575757564
2018-05-04,0.3428571428571313
2018-05-07,0.17857142857143252
2018-05-08,0.5185185185185247
2018-05-09,0.6666666666666756
2018-05-10,0.5200000000000066
2018-05-11,0.7058823529411824
2018-05-14,0.5737704918032819
2018-05-15,0.5000000000000101
2018-05-16,0.2531645569620394
2018-05-17,0.6419753086419805
2018-05-18,0.7128712871287168
2018-05-21,0.9684684684684678
2018-05-22,0.9761904761904755
2018-05-23,1.0
2018-05-24,1.0
2018-05-25,1.0
2018-05-28,0.583061889250808
2018-05-29,0.4920634920634854
2018-05-30,0.6759493670886044
2018-05-31,0.7366255144032912
2018-06-01,0.6012024048096192
2018-06-04,0.8321513002364069
2018-06-05,0.8565656565656565
2018-06-06,0.5178907721280611
2018-06-07,0.25268817204301075
2018-06-08,0.35205992509363393
2018-06-11,0.26254826254826374
2018-06-12,0.07692307692307815
2018-06-13,0.1540178571428565
2018-06-14,0.2757475083056484
2018-06-15,0.12162162162161946
2018-06-19,0.6327868852459008
2018-06-20,0.9303482587064673
2018-06-21,0.8778501628664503
2018-06-22,0.8564437194127249
2018-06-25,0.8564437194127249
2018-06-26,0.29761904761904723
2018-06-27,0.0
2018-06-28,0.0
2018-06-29,0.027726432532346853
2018-07-02,0.07809523809523926
2018-07-03,0.19806763285024473
2018-07-04,0.4939759036144625
2018-07-05,0.6727272727272842
2018-07-06,0.6210526315789665
2018-07-09,0.3793103448276037
2018-07-10,0.27731092436976
2018-07-11,0.5648854961832096
2018-07-12,0.37272727272727185
2018-07-13,0.48120300751878736
2018-07-16,0.5260739702132078
2018-07-17,0.7577816609951109
2018-07-18,0.22215369841018898
2018-07-19,0.1999764973485166
2018-07-20,0.0
2018-07-23,0.08315893716225432
2018-07-24,0.13597943265754447
2018-07-25,0.2093784809172416
2018-07-26,0.4038018391827726
2018-07-27,0.9374999999999666
2018-07-30,0.5344827586206778
2018-07-31,0.41176470588233843
2018-08-01,0.589041095890412
2018-08-02,0.49152542372882113
2018-08-03,0.6707317073170828
2018-08-06,0.9508196721311408
2018-08-07,1.0
2018-08-08,0.9032258064516081
2018-08-09,0.7938144329896878
2018-08-10,0.5795454545454509
2018-08-13,0.8271028037383125
2018-08-14,0.5707964601769869
2018-08-15,0.6036036036036033
2018-08-16,0.6607929515418505
2018-08-17,0.8319327731092443
2018-08-20,0.5714285714285735
2018-08-21,0.7391304347826109
2018-08-22,0.7777777777777776
2018-08-23,0.7777777777777767
2018-08-24,0.30545454545454076
2018-08-27,0.4343891402714889
2018-08-28,0.3598130841121419
2018-08-29,0.1590909090909065
2018-08-30,0.057416267942585614
2018-08-31,0.11320754716981636
2018-09-03,0.09615384615384776
2018-09-04,0.20388349514562773
2018-09-05,0.16279069767441487
2018-09-06,0.4380952380952386
2018-09-07,0.6407766990291273
2018-09-10,0.40579710144927333
2018-09-11,0.3333333333333361
2018-09-12,0.5181818181818174
2018-09-13,0.5137614678899114
2018-09-14,0.4000000000000025
2018-09-17,0.49315068493150555
2018-09-18,0.7156862745097996
2018-09-19,0.7563025210084001
2018-09-20,0.48175182481751455
2018-09-21,0.5394736842105206
2018-09-25,0.6212121212121194
2018-09-26,0.42857142857142294
2018-09-27,0.1467889908256806
2018-09-28,0.20253164556961278
2018-10-08,0.0
2018-10-09,0.48571428571428876
2018-10-10,0.4497354497354502
2018-10-11,0.6926406926406965
2018-10-12,0.7400881057268736
2018-10-15,0.85714285714285
2018-10-16,0.5030303030303003
2018-10-17,0.5220125786163535
2018-10-18,0.05405405405405094
2018-10-19,0.0
2018-10-22,0.006993006993008334
2018-10-23,0.10204081632653002
2018-10-24,0.2553191489361657
2018-10-25,0.8723404255319114
2018-10-26,0.8723404255319114
2018-10-29,0.9285714285714267
2018-10-30,0.9374999999999986
2018-10-31,0.8000000000000045
2018-11-01,0.5042735042735097
2018-11-02,0.8037735849056638
2018-11-05,0.6972111553784898
2018-11-06,0.50825082508251
2018-11-07,0.535836177474403
2018-11-08,0.6572438162544161
2018-11-09,0.13675213675213355
2018-11-12,0.2583333333333296
2018-11-13,0.35028248587569977
2018-11-14,0.5188284518828402
2018-11-15,0.3830645161290281
2018-11-16,0.5757575757575684
2018-11-19,0.32663316582914087
2018-11-20,0.569444444444442
2018-11-21,0.4285714285714279
2018-11-22,0.5859030837004414
2018-11-23,0.6273584905660413
2018-11-26,0.9193548387096832
2018-11-27,0.5496183206106939
2018-11-28,0.3809523809523836
2018-11-29,0.21348314606741378
2018-11-30,0.2183908045976976
2018-12-03,0.0
2018-12-04,0.0
2018-12-05,0.2223592098177476
2018-12-06,0.7329571397673721
2018-12-07,0.743287146688931
2018-12-10,0.7933798424337973
2018-12-11,0.9832786410194008
2018-12-12,0.9818543719179974
2018-12-13,0.2672435192194017
2018-12-14,0.47565619909573126
2018-12-17,0.475238504492958
2018-12-18,0.3333333333333355
2018-12-19,0.3154362416107338
2018-12-20,0.875000000000003
2018-12-21,0.6748971193415676
2018-12-24,0.6210937500000044
2018-12-25,0.7213114754098388
2018-12-26,0.6178571428571452
2018-12-27,0.06538461538461596
2018-12-28,0.07522123893805387
2019-01-02,0.14349775784753396
2019-01-03,0.06849315068493093
2019-01-04,0.08241758241758168
2019-01-07,0.1874999999999972
2019-01-08,0.49999999999999434
2019-01-09,0.31192660550458684
2019-01-10,0.2905982905982938
2019-01-11,0.48734177215190083
2019-01-14,0.7283236994219684
2019-01-15,0.6216216216216213
2019-01-16,0.6917293233082653
2019-01-17,0.814159292035392
2019-01-18,0.6202531645569589
2019-01-21,0.4000000000000002
2019-01-22,0.7529411764705934
2019-01-23,0.9009900990099123
2019-01-24,0.9181818181818243
2019-01-25,0.8706896551724144
2019-01-28,0.8623853211009193
2019-01-29,0.4672897196261727
2019-01-30,0.22999999999999543
2019-01-31,0.35294117647059736
2019-02-01,0.4259259259259359
2019-02-11,0.3027522935779894
2019-02-12,0.41772151898734705
2019-02-13,0.5806451612903283
2019-02-14,0.39534883720929936
2019-02-15,0.49999999999998934
2019-02-18,0.2826086956521683
2019-02-19,0.6223776223776187
2019-02-20,0.6766467065868241
2019-02-21,0.5537634408602087
2019-02-22,0.5172413793103371
2019-02-25,0.7637795275590424
2019-02-26,0.5999999999999884
2019-02-27,0.24324324324324642
2019-02-28,0.5000000000000099
2019-03-01,0.8785046728971991
2019-03-04,0.9281767955801121
2019-03-05,0.8831521739130447
2019-03-06,0.9658634538152608
2019-03-07,0.9680451127819546
2019-03-08,0.8309859154929602
2019-03-11,0.5050761421319803
2019-03-12,0.6583493282149728
2019-03-13,0.42694063926940756
2019-03-14,0.3661616161616191
2019-03-15,0.31590413943355183
2019-03-18,0.45738636363636426
2019-03-19,0.046321525885561474
2019-03-20,0.054487179487182937
2019-03-21,0.04324324324324455
2019-03-22,0.34261838440111625
2019-03-25,0.27792207792207824
2019-03-26,0.4572649572649578
2019-03-27,0.42125984251968585
2019-03-28,0.7562326869806089
2019-03-29,0.5570469798657703
2019-04-01,0.6989966555183962
2019-04-02,0.7544910179640723
2019-04-03,0.8503268730112823
2019-04-04,0.29795834719384195
2019-04-08,0.29557313533978735
2019-04-09,0.16771629716440895
2019-04-10,0.0
2019-04-11,0.0
2019-04-12,0.12418794208441797
2019-04-15,0.5691800652377054
2019-04-16,0.5026385943919848
2019-04-17,0.2971014492753561
2019-04-18,0.5454545454545406
2019-04-19,0.4647058823529345
2019-04-22,0.2916666666666634
2019-04-23,0.2865497076023405
2019-04-24,0.6798029556650285
2019-04-25,0.43842364532020267
2019-04-26,0.6000000000000053
2019-04-29,0.6024590163934495
2019-04-30,0.6391304347826107
2019-05-06,0.3515151515151506
2019-05-07,0.6258064516128993
2019-05-08,0.23493975903614295
2019-05-09,0.5798319327731073
2019-05-10,0.6529850746268648
2019-05-13,0.5872483221476498
2019-05-14,0.5607142857142842
2019-05-15,0.7302325581395366
2019-05-16,0.28431372549019374
2019-05-17,0.12280701754385846
2019-05-20,0.1489361702127662
2019-05-21,0.0
2019-05-22,0.1794871794871793
2019-05-23,0.538461538461546
2019-05-24,0.5316455696202531
2019-05-27,0.7354497354497288
2019-05-28,0.939189189189178
2019-05-29,0.9587155963302675
2019-05-30,0.8888888888888758
2019-05-31,0.9199999999999928
2019-06-03,0.6543209876543185
2019-06-04,0.6728395061728405
2019-06-05,0.02339181286550376
2019-06-06,0.0238095238095307
2019-06-10,0.03529411764705918
2019-06-11,0.061538461538462
2019-06-12,0.03311258278145362
2019-06-13,0.25581395348836283
2019-06-14,0.1964285714285656
2019-06-17,0.12307692307692661
2019-06-18,0.06382978723404355
2019-06-19,0.6502732240437167
2019-06-20,0.644444444444444
2019-06-21,0.7455621301775139
2019-06-24,0.7590361445783051
2019-06-25,0.9333333333333291
2019-06-26,0.09774436090226098
2019-06-27,0.18918918918920416
2019-06-28,0.09944751381216724
2019-07-01,0.5947368421052671
2019-07-02,0.6061381074168821
2019-07-03,0.8639240506329112
2019-07-04,0.8561872909698985
2019-07-05,1.0
2019-07-08,0.2984126984126947
2019-07-09,0.3961748633879777
2019-07-10,0.2875989445910292
2019-07-11,0.26535626535626655
2019-07-12,0.1614583333333356
2019-07-15,0.6505190311418696
2019-07-16,0.4359861591695484
2019-07-17,0.5762081784386597
2019-07-18,0.6224899598393558
2019-07-19,0.7053941908713681
2019-07-22,0.17670682730923903
2019-07-23,0.2433862433862471
2019-07-24,0.13855421686747518
2019-07-25,0.17283950617284222
2019-07-26,0.07558139534883511
2019-07-29,0.7767857142857072
2019-07-30,0.7727272727272655
2019-07-31,0.6475409836065555
2019-08-01,0.516451753006541
2019-08-02,0.6959961110129042
2019-08-05,0.3028886315309826
2019-08-06,0.557880446234517
2019-08-07,0.6615446643120867
2019-08-08,0.9165939606604797
2019-08-09,0.9386303648211836
2019-08-12,1.0
2019-08-13,1.0
2019-08-14,1.0
2019-08-15,0.8360655737704944
2019-08-16,0.6613333333333347
2019-08-19,0.4961636828644504
2019-08-20,0.4152744630071592
2019-08-21,0.0
2019-08-22,0.09793814432989484
2019-08-23,0.2248677248677246
2019-08-26,0.4162303664921461
2019-08-27,0.5320855614973254
2019-08-28,1.0
2019-08-29,0.834042553191492
2019-08-30,0.5359712230215814
2019-09-02,0.2808988764044942
2019-09-03,0.13358778625954296
2019-09-04,0.0
2019-09-05,0.03030303030303327
2019-09-06,0.43016759776536456
2019-09-09,0.6776859504132232
2019-09-10,0.7735849056603763
2019-09-11,0.6890756302520976
2019-09-12,0.4840764331210146
2019-09-16,0.03105590062111979
2019-09-17,0.00636942675158731
2019-09-18,0.007246376811588516
2019-09-19,0.007299270072987048
2019-09-20,0.06122448979591562
2019-09-23,0.4516129032258447
2019-09-24,0.8411214953271188
2019-09-25,0.7031250000000101
2019-09-26,0.8035714285714332
2019-09-27,0.8804347826086969
2019-09-30,0.8508287292817664
2019-10-08,0.36492890995260563
2019-10-09,0.5773584905660378
2019-10-10,0.5942028985507245
2019-10-11,0.3295454545454562
2019-10-14,0.4360655737704946
2019-10-15,0.7031963470319645
2019-10-16,0.4814814814814759
2019-10-17,0.4036144578313197
2019-10-18,0.682242990654193
2019-10-21,0.19565217391302903
2019-10-22,0.048780487804873866
2019-10-23,0.045801526717554025
2019-10-24,0.3888888888888891
2019-10-25,0.5154185022026453
2019-10-28,0.7748344370860983
2019-10-29,0.7697368421052672
2019-10-30,0.9553072625698317
2019-10-31,0.6645962732919228
2019-11-01,0.4576271186440646
2019-11-04,0.6037735849056602
2019-11-05,0.76271186440678
2019-11-06,0.7395348837209323
2019-11-07,0.9512195121951238
2019-11-08,0.9027777777777755
2019-11-11,0.9009433962264127
2019-11-12,0.45922746781115664
2019-11-13,0.24666666666666476
2019-11-14,0.12582781456953668
2019-11-15,0.12582781456953712
2019-11-18,0.0
2019-11-19,0.0
2019-11-20,0.5128205128205169
2019-11-21,0.6960000000000033
2019-11-22,0.7631578947368385
2019-11-25,0.9009009009009009
2019-11-26,0.9358974358974311
2019-11-27,0.5038167938931308
2019-11-28,0.5075757575757597
2019-11-29,0.7453703703703729
2019-12-02,0.6636771300448472
2019-12-03,0.47441860465116314
2019-12-04,0.5698324022346356
2019-12-05,0.4563106796116485
2019-12-06,0.0
2019-12-09,0.0
2019-12-10,0.18671636161428876
2019-12-11,0.21082834711689422
2019-12-12,0.29431637297973784
2019-12-13,0.7705816562778199
2019-12-16,0.9952770197631291
2019-12-17,0.9619890839570776
2019-12-18,0.9771477185051407
2019-12-19,0.9858121823251611
2019-12-20,0.757845417297079
2019-12-23,0.5193548387096751
2019-12-24,0.4999999999999983
2019-12-25,0.33850931677018414
2019-12-26,0.0
2019-12-27,0.19396551724138042
2019-12-30,0.25862068965517426
2019-12-31,0.39572192513369264
2020-01-02,0.5704225352112737
2020-01-03,0.7570093457944033
2020-01-06,0.37500000000000994
2020-01-07,0.5833333333333384
2020-01-08,0.5631067961165058
2020-01-09,0.7540983606557379
2020-01-10,0.7624309392265142
2020-01-13,0.9531249999999972
2020-01-14,0.9285714285714245
2020-01-15,0.9230769230769194
2020-01-16,0.3454545454545481
2020-01-17,0.2766990291262165
2020-01-20,0.05633802816901689
2020-01-21,0.3148788927335663
2020-01-22,0.26245847176079795
2020-01-23,0.6062499999999986
2020-02-03,0.8344226579520695
2020-02-04,0.9546313799621925
2020-02-05,0.9342105263157886
2020-02-06,0.9888888888888885
2020-02-07,0.9862700228832948
2020-02-10,0.6285714285714292
2020-02-11,0.340909090909095
2020-02-12,0.4099216710182808
2020-02-13,0.1317204301075316
2020-02-14,0.07535641547861556
2020-02-17,0.2361445783132544
2020-02-18,0.28823529411764676
2020-02-19,0.16137566137566145
2020-02-20,0.39226519337016313
2020-02-21,0.6775362318840533
2020-02-24,0.5206611570247864
2020-02-25,0.5936254980079663
2020-02-26,0.6898148148148111
2020-02-27,0.2821576763485474
2020-02-28,0.5696517412935317
2020-03-02,0.6303797468354425
2020-03-03,0.6726457399103124
2020-03-04,0.7511737089201871
2020-03-05,1.0
2020-03-06,0.3681159420289846
2020-03-09,0.302259887005649
2020-03-10,0.25151515151515214
2020-03-11,0.17696629213483267
2020-03-12,0.380549682875267
2020-03-13,0.7928176795580124
2020-03-16,0.8711484593837554
2020-03-17,0.5812917594654808
2020-03-18,0.7629382303839736
2020-03-19,0.6123595505617973
2020-03-20,0.41745730550284643
2020-03-23,0.33910034602075984
2020-03-24,0.49044585987260986
2020-03-25,0.07462686567164234
2020-03-26,0.08663366336633738
2020-03-27,0.2845744680851055
2020-03-30,0.5149999999999995
2020-03-31,0.6024590163934418
2020-04-01,1.0
2020-04-02,0.8164276448907728
2020-04-03,0.6630628572361117
2020-04-07,0.4860111579994998
2020-04-08,0.15910977677324237
2020-04-09,0.0
2020-04-10,0.0
2020-04-13,0.2523001410726478
2020-04-14,0.2751341078340107
2020-04-15,0.5054347826086919
2020-04-16,0.6789473684210482
2020-04-17,0.8101851851851813
2020-04-20,0.3388429752066108
2020-04-21,0.5896656534954413
2020-04-22,0.6792452830188708
2020-04-23,0.5320197044334993
2020-04-24,0.4126213592233037
2020-04-27,0.6371681415929207
2020-04-28,0.30232558139534943
2020-04-29,0.13897280966767228
2020-04-30,0.23021582733812954
2020-05-06,0.27467811158798316
2020-05-07,0.08695652173913253
2020-05-08,0.16216216216216656
2020-05-11,0.3424657534246612
2020-05-12,0.10294117647058378
2020-05-13,0.5970149253731362
2020-05-14,0.5755395683453265
2020-05-15,0.6504065040650431
2020-05-18,0.7345679012345717
2020-05-19,0.8429319371727758
2020-05-20,0.4680851063829777
2020-05-21,0.5238095238095236
2020-05-22,0.6753246753246741
2020-05-25,0.434782608695648
2020-05-26,0.2556390977443601
2020-05-27,0.3451776649746203
2020-05-28,0.7033492822966523
2020-05-29,0.6026666666666682
2020-06-01,0.7711864406779698
2020-06-02,0.9177215189873432
2020-06-03,0.926900584795321
2020-06-04,0.36399999999999516
2020-06-05,0.32042253521126257
2020-06-08,0.1856540084388113
2020-06-09,0.11739130434782137
2020-06-10,0.0
2020-06-11,0.0
2020-06-12,0.4233576642335779
2020-06-15,0.5752688172043042
2020-06-16,0.6714285714285715
2020-06-17,0.6980198019801978
2020-06-18,0.7790055248618809
2020-06-19,0.6484375000000039
2020-06-22,0.23129251700679931
2020-06-23,0.0
2020-06-24,0.2629107981220634
2020-06-29,0.3899999999999971
2020-06-30,0.3627906976744169
2020-07-01,0.574074074074077
2020-07-02,0.8305084745762759
2020-07-03,0.4468085106383051
2020-07-06,0.48000000000000814
2020-07-07,0.5517241379310361
2020-07-08,0.6355140186915905
2020-07-09,0.6666666666666697
2020-07-10,0.9222222222222175
2020-07-13,0.9465648854961791
2020-07-14,1.0
2020-07-15,0.7727272727272673
2020-07-16,0.8187311178247684
2020-07-17,0.8983050847457599
2020-07-20,0.9099099099099076
2020-07-21,0.8210702341137086
2020-07-22,0.9483516483516473
2020-07-23,0.953187250996015
2020-07-24,0.8289473684210511
2020-07-27,0.6447058823529399
2020-07-28,0.7281449893390185
2020-07-29,0.3546180159635116
2020-07-30,0.1534090909090904
2020-07-31,0.1603325415676958
2020-08-03,0.33007334963325274
2020-08-04,0.1753246753246766
2020-08-05,0.3002159827213872
2020-08-06,0.6555819477434711
2020-08-07,0.8202479338842986
2020-08-10,0.8079470198675502
2020-08-11,1.0
2020-08-12,1.0
2020-08-13,0.780203453072522
2020-08-14,0.3953287157455251
2020-08-17,0.14964786724739526
2020-08-18,0.043901908677898976
2020-08-19,0.0
2020-08-20,0.007860704703420037
2020-08-21,0.12330797297197357
2020-08-24,0.12993114984534815
2020-08-25,0.388157894736844
2020-08-26,0.5531249999999993
2020-08-27,0.4219512195121921
2020-08-28,0.4233576642335751
2020-08-31,0.7015873015872985
2020-09-01,0.5085910652920919
2020-09-02,0.28896103896104
2020-09-03,0.5519713261648779
2020-09-04,0.36363636363636676
2020-09-07,0.23722627737226482
2020-09-08,0.40520446096654505
2020-09-09,0.6842105263157879
2020-09-10,0.4285714285714274
2020-09-11,0.6100917431192638
2020-09-14,0.7591973244147171
2020-09-15,0.5041322314049579
2020-09-16,0.35483870967741926
2020-09-17,0.6289855072463753
2020-09-18,0.723542116630669
2020-09-21,0.7414141414141413
2020-09-22,0.9636363636363641
2020-09-23,1.0
2020-09-24,0.9969512195121961
2020-09-25,0.7807807807807817
2020-09-28,0.5580736543909351
2020-09-29,0.34580838323353325
2020-09-30,0.0
2020-10-09,0.0
2020-10-12,0.053264604810997165
2020-10-13,0.06724511930585769
2020-10-14,0.08446866485013753
2020-10-15,0.13419913419913518
2020-10-16,0.5761194029850775
2020-10-19,0.6011235955056214
2020-10-20,0.7006172839506176
2020-10-21,0.8041543026706208
2020-10-22,1.0
2020-10-23,0.5359999999999984
2020-10-26,0.450151057401807
2020-10-27,0.3788300835654566
2020-10-28,0.2690058479532162
2020-10-29,0.40898345153664195
2020-10-30,0.835497835497836
2020-11-02,0.7893660531697346
2020-11-03,0.8734693877551022
2020-11-04,0.9377224199288238
2020-11-05,0.8271028037383208
2020-11-06,0.36814621409921827
2020-11-09,0.5933202357563888
2020-11-10,0.5843373493975946
2020-11-11,0.4373576309795035
2020-11-12,0.3832335329341334
2020-11-13,0.49484536082474156
2020-11-16,0.08563535911602312
2020-11-17,0.13350785340314397
2020-11-18,0.12977099236641426
2020-11-19,0.14285714285714457
2020-11-20,0.3160762942779325
2020-11-23,0.3636363636363655
2020-11-24,0.20900321543408476
2020-11-25,0.4475920679886704
2020-11-26,0.4968553459119525
2020-11-27,0.30097087378640996
2020-11-30,0.6160714285714295
2020-12-01,0.6809210526315763
2020-12-02,0.5135135135135059
2020-12-03,0.6563876651982306
2020-12-04,0.9051724137930919
2020-12-07,0.4033613445378122
2020-12-08,0.37342825974622723
2020-12-09,0.29441854148748886
2020-12-10,0.1716204852423635
2020-12-11,0.0
2020-12-14,0.11747856007545679
2020-12-15,0.12668575303247373
2020-12-16,0.4075824835032847
2020-12-17,0.8222565687789674
2020-12-18,0.5921450151057404
2020-12-21,0.5597826086956493
2020-12-22,0.7705479452054775
2020-12-23,0.6654929577464807
2020-12-24,0.723837209302327
2020-12-25,0.9066666666666704
2020-12-28,0.9234972677595659
2020-12-29,0.6334310850439928
2020-12-30,0.7593052109181164
2020-12-31,0.4224719101123634
2021-01-04,0.5673400673400667
2021-01-05,0.42740619902120947
2021-01-06,0.558260869565221
2021-01-07,0.4293680297397788
2021-01-08,0.6423357664233625
2021-01-11,0.28307692307692983
2021-01-12,0.4734848484848457
2021-01-13,0.4349593495934903
2021-01-14,0.6627450980392116
2021-01-15,0.6653696498054443
2021-01-18,0.9144385026737943
2021-01-19,0.7005076142132015
2021-01-20,0.6445783132530113
2021-01-21,0.3124999999999965
2021-01-22,0.06329113924049327
2021-01-25,0.06289308176099237
2021-01-26,0.3727810650887336
2021-01-27,0.21991701244812406
2021-01-28,0.20622568093384702
2021-01-29,0.38976377952755037
2021-02-01,0.3975903614457776
2021-02-02,0.20444444444443913
2021-02-03,0.4519774011299404
2021-02-04,0.5755395683453192
2021-02-05,0.5785714285714372
2021-02-08,0.4378378378378501
2021-02-09,0.6359223300970971
2021-02-10,0.37164750957854836
2021-02-18,0.6043360433604352
2021-02-19,0.3955056179775247
2021-02-22,0.5371179039301255
2021-02-23,0.5214446952595884
2021-02-24,0.7448132780082959
2021-02-25,0.6083550913838099
2021-02-26,0.9291338582677171
2021-03-01,0.9360189573459714
2021-03-02,0.841121495327108
2021-03-03,0.7631578947368487
2021-03-04,0.8728813559322101
2021-03-05,0.8339483394833999
2021-03-08,0.8652694610778522
2021-03-09,0.9906542056074775
2021-03-10,1.0
2021-03-11,0.953161592505856
2021-03-12,0.8218262806236114
2021-03-15,0.4987212276214805
2021-03-16,0.17341040462428117
2021-03-17,0.0
2021-03-18,0.04329896907217629
2021-03-19,0.04411764705883487
2021-03-22,0.04356846473030198
2021-03-23,0.30783582089552414
2021-03-24,0.6155555555555603
2021-03-25,0.44137931034482314
2021-03-26,0.6749999999999969
2021-03-29,0.7874999999999932
2021-03-30,0.6157205240174649
2021-03-31,0.5471698113207503
2021-04-01,0.8610086100861012
2021-04-02,0.550991501416429
2021-04-06,0.5301165120273537
2021-04-07,0.5258877203719596
2021-04-08,0.48565040794453507
2021-04-09,0.0
2021-04-12,0.0
2021-04-13,0.0
2021-04-14,0.09419066266683278
2021-04-15,0.2806696770255882
2021-04-16,0.83361788468831
2021-04-19,0.7674418604651201
2021-04-20,0.8250000000000036
2021-04-21,0.8147058823529457
2021-04-22,0.5625000000000049
2021-04-23,0.1705882352941271
2021-04-26,0.7312925170068092
2021-04-27,0.7784090909091007
2021-04-28,0.7941952506596406
2021-04-29,0.7757731958762899
2021-04-30,0.7132701421800951
2021-05-06,0.6084142394822022
2021-05-07,0.46402877697841427
2021-05-10,0.22600619195046173
2021-05-11,0.5027932960893844
2021-05-12,0.6964705882352906
2021-05-13,0.4684873949579809
2021-05-14,0.6192893401015228
2021-05-17,0.8015999999999988
2021-05-18,0.6840277777777737
2021-05-19,0.5265151515151475
2021-05-20,0.5419103313840137
2021-05-21,0.2652259332023569
2021-05-24,0.0
2021-05-25,0.0
2021-05-26,0.0
2021-05-27,0.21958456973292567
2021-05-28,0.6207951070336302
2021-05-31,0.4346895074946373
2021-06-01,0.5227272727272672
2021-06-02,0.6909492273730629
2021-06-03,0.6788990825688045
2021-06-04,0.3719376391982172
2021-06-07,0.6933045356371493
2021-06-08,0.7345794392523365
2021-06-09,0.5838041431261762
2021-06-10,0.428087986463622
2021-06-11,0.6064257028112459
2021-06-15,0.33183856502242337
2021-06-16,0.29216152019002484
2021-06-17,0.4883177570093498
2021-06-18,0.716666666666668
2021-06-21,0.6129032258064557
2021-06-22,0.8989898989899043
2021-06-23,0.6031250000000128
2021-06-24,0.35666666666667685
2021-06-25,0.21804511278196903
2021-06-28,0.41639344262296185
2021-06-29,0.18801089918256156
2021-06-30,0.1760204081632636
2021-07-01,0.460084033613442
2021-07-02,0.39459459459458796
2021-07-05,0.2884615384615324
2021-07-06,0.3409090909090868
2021-07-07,0.6363636363636324
2021-07-08,0.31858407079645723
2021-07-09,0.5296703296703332
2021-07-12,0.5227765726681188
2021-07-13,0.6648044692737425
2021-07-14,0.4503171247357273
2021-07-15,0.6103151862464234
2021-07-16,0.34939759036144036
2021-07-19,0.391891891891882
2021-07-20,0.29411764705883087
2021-07-21,0.5780590717299607
2021-07-22,0.7579250720461013
2021-07-23,0.9868421052631505
2021-07-26,1.0
2021-07-27,0.870026525198936
2021-07-28,0.8664850136239777
2021-07-29,0.43146067415731415
2021-07-30,0.43652561247216914
2021-08-02,0.2390745501285467
2021-08-03,0.2440944881889903
2021-08-04,0.12424242424242594
2021-08-05,0.37499999999999495
2021-08-06,0.059431273481011515
2021-08-09,0.05537926931267637
2021-08-10,0.05957198145823944
2021-08-11,0.2323412426278835
2021-08-12,0.21627718828763107
2021-08-13,0.3513543714683321
2021-08-16,0.7690520903836092
2021-08-17,0.9309364638546127
2021-08-18,0.24094861790767036
2021-08-19,0.4111842105263094
2021-08-20,0.48414985590777726
2021-08-23,0.43174603174603005
2021-08-24,0.4819277108433728
2021-08-25,1.0
2021-08-26,1.0
2021-08-27,0.8549618320610735
2021-08-30,0.5523255813953474
2021-08-31,0.4355828220858978
2021-09-01,0.3517241379310523
2021-09-02,0.0
2021-09-03,0.44871794871796883
2021-09-06,0.5198019801980426
2021-09-07,0.4233870967741959
2021-09-08,0.41999999999999393
2021-09-09,0.6388888888888729
2021-09-10,0.30270270270268895
2021-09-13,0.33333333333331866
2021-09-14,0.5819672131147512
2021-09-15,0.7539267015706821
2021-09-16,0.5465838509316807
2021-09-17,0.7953216374269018
2021-09-22,0.8579234972677576
2021-09-23,0.9322916666666642
2021-09-24,0.7702702702702717
2021-09-27,0.7539682539682556
2021-09-28,0.6388140161725072
2021-09-29,0.57294429708223
2021-09-30,0.28761061946905303
2021-10-08,0.5750000000000165
2021-10-11,0.8571428571428628
2021-10-12,0.9505494505494547
2021-10-13,1.0
2021-10-14,0.9975460122699391
2021-10-15,0.9487179487179508
2021-10-18,0.6762589928057573
2021-10-19,0.5233236151603478
2021-10-20,0.0
2021-10-21,0.0
2021-10-22,0.17484276729559783
2021-10-25,0.2256493506493499
2021-10-26,0.39613526570048063
2021-10-27,0.5885167464114811
2021-10-28,0.8655913978494636
2021-10-29,0.7967479674796741
2021-11-01,0.7747035573122574
2021-11-02,0.3787234042553214
2021-11-03,0.6091954022988482
2021-11-04,0.3458333333333247
2021-11-05,0.28455284552844773
2021-11-08,0.751524390243903
2021-11-09,0.8983516483516459
2021-11-10,0.9197396963123629
2021-11-11,0.9339207048458112
2021-11-12,0.7925233644859815
2021-11-15,0.4228855721393019
2021-11-16,0.23592493297587197
2021-11-17,0.0
2021-11-18,0.0
2021-11-19,0.004280821917807038
2021-11-22,0.08833522083805107
2021-11-23,0.20060331825037303
2021-11-24,0.5596590909090903
2021-11-25,1.0
2021-11-26,0.9240000000000061
2021-11-29,0.6752136752136859
2021-11-30,0.6793248945147825
2021-12-01,0.5730337078651844
2021-12-02,0.6256157635468125
2021-12-03,0.8843813387423957
2021-12-06,0.802946593001845
2021-12-07,0.774590163934434
2021-12-08,0.7750511247443822
2021-12-09,0.7429906542056105
2021-12-10,0.024188373310126965
2021-12-13,0.321241212923946
2021-12-14,0.2412528033493304
2021-12-15,0.22578008538892114
2021-12-16,0.31661896008588014
2021-12-17,0.6797357312093351
2021-12-20,0.543908738346488
2021-12-21,0.9020288416099325
2021-12-22,0.7481190465672118
2021-12-23,0.43817787418655524
2021-12-24,0.23655913978495124
2021-12-27,0.16087751371115475
2021-12-28,0.04968944099379242
2021-12-29,0.20000000000000687
2021-12-30,0.35135135135135775
2021-12-31,0.2392638036809834
2022-01-04,0.6824561403508757
2022-01-05,0.7670527670527656
2022-01-06,0.7267683772538136
2022-01-07,0.78159645232816
2022-01-10,0.9811097992916191
2022-01-11,0.6970074812967614
2022-01-12,0.3526881720430115
2022-01-13,0.35497835497835467
2022-01-14,0.15517241379310262
2022-01-17,0.07171853856562808
2022-01-18,0.19473684210525952
2022-01-19,0.7093023255813911
2022-01-20,0.7766749379652595
2022-01-21,0.8459459459459493
2022-01-24,0.6788511749347277
2022-01-25,0.6158536585365887
2022-01-26,0.20353982300885015
2022-01-27,0.0
2022-01-28,0.04615384615383887
2022-02-07,0.44671201814058287
2022-02-08,0.6009933774834388
2022-02-09,0.8462757527733729
2022-02-10,0.9518716577540118
2022-02-11,0.951871657754012
2022-02-14,0.5847176079734263
2022-02-15,0.26533523537803516
2022-02-16,0.02512562814070287
2022-02-17,0.1526717557251954
2022-02-18,0.12039660056657739
2022-02-21,0.49234693877551383
2022-02-22,0.7698961937716288
2022-02-23,0.906382978723407
2022-02-24,0.9433962264150957
2022-02-25,1.0
2022-02-28,1.0
2022-03-01,1.0
2022-03-02,1.0
2022-03-03,0.8274509803921565
2022-03-04,0.4375000000000001
2022-03-07,0.4644322845417262
2022-03-08,0.14336598397150838
2022-03-09,0.1576182136602485
2022-03-10,0.4145031333930209
2022-03-11,0.6132450331125839
2022-03-14,0.3931535269709547
2022-03-15,0.43865740740740644
2022-03-16,0.312362030905076
2022-03-17,0.0
2022-03-18,0.0
2022-03-21,0.06983655274888562
2022-03-22,0.05802469135802479
2022-03-23,0.05257270693512309
2022-03-24,0.16640746500777703
2022-03-25,0.15507246376811726
2022-03-28,0.07643312101910933
2022-03-29,0.1005025125628154
2022-03-30,0.14492753623188656
2022-03-31,0.0
2022-04-01,0.17919075144508528
2022-04-06,0.6182795698924738
2022-04-07,0.6763590391908971
2022-04-08,0.6755050505050506
2022-04-11,0.9220252420451888
2022-04-12,0.9297419197066342
2022-04-13,0.35133302386517706
2022-04-14,0.3059504777405725
2022-04-15,0.4354061862400313
2022-04-18,0.5163657592587941
2022-04-19,0.28527597179472614
2022-04-20,0.5947433920669245
2022-04-21,0.5299549382052766
2022-04-22,0.3718166383701156
2022-04-25,0.4729344729344754
2022-04-26,0.812030075187971
2022-04-27,0.6460843373493999
2022-04-28,0.7389502762430923
2022-04-29,0.8539176626826032
2022-05-05,0.614264919941772
2022-05-06,0.3287250384024526
2022-05-09,0.36456558773423486
2022-05-10,0.19014084507042248
2022-05-11,0.0
2022-05-12,0.0
2022-05-13,0.1503006012024097
2022-05-16,0.34939759036145235
2022-05-17,0.4611111111111167
2022-05-18,0.6442953020134256
2022-05-19,0.6744730679156946
2022-05-20,0.645408163265306
2022-05-23,0.3164556962025304
2022-05-24,0.15520628683693216
2022-05-25,0.07843137254901741
2022-05-26,0.09708737864077437
2022-05-27,0.0
2022-05-30,0.11501597444088861
2022-05-31,0.3352272727272658
2022-06-01,0.3933333333333253
2022-06-02,0.579831932773095
2022-06-06,0.8999999999999934
2022-06-07,0.9041095890410912
2022-06-08,0.95394736842105
2022-06-09,1.0
2022-06-10,1.0
2022-06-13,0.7151079136690683
2022-06-14,0.7000000000000042
2022-06-15,0.6759410801964049
2022-06-16,0.6495575221238941
2022-06-17,0.4528301886792429
2022-06-20,0.8174603174603176
2022-06-21,0.8535031847133774
2022-06-22,0.7150442477876165
2022-06-23,0.6047904191616856
2022-06-24,0.9086206896551766
2022-06-27,0.8943170488534448
2022-06-28,0.8597081930415269
2022-06-29,0.8927738927738862
2022-06-30,0.8054679284963148
2022-07-01,0.02808988764044614
2022-07-04,0.0
2022-07-05,0.21671018276762388
2022-07-06,0.5125324114088161
2022-07-07,0.64191419141914
2022-07-08,0.824152542372879
2022-07-11,0.9298618490967047
2022-07-12,0.7324380165289235
2022-07-13,0.32563510392609585
2022-07-14,0.47810545129580184
2022-07-15,0.4632034632034653
2022-07-18,0.39782016348774024
2022-07-19,0.6043771043771066
2022-07-20,0.6883988494726786
2022-07-21,0.22969647251845818
2022-07-22,0.22257551669316444
2022-07-25,0.22635408245755848
2022-07-26,0.0
2022-07-27,0.0
2022-07-28,0.38554216867469987
2022-07-29,0.4539007092198574
2022-08-01,0.6044260027662542
2022-08-02,0.7287853577371044
2022-08-03,0.9273049645390042
2022-08-04,0.8786982248520671
2022-08-05,1.0
2022-08-08,0.771260997067444
2022-08-09,0.4934086629001849
2022-08-10,0.3873085339168522
2022-08-11,0.24747474747474815
2022-08-12,0.0
2022-08-15,0.05252918287937607
2022-08-16,0.0741782431124175
2022-08-17,0.06714368761926932
2022-08-18,0.10018327310782486
2022-08-19,0.148921866136778
2022-08-22,0.0
2022-08-23,0.3417685372700108
2022-08-24,0.7019657908131779
2022-08-25,0.5928873950977377
2022-08-26,0.6220177777202223
2022-08-29,0.6191446028513314
2022-08-30,0.46203904555315406
2022-08-31,0.0
2022-09-01,0.4460694698354773
2022-09-02,0.4932203389830621
2022-09-05,0.5532319391634996
2022-09-06,0.529090909090909
2022-09-07,0.83542039355992
2022-09-08,0.3661740558292255
2022-09-09,0.2988115449915042
2022-09-13,0.26747720364741356
2022-09-14,0.32136752136751623
2022-09-15,0.020583190394508347
2022-09-16,0.10932475884244346
2022-09-19,0.11409395973154432
2022-09-20,0.4320241691842885
2022-09-21,0.5948275862068965
2022-09-22,0.9530201342281882
2022-09-23,0.9225352112676056
2022-09-26,0.9794871794871793
2022-09-27,0.9748427672955974
2022-09-28,0.5789473684210514
2022-09-29,0.6808510638297831
2022-09-30,0.7314148681055117
2022-10-10,0.7471783295711037
2022-10-11,0.6821345707656589
2022-10-12,0.9283667621776521
2022-10-13,0.5829015544041521
2022-10-14,0.5672043010752763
2022-10-17,0.14739229024943976
2022-10-18,0.14069264069264678
2022-10-19,0.12362030905076424
2022-10-20,0.22321428571427304
2022-10-21,0.11695906432747258
2022-10-24,0.3007518796992199
2022-10-25,0.3278688524589893
2022-10-26,0.13571428571428318
2022-10-27,0.0
2022-10-28,0.5751295336787722
2022-10-31,0.509174311926621
2022-11-01,0.8664192949907276
2022-11-02,0.9465153970826585
2022-11-03,0.8190743338008424
2022-11-04,0.8162393162393156
2022-11-07,0.8185714285714301
2022-11-08,0.2821846553966157
2022-11-09,0.12062726176115653
2022-11-10,0.2523696682464455
2022-11-11,0.13231850117096133
2022-11-14,0.16822429906541772
2022-11-15,0.41308793456032866
2022-11-16,0.687499999999997
2022-11-17,0.4417808219178021
2022-11-18,0.6113744075829434
2022-11-21,0.7847769028871474
2022-11-22,0.6548913043478238
2022-11-23,0.5317460317460316
2022-11-24,0.698296836982969
2022-11-25,0.6158798283261689
2022-11-28,0.244318181818175
2022-11-29,0.4609756097560942
2022-11-30,0.5439999999999977
2022-12-01,0.41438356164383583
2022-12-02,0.6233766233766294
2022-12-05,0.44036697247707823
2022-12-06,0.12058823529412642
2022-12-07,0.3265765765765746
2022-12-08,0.26843100189035746
2022-12-09,0.22796934865900165
2022-12-12,0.607142857142858
2022-12-13,0.8447761194029861
2022-12-14,0.6782496843178567
2022-12-15,0.7402325992016909
2022-12-16,0.8108393578067813
2022-12-19,0.5462930705966299
2022-12-20,0.2494137234430306
2022-12-21,0.32507988975555685
2022-12-22,0.41620920566001646
2022-12-23,0.13270187978414041
2022-12-26,0.25948599336349326
2022-12-27,0.6309012875536496
2022-12-28,0.5452755905511828
2022-12-29,0.3911504424778741
2022-12-30,0.5524999999999962
2023-01-03,0.5410256410256362
2023-01-04,0.06308411214953233
2023-01-05,0.2516411378555812
2023-01-06,0.4674418604651189
2023-01-09,0.5403726708074575
2023-01-10,0.49787234042553824
2023-01-11,0.7524115755627043
2023-01-12,0.4605678233438492
2023-01-13,0.4083044982698989
2023-01-16,0.20567375886524888
2023-01-17,0.13394919168591102
2023-01-18,0.36969696969696725
2023-01-19,0.515555555555555
2023-01-20,0.3391812865497105
2023-01-30,0.3663157894736838
2023-01-31,0.6382978723404275
2023-02-01,0.3709677419354891
2023-02-02,0.5289855072463774
2023-02-03,0.8321995464852547
2023-02-06,0.8703296703296716
2023-02-07,0.8148148148148161
2023-02-08,0.8009708737864093
2023-02-09,0.38986784140969233
2023-02-10,0.12341772151899048
2023-02-13,0.048109965635732825
2023-02-14,0.0420420420420367
2023-02-15,0.1864951768488711
2023-02-16,0.670454545454543
2023-02-17,0.3588039867109593
2023-02-20,0.26873385012919887
2023-02-21,0.3951612903225789
2023-02-22,0.26963350785340034
2023-02-23,0.16716417910446776
2023-02-24,0.23728813559321207
2023-02-27,0.4915254237288061
2023-02-28,0.23157894736840867
2023-03-01,0.37414965986394055
2023-03-02,0.22105263157895183
2023-03-03,0.42857142857143204
2023-03-06,0.6028368794326362
2023-03-07,0.7666666666666764
2023-03-08,0.770491803278697
2023-03-09,1.0
2023-03-10,1.0
2023-03-13,0.7197943444730035
2023-03-14,0.7866927592954973
2023-03-15,0.7931688804554075
2023-03-16,0.8104347826086954
2023-03-17,0.5539568345323792
2023-03-20,0.7721893491124313
2023-03-21,0.5896226415094424
2023-03-22,0.599078341013827
2023-03-23,0.6777777777777818
2023-03-24,0.6654545454545462
2023-03-27,0.7151702786377743
2023-03-28,0.6470588235294124
2023-03-29,0.6099071207430387
2023-03-30,0.2312138728323741
2023-03-31,0.291970802919711
2023-04-03,0.008849557522131315
2023-04-04,0.009259259259267183
2023-04-06,0.19548872180451785
2023-04-07,0.5131578947368587
2023-04-10,0.5000000000000145
2023-04-11,0.5032258064516206
2023-04-12,0.803867724744588
2023-04-13,0.5684481271268037
2023-04-14,0.38036599935079307
2023-04-17,0.3186766354830726
2023-04-18,0.36892349146075104
2023-04-19,0.02867757785897474
2023-04-20,0.03474770076175038
2023-04-21,0.24918201095770132
2023-04-24,0.5800120582756779
2023-04-25,0.45175438596492185
2023-04-26,0.7863247863247903
2023-04-27,0.7215686274509789
2023-04-28,0.498269896193772
2023-05-04,0.5797101449275357
2023-05-05,0.6865203761755478
2023-05-08,0.5520000000000019
2023-05-09,0.6293103448275884
2023-05-10,0.9340659340659372
2023-05-11,0.31677018633538223
2023-05-12,0.1777777777777605
2023-05-15,0.3703703703703496
2023-05-16,0.38181818181816757
2023-05-17,0.4112554112554035
2023-05-18,0.41666666666667146
2023-05-19,0.6854304635761654
2023-05-22,0.7654320987654385
2023-05-23,0.6834862385321185
2023-05-24,0.5896860986547163
2023-05-25,0.7858880778588861
2023-05-26,0.5480519480519555
2023-05-29,0.11834319526627231
2023-05-30,0.15657620041753156
2023-05-31,0.3915254237288126
2023-06-01,0.38527397260273977
2023-06-02,0.5089928057553913
2023-06-05,1.0
2023-06-06,1.0
2023-06-07,0.6327077747989202
2023-06-08,0.45728643216079284
2023-06-09,0.5167785234899296
2023-06-12,0.4586466165413562
2023-06-13,0.3333333333333395
2023-06-14,0.6336206896551754
2023-06-15,0.7577319587628867
2023-06-16,0.5392156862745017
2023-06-19,0.3591549295774491
2023-06-20,0.35416666666665586
2023-06-21,0.7047619047618995
2023-06-26,0.8613333333333348
2023-06-27,0.5714285714285778
2023-06-28,0.6944444444444524
2023-06-29,0.6390977443609119
2023-06-30,0.32440476190477185
2023-07-03,0.5102481121898637
2023-07-04,0.6419270833333365
2023-07-05,0.48831168831168736
2023-07-06,0.5692108667529051
2023-07-07,0.8071312803889736
2023-07-10,0.21679389312976438
2023-07-11,0.27234042553190874
2023-07-12,0.3872472783825783
2023-07-13,0.3287904599659294
2023-07-14,0.2202283849918441
2023-07-17,0.619909502262441
2023-07-18,0.319047619047622
2023-07-19,0.05154639175257615
2023-07-20,0.009389671361500687
2023-07-21,0.011363636363634518
2023-07-24,0.15942028985508103
2023-07-25,0.3113772455089853
2023-07-26,0.608465608465612
2023-07-27,0.7251461988304039
2023-07-28,1.0
2023-07-31,1.0
2023-08-01,0.9278350964297258
2023-08-02,0.7614377996361786
2023-08-03,0.7623575484353071
2023-08-04,0.7258939540252861
2023-08-07,0.16593897577364117
2023-08-08,0.17148751474279833
2023-08-09,0.3869263429613084
2023-08-10,0.4702842377260968
2023-08-11,0.2771084337349355
2023-08-14,0.42331288343557316
2023-08-15,0.5273224043715771
2023-08-16,0.29573934837092364
2023-08-17,0.14030612244897772
2023-08-18,0.4330218068535824
2023-08-21,0.5740259740259736
2023-08-22,0.5614973262032097
2023-08-23,0.7956204379562045
2023-08-24,1.0
2023-08-25,0.8072289156626498
2023-08-28,0.5433789954337961
2023-08-29,0.3676470588235334
2023-08-30,0.3333333333333306
2023-08-31,0.0
2023-09-01,0.18512813219695937
2023-09-04,0.4554003531193601
2023-09-05,0.3765519140251539
2023-09-06,0.4260859122588966
2023-09-07,0.7420500693141968
2023-09-08,0.7152225111093518
2023-09-11,0.3934378338215184
2023-09-12,0.5410274327672508
2023-09-13,0.6666666666666705
2023-09-14,0.5899053627760309
2023-09-15,0.5089820359281464
2023-09-18,0.7870370370370304
2023-09-19,0.8749999999999964
2023-09-20,0.44987775061124524
2023-09-21,0.39447236180904655
2023-09-22,0.4566929133858261
2023-09-25,0.41527446300716303
2023-09-26,0.045333333333331345
2023-09-27,0.23829787234042882
2023-09-28,0.18421052631579285
2023-10-09,0.23219814241487394
2023-10-10,0.5274463007159985
2023-10-11,0.6758409785932824
2023-10-12,0.7005649717514184
2023-10-13,0.9324758842443714
2023-10-16,0.7492625368731418
2023-10-17,0.30337078651683785
2023-10-18,0.3477011494252704
2023-10-19,0.14102564102563073
2023-10-20,0.1927710843373516
2023-10-23,0.19138755980861763
2023-10-24,0.6040723981900518
2023-10-25,0.5607064017660114
2023-10-26,0.771356783919605
2023-10-27,0.5581395348837243
2023-10-30,0.7021791767554464
2023-10-31,0.3433333333333347
2023-11-01,0.4013840830449822
2023-11-02,0.39298245614033495
2023-11-03,0.5803108808290043
2023-11-06,0.4335664335664159
2023-11-07,0.7749999999999909
2023-11-08,0.7313432835820833
2023-11-09,2.254411947751806e-14
2023-11-10,2.0411567635049134e-14
2023-11-13,0.221052631578971
2023-11-14,0.4112149532710392
2023-11-15,0.34920634920635335
2023-11-16,0.5116279069767381
2023-11-17,0.8014184397163187
2023-11-20,0.7076923076922962
2023-11-21,0.6666666666666579
2023-11-22,0.8623188405796903
2023-11-23,0.9242424242424012
2023-11-24,0.3291925465838278
2023-11-27,0.33333333333331433
2023-11-28,0.18875533325162364
2023-11-29,0.0635027933960668
2023-11-30,0.04548749724602695
2023-12-01,0.5691440117669375
2023-12-04,0.6540356067448284
2023-12-05,0.8011285425551842
2023-12-06,0.8059817203254958
2023-12-07,0.8812848112437579
2023-12-08,0.466811873824913
2023-12-11,0.16513761467890362
2023-12-12,0.24623115577889906
2023-12-13,0.12955465587045276
2023-12-14,0.043478260869564626
2023-12-15,0.04545454545454457
2023-12-18,0.09389671361502257
2023-12-19,0.0344827586206908
2023-12-20,0.042944785276074586
2023-12-21,0.3609022556390854
2023-12-22,0.7862595419847317
2023-12-25,0.8486486486486503
2023-12-26,0.7511961722487922
2023-12-27,0.7696078431372543
2023-12-28,0.54290639544907
2023-12-29,0.4845306713581802
2024-01-02,0.16647589851797728
2024-01-03,0.4257977109705527
2024-01-04,0.44232711950749637
2024-01-05,0.5052867259779352
2024-01-08,0.2580435270361204
2024-01-09,0.5327735219683847
2024-01-10,0.335180928512665
2024-01-11,0.34934497816593163
2024-01-12,0.47478991596639153
2024-01-15,0.826732673267323
2024-01-16,0.4461538461538492
2024-01-17,0.5738636363636502
2024-01-18,0.6666666666666758
2024-01-19,0.6256410256410255
2024-01-22,0.48951048951050763
2024-01-23,1.0
2024-01-24,0.809523809523805
2024-01-25,0.5937499999999917
2024-01-26,0.571428571428562
2024-01-29,0.3649635036496248
2024-01-30,0.38732394366195755
2024-01-31,0.4074074074073928
2024-02-01,0.551724137931025
2024-02-02,0.4903225806451632
2024-02-05,0.6725663716814062
2024-02-06,0.12755102040815974
2024-02-07,0.46153846153846156
2024-02-08,0.48494983277592296
2024-02-19,0.5424836601307174
2024-02-20,0.47293447293447627
2024-02-21,0.7901234567901279
2024-02-22,0.43367346938775286
2024-02-23,0.2146118721461116
2024-02-26,0.214611872146117
2024-02-27,0.4999999999999969
2024-02-28,0.33807829181494586
2024-02-29,0.3454545454545467
2024-03-01,0.4148471615720535
2024-03-04,0.3083333333333361
2024-03-05,0.0
2024-03-06,0.40217391304348415
2024-03-07,0.449392712550609
2024-03-08,0.558394160583938
2024-03-11,0.6095617529880365
2024-03-12,0.8403755868544481
2024-03-13,0.39306358381502704
2024-03-14,0.6787148594377563
2024-03-15,0.540425531914913
2024-03-18,0.7387862796833904
2024-03-19,0.7265193370165832
2024-03-20,0.9237057220708513
2024-03-21,0.8067796610169538
2024-03-22,0.8953068592057744
2024-03-25,0.38152610441765156
2024-03-26,0.5217391304347736
2024-03-27,0.36507936507936045
2024-03-28,0.34074074074073557
2024-03-29,0.3082706766917236
2024-04-01,0.609271523178804
2024-04-02,0.07299270072993398
2024-04-03,0.0509840042551579
2024-04-08,0.43214278296629693
2024-04-09,0.4198871242239057
2024-04-10,0.32265890344493753
2024-04-11,0.3752634811040502
2024-04-12,0.6819498965098856
2024-04-15,0.5704619062307194
2024-04-16,0.6616889622668113
2024-04-17,0.9063496036209279
2024-04-18,0.945054945054941
2024-04-19,0.7389162561576195
2024-04-22,0.4924812030075134
2024-04-23,0.7398843930635769
2024-04-24,0.5954356846472969
2024-04-25,0.7187499999999977
2024-04-26,0.7076923076923137
2024-04-29,0.8184873949579894
2024-04-30,0.42105263157895256
2024-05-06,0.4819277108433793
2024-05-07,0.08181818181817989
2024-05-08,0.08794788273615325
2024-05-09,0.0
2024-05-10,0.0
2024-05-13,0.4169096209912532
2024-05-14,0.5585937500000083
2024-05-15,0.7223974763407014
2024-05-16,0.8509316770186404
2024-05-17,0.8838709677419334
2024-05-20,0.4381270903010046
2024-05-21,0.5348189415041796
2024-05-22,0.31454005934718293
2024-05-23,0.4310344827586222
2024-05-24,0.44191919191919327
2024-05-27,0.6909722222222182
2024-05-28,0.5073529411764648
2024-05-29,0.7666666666666613
2024-05-30,0.6446700507614114
2024-05-31,0.7341040462427746
2024-06-03,0.8548895899053655
2024-06-04,0.8312883435582934
2024-06-05,0.4931129476584125
2024-06-06,0.3212237093690307
2024-06-07,0.30996309963100027
2024-06-11,0.0
2024-06-12,0.0
2024-06-13,0.22886597938143768
2024-06-14,0.3596214511040846
2024-06-17,0.534351145038156
2024-06-18,0.7664233576642323
2024-06-19,0.6840390879478812
2024-06-20,0.32038834951455664
2024-06-21,0.4150417827298089
2024-06-24,0.1671924290220892
2024-06-25,0.41428571428572064
2024-06-26,0.5558510638297957
2024-06-27,0.810526315789484
2024-06-28,0.5836065573770544
2024-07-01,0.6768060836501821
2024-07-02,0.7027972027971913
2024-07-03,0.6088888888888727
2024-07-04,0.5609756097560813
2024-07-05,0.919047619047608
2024-07-08,0.9507389162561729
2024-07-09,0.3250000000000125
2024-07-10,0.6241134751773116
2024-07-11,0.6082949308755828
2024-07-12,0.5549738219895324
2024-07-15,0.6062052505966572
2024-07-16,0.8355263157894796
2024-07-17,0.20923076923076728
2024-07-18,0.5215686274509843
2024-07-19,0.44526901669758967
2024-07-22,0.34676007005254156
2024-07-23,0.3956834532374096
2024-07-24,0.6485013623978141
2024-07-25,0.13201320132012614
2024-07-26,0.3753753753753736
2024-07-29,0.7093275488069369
2024-07-30,0.7298387096774147
2024-07-31,0.6515151515151454
2024-08-01,0.8863636363636326
2024-08-02,0.6559139784946186
2024-08-05,0.24121779859484624
2024-08-06,0.30021598272138206
2024-08-07,0.32980493737206534
2024-08-08,0.19033131332267478
2024-08-09,0.3190704310951561
2024-08-12,0.4277816501359801
2024-08-13,0.1484511211261307
2024-08-14,0.30055090859711564
2024-08-15,0.4798950095021825
2024-08-16,0.28037683255811074
2024-08-19,0.5637257783464176
2024-08-20,0.4151515151515192
2024-08-21,0.27210884353742104
2024-08-22,0.3270440251572289
2024-08-23,0.4953846153846173
2024-08-26,0.4184397163120516
2024-08-27,0.8955223880597004
2024-08-28,0.7377049180327873
2024-08-29,0.6081632653061297
2024-08-30,0.6144578313253001
2024-09-02,0.6049382716049412
2024-09-03,0.8569299552906116
2024-09-04,0.955119214586256
2024-09-05,1.0
2024-09-06,0.8936464088397822
2024-09-09,0.8920056100981799
2024-09-10,0.2041958041958033
2024-09-11,0.06451612903225987
2024-09-12,0.04605263157894537
2024-09-13,0.28551136363636026
2024-09-18,0.25578231292516634
2024-09-19,0.8237179487179483
2024-09-20,0.7385057471264352
2024-09-23,0.7702020202020198
2024-09-24,0.36666666666666536
2024-09-25,0.3728813559322026
2024-09-26,0.3999999999999951
2024-09-27,0.588235294117643
2024-09-30,0.5911214953271005
2024-10-08,0.9267822736030829
2024-10-09,1.0
2024-10-10,1.0
2024-10-11,0.8584269662921341
2024-10-14,0.8452088452088441
2024-10-15,0.279518072289166
2024-10-16,0.15342465753425505
2024-10-17,0.06542056074766416
2024-10-18,0.29645093945720385
2024-10-21,0.3456310679611663
2024-10-22,0.5973154362415982
2024-10-23,0.6321070234113615
2024-10-24,0.6562499999999909
2024-10-25,0.24509803921568404
2024-10-28,0.030726256983240875
2024-10-29,0.03151862464183467
2024-10-30,0.0
2024-10-31,0.0
2024-11-01,0.47740112994350226
2024-11-04,0.5451612903225752
2024-11-05,0.6649616368286423
2024-11-06,0.6265060240963873
2024-11-07,0.7630522088353413
2024-11-08,0.7190476190476207
2024-11-11,0.8832487309644712
2024-11-12,0.8986784140969197
2024-11-13,1.0
2024-11-14,0.8130630630630625
2024-11-15,0.4383116883116853
2024-11-18,0.3771043771043749
2024-11-19,0.1341911764705863
2024-11-20,0.0
2024-11-21,0.07017543859649107
2024-11-22,0.5147392290249452
2024-11-25,0.6090534979423872
2024-11-26,0.7418546365914814
2024-11-27,0.9558359621451125
2024-11-28,0.821538461538467
2024-11-29,0.23384615384615232
2024-12-02,0.022572928861810074
2024-12-03,0.017991194533288603
2024-12-04,0.38667260863106556
2024-12-05,0.4641032810284291
2024-12-06,0.7180409208444855
2024-12-09,0.7591539183109537
2024-12-10,0.8266162665616628
2024-12-11,0.47260208110309404
2024-12-12,0.36230323450915275
2024-12-13,0.011194029850740259
2024-12-16,0.13405797101448058
2024-12-17,0.1541666666666534
2024-12-18,0.20218579234971004
2024-12-19,0.16748768472905623
2024-12-20,0.8211920529801365
2024-12-23,0.7181208053691369
2024-12-24,0.7404844290657523
2024-12-25,0.4897025171624737
2024-12-26,0.5083135391924003
2024-12-27,0.0
2024-12-30,0.0
2024-12-31,0.1719626168224235
