date,FCT_Cr_Atr_Dfive
2012-07-16,
2012-07-17,
2012-07-18,
2012-07-19,
2012-07-20,
2012-07-23,
2012-07-24,
2012-07-25,
2012-07-26,
2012-07-27,
2012-07-30,
2012-07-31,
2012-08-01,
2012-08-02,
2012-08-03,
2012-08-06,
2012-08-07,
2012-08-08,
2012-08-09,
2012-08-10,
2012-08-13,-inf
2012-08-14,
2012-08-15,
2012-08-16,
2012-08-17,
2012-08-20,
2012-08-21,
2012-08-22,
2012-08-23,
2012-08-24,
2012-08-27,
2012-08-28,
2012-08-29,
2012-08-30,
2012-08-31,
2012-09-03,
2012-09-04,
2012-09-05,
2012-09-06,
2012-09-07,
2012-09-10,
2012-09-11,
2012-09-12,
2012-09-13,
2012-09-14,
2012-09-17,
2012-09-18,
2012-09-19,
2012-09-20,
2012-09-21,
2012-09-24,
2012-09-25,
2012-09-26,
2012-09-27,
2012-09-28,
2012-10-08,
2012-10-09,
2012-10-10,
2012-10-11,
2012-10-12,
2012-10-15,
2012-10-16,
2012-10-17,-inf
2012-10-18,-2.1666255259386684
2012-10-19,0.0
2012-10-22,0.0
2012-10-23,0.043478260869565175
2012-10-24,-0.2696490218642127
2012-10-25,0.920180028308337
2012-10-26,9.624999999999886
2012-10-29,0.529411764705888
2012-10-30,-0.05117056856187295
2012-10-31,0.6124031007751934
2012-11-01,0.7213114754098414
2012-11-02,-9.429761904761795
2012-11-05,-0.24255917506446245
2012-11-06,0.007692307692307774
2012-11-07,0.1409508723930224
2012-11-08,-0.9720237261220954
2012-11-09,-0.6401050153901873
2012-11-12,-0.5813731375866259
2012-11-13,0.048543689320389216
2012-11-14,-0.2996502694645242
2012-11-15,0.250712250712254
2012-11-16,1.2683963319168172
2012-11-19,-0.021608484312871656
2012-11-20,-0.09571350064114556
2012-11-21,0.16345801246793285
2012-11-22,0.833333333333338
2012-11-23,-0.8860294117647234
2012-11-26,0.44340175953080274
2012-11-27,0.1815784134712973
2012-11-28,0.17272769931021092
2012-11-29,-1.0021097046413505
2012-11-30,-0.24206852791877514
2012-12-03,-0.3316522893165277
2012-12-04,-0.20780309756340248
2012-12-05,0.11440101356106637
2012-12-06,-0.10322362869199553
2012-12-07,0.3045685279187767
2012-12-10,0.006577364241601297
2012-12-11,-0.15948221691588932
2012-12-12,1.2445190947666305
2012-12-13,0.3655251798561308
2012-12-14,0.3684210526315691
2012-12-17,0.3179945054945049
2012-12-18,0.5247222058909862
2012-12-19,-1.8575581395348892
2012-12-20,0.09796418184599098
2012-12-21,-0.4309210526315619
2012-12-24,-0.024954212454213226
2012-12-25,-0.4005411457361533
2012-12-26,0.41931772141641477
2012-12-27,-0.2195267448796757
2012-12-28,0.2740384615384508
2012-12-31,-0.003968253968257854
2013-01-04,0.38505928853755717
2013-01-07,0.28658189145993435
2013-01-08,0.03232003842381252
2013-01-09,-0.350131212071507
2013-01-10,-0.08136885117082814
2013-01-11,-0.4430303030303082
2013-01-14,-0.5893078598960888
2013-01-15,-0.03999694096053682
2013-01-16,0.18386024024498004
2013-01-17,-0.16738130505964283
2013-01-18,0.04984423676012009
2013-01-21,0.08422035480858386
2013-01-22,-0.1053113553113599
2013-01-23,-0.1273570419507267
2013-01-24,0.376992510082583
2013-01-25,0.18348909657322976
2013-01-28,0.1621031746031852
2013-01-29,0.14735475494970257
2013-01-30,0.08837886041488469
2013-01-31,-0.40701219512194764
2013-02-01,-0.12820512820514335
2013-02-04,0.020696721311470004
2013-02-05,0.07497169908406735
2013-02-06,-0.028845699153533244
2013-02-07,0.11057692307692603
2013-02-08,0.03653846153846202
2013-02-18,-0.016743729858492082
2013-02-19,0.030768152509120267
2013-02-20,0.2706184064813253
2013-02-21,0.20114667940754566
2013-02-22,0.030524861878448366
2013-02-25,0.2612942612942645
2013-02-26,-0.15154264972777554
2013-02-27,-0.3028565360518321
2013-02-28,0.5569358178053962
2013-03-01,0.05481996570776322
2013-03-04,-0.3828285535602516
2013-03-05,0.0020905066404429823
2013-03-06,-0.009930398545895058
2013-03-07,-1.252093676345231
2013-03-08,0.1090100111234516
2013-03-11,0.13697785253714795
2013-03-12,0.12642427346049365
2013-03-13,0.18422177443975343
2013-03-14,0.7563275144823298
2013-03-15,-0.31153493349639017
2013-03-18,0.04835206706038166
2013-03-19,-0.14139711683280964
2013-03-20,-0.22446923103651117
2013-03-21,-0.2532944929948766
2013-03-22,0.10906751200527011
2013-03-25,-0.041549988647539476
2013-03-26,0.059112777699155135
2013-03-27,0.11168378508657079
2013-03-28,0.014567901234572689
2013-03-29,-0.016183191866424855
2013-04-01,0.0751902587518907
2013-04-02,0.013651406508556018
2013-04-03,-0.033378076062634515
2013-04-08,-0.02885844748857959
2013-04-09,0.03437040151356034
2013-04-10,-0.23282828282825338
2013-04-11,0.059237854433816545
2013-04-12,-0.00612021857921893
2013-04-15,0.27710703505919
2013-04-16,0.46173388377259444
2013-04-17,0.1243315508021167
2013-04-18,-0.06964601769912779
2013-04-19,0.16645025158251286
2013-04-22,-0.12941307083116094
2013-04-23,-0.37303801883499255
2013-04-24,0.11121089657237206
2013-04-25,0.13685314685315098
2013-04-26,-0.03305361023906345
2013-05-02,-0.12090384545597732
2013-05-03,-0.2819816354982987
2013-05-06,0.03432287249081292
2013-05-07,-0.2718531468531465
2013-05-08,-0.2509856959471907
2013-05-09,0.011153874439241755
2013-05-10,0.16191484739872528
2013-05-13,-0.36379000359583036
2013-05-14,-0.002388535031850797
2013-05-15,0.23066791065255
2013-05-16,0.13884238220521836
2013-05-17,0.06481481481481235
2013-05-20,0.1833186231244543
2013-05-21,0.0632859709292911
2013-05-22,-0.21727827217278162
2013-05-23,-0.26126126126125937
2013-05-24,-0.11375661375660637
2013-05-27,-0.008612440191401248
2013-05-28,0.12028233938345921
2013-05-29,0.10507140775283783
2013-05-30,0.331501831501818
2013-05-31,0.1046720575022385
2013-06-03,1.1846532218396664
2013-06-04,0.4768598722961874
2013-06-05,0.43708730741012347
2013-06-06,-0.08099058405805876
2013-06-07,0.03465112058012593
2013-06-13,-1.2794308666244691
2013-06-14,-0.7623977794485128
2013-06-17,-0.795925119797017
2013-06-18,-0.27082844985363486
2013-06-19,-0.11385252470474283
2013-06-20,0.026685539521650398
2013-06-21,0.25094086568437274
2013-06-24,0.7428653820602533
2013-06-25,0.25469220240987417
2013-06-26,0.13318207600680604
2013-06-27,0.6541857798165224
2013-06-28,0.038658230042475775
2013-07-01,-0.45722631241997486
2013-07-02,0.1164186507936497
2013-07-03,-0.05269077355652774
2013-07-04,-0.812060448251531
2013-07-05,-0.11247976982556893
2013-07-08,0.21928686471009223
2013-07-09,-0.48094677211285153
2013-07-10,-0.010723860589812558
2013-07-11,0.2941497940631558
2013-07-12,0.08723880597014444
2013-07-15,-0.1624824070904174
2013-07-16,0.5353984681889056
2013-07-17,-0.020491803278690594
2013-07-18,-0.005025125628142966
2013-07-19,0.29135983263598764
2013-07-22,0.0009905667565808518
2013-07-23,-0.3544727199381382
2013-07-24,-0.005725425185727363
2013-07-25,0.07692307692307572
2013-07-26,-0.3406455469217017
2013-07-29,0.11615919169752643
2013-07-30,0.1701313278706884
2013-07-31,0.11946481688885634
2013-08-01,-0.07104072398189923
2013-08-02,-0.23717627401837757
2013-08-05,-0.19384057971014687
2013-08-06,-0.13905871670701836
2013-08-07,0.03358167986824369
2013-08-08,-0.07081741787624218
2013-08-09,0.5199805068226113
2013-08-12,0.2928832116788339
2013-08-13,0.212946428571428
2013-08-14,-0.14898993311262698
2013-08-15,0.11309370516169515
2013-08-16,-0.3658158158158138
2013-08-19,-0.2966257266488925
2013-08-20,-0.10063359106529228
2013-08-21,-0.1350299706315602
2013-08-22,-0.0005395926075796101
2013-08-23,-0.0049754299754321
2013-08-26,0.4030041183455881
2013-08-27,-0.10033909105391413
2013-08-28,0.18933349259436258
2013-08-29,0.10809029494150067
2013-08-30,0.09927871529668018
2013-09-02,-0.4394267685406927
2013-09-03,0.09083329362999919
2013-09-04,-0.10988137304391675
2013-09-05,-0.43157141152606676
2013-09-06,0.08235909134112795
2013-09-09,0.1602632043808485
2013-09-10,-0.06724669525463599
2013-09-11,0.08810121020157761
2013-09-12,0.18868258178602815
2013-09-13,-0.01756732655609039
2013-09-16,-0.03742608154372448
2013-09-17,-0.0501864300683127
2013-09-18,-0.004227724975364956
2013-09-23,0.15425265791119863
2013-09-24,-0.22179775280899022
2013-09-25,0.2872260015117092
2013-09-26,0.1103764755607896
2013-09-27,0.38305421986403476
2013-09-30,0.15082566195311317
2013-10-08,0.31654952076677423
2013-10-09,-0.3084338707858783
2013-10-10,-0.0315779293002567
2013-10-11,-0.5458156952132849
2013-10-14,-0.35718454697053803
2013-10-15,-0.33082337968793535
2013-10-16,0.018309780948940403
2013-10-17,0.24170159913057082
2013-10-18,0.10921271292064791
2013-10-21,0.11213639301874544
2013-10-22,0.2672971147351167
2013-10-23,0.07654417131315866
2013-10-24,-0.3350229317340957
2013-10-25,0.01588979635793114
2013-10-28,-0.009632611806506253
2013-10-29,-0.10555887452312351
2013-10-30,0.1829676736258235
2013-10-31,0.08455853544926592
2013-11-01,0.25663222185374496
2013-11-04,0.10038617335615993
2013-11-05,-0.020686972652957075
2013-11-06,-0.3276877761413832
2013-11-07,0.006155950752392902
2013-11-08,-0.4195526695526733
2013-11-11,-0.14242197427283243
2013-11-12,0.13482686943699457
2013-11-13,0.01146031428285528
2013-11-14,0.1692017598994366
2013-11-15,0.26991614255765306
2013-11-18,0.08758966381470848
2013-11-19,-0.15377819111834973
2013-11-20,0.19368486683886865
2013-11-21,-0.20897115602998442
2013-11-22,-0.05305017344953001
2013-11-25,1.8735013540549517e-15
2013-11-26,-0.004347826086953541
2013-11-27,-0.13782606857480903
2013-11-28,0.029208784963264428
2013-11-29,-0.12242152466367573
2013-12-02,-0.09766081871345134
2013-12-03,0.026033934252386214
2013-12-04,-0.029388748804453364
2013-12-05,0.16987084688948062
2013-12-06,0.08203592814370832
2013-12-09,0.08279132791327799
2013-12-10,-0.00018704174771840693
2013-12-11,0.16407929304991808
2013-12-12,-0.20582186362917737
2013-12-13,0.3617140718562959
2013-12-16,0.07121384004537634
2013-12-17,0.02630803439869361
2013-12-18,-0.05790584055074337
2013-12-19,0.014448292924299014
2013-12-20,-0.6005067567567643
2013-12-23,-0.05905567300915596
2013-12-24,0.0706318724680344
2013-12-25,0.0031965506987802206
2013-12-26,0.0334612254389032
2013-12-27,0.3461422316170939
2013-12-30,-0.011188811188817914
2013-12-31,-0.030182586014158103
2014-01-02,-0.13837591702504684
2014-01-03,0.08852459016393217
2014-01-06,0.03561452513966795
2014-01-07,0.04679487179487565
2014-01-08,-0.04052691867124649
2014-01-09,0.11787046908315799
2014-01-10,-0.03142437591776509
2014-01-13,-0.23138297872340943
2014-01-14,-0.08452380952380911
2014-01-15,-0.06520729684908956
2014-01-16,-0.03478323147440714
2014-01-17,-0.06802917599480263
2014-01-20,0.5583603798533521
2014-01-21,-0.015508615897721567
2014-01-22,0.040726121458822845
2014-01-23,0.08522016156558951
2014-01-24,-0.015213114754098742
2014-01-27,-0.7965152162559972
2014-01-28,0.19939139978050502
2014-01-29,-0.010400222861918332
2014-01-30,-0.18078885156152394
2014-02-07,0.3144579761211865
2014-02-10,0.38551409136502957
2014-02-11,-0.14156257619966933
2014-02-12,0.08173069442290513
2014-02-13,0.12416278414973998
2014-02-14,-0.44694578099923066
2014-02-17,-0.040976276238980605
2014-02-18,0.04220360184069468
2014-02-19,0.009023719702295284
2014-02-20,0.11236149756904754
2014-02-21,0.18048780487804295
2014-02-24,-0.029126213592228802
2014-02-25,-0.16166666666666868
2014-02-26,-0.01165584415584444
2014-02-27,-0.24524827750059236
2014-02-28,-0.006249999999997875
2014-03-03,0.06057275447273222
2014-03-04,0.08951219512195487
2014-03-05,-0.002036878216123507
2014-03-06,0.20447093889716877
2014-03-07,0.028721910112359902
2014-03-10,0.018004008570051515
2014-03-11,0.40745115566338136
2014-03-12,-0.06054953726953233
2014-03-13,0.06518099280745122
2014-03-14,0.14419475655430763
2014-03-17,0.0059430365552779335
2014-03-18,-0.43497440050909
2014-03-19,0.04040899613081547
2014-03-20,-0.19296022606218916
2014-03-21,-0.2212121212121226
2014-03-24,-0.148342303954548
2014-03-25,0.0014739472502562218
2014-03-26,-0.0625391281426054
2014-03-27,-0.01767531219981091
2014-03-28,-0.10932009167303292
2014-03-31,0.05274771292358934
2014-04-01,-0.08482415407100621
2014-04-02,0.18518772266374536
2014-04-03,-0.04028520499108458
2014-04-04,0.18182961807477327
2014-04-08,0.004906887378071323
2014-04-09,0.22672711020304345
2014-04-10,-0.21889558783228957
2014-04-11,0.24109821312117113
2014-04-14,-0.055598480458431854
2014-04-15,0.04088070982582804
2014-04-16,-0.16869918699187036
2014-04-17,-0.00013619339461481972
2014-04-18,-0.14072528883183877
2014-04-21,0.24293242184717925
2014-04-22,0.027380440788262326
2014-04-23,0.014184397163118576
2014-04-24,0.010216450216450165
2014-04-25,-0.11612043913464484
2014-04-28,-0.14935395730097933
2014-04-29,0.19219852994687375
2014-04-30,0.1934732604945369
2014-05-05,0.13107142857142576
2014-05-06,0.1860478027926578
2014-05-07,-0.20913554530575218
2014-05-08,-0.44124596492395757
2014-05-09,-0.2909909909909863
2014-05-12,0.8144230769230707
2014-05-13,-0.10433202284696738
2014-05-14,0.2386615748317795
2014-05-15,0.1924583547659575
2014-05-16,0.18279569892472758
2014-05-19,-1.3689865689865588
2014-05-20,0.12692110655737288
2014-05-21,-0.04949886244849442
2014-05-22,0.33612204724408884
2014-05-23,0.07381805768902387
2014-05-26,0.5163353367236819
2014-05-27,0.02780657582938592
2014-05-28,-0.11256696770243824
2014-05-29,-0.5290898617511489
2014-05-30,-0.17230003112355785
2014-06-03,-0.04991287030121834
2014-06-04,-0.12032302319780427
2014-06-05,0.09646329434972654
2014-06-06,0.32697947214076484
2014-06-09,0.11744066047471297
2014-06-10,0.008458627880181691
2014-06-11,-0.1203888558117082
2014-06-12,-0.10575313623405606
2014-06-13,-0.2187674127653359
2014-06-16,0.028856396768387957
2014-06-17,0.13839451897296487
2014-06-18,0.14048131669364503
2014-06-19,0.07921891989851383
2014-06-20,0.14193484935559225
2014-06-23,0.11787406575155025
2014-06-24,-0.11571761571761677
2014-06-25,0.05752473785260385
2014-06-26,0.04748299319727979
2014-06-27,-0.009047243058297766
2014-06-30,-0.4066985645933011
2014-07-01,0.08092524759191834
2014-07-02,-0.26422006954793753
2014-07-03,-0.12532336878413086
2014-07-04,-0.039894419306188006
2014-07-07,0.365505382775117
2014-07-08,-0.28504989007272463
2014-07-09,0.3384809634809637
2014-07-10,0.5322682362833712
2014-07-11,0.046312450436164304
2014-07-14,-0.18062499999999732
2014-07-15,0.21946347031963656
2014-07-16,-0.2014215942787372
2014-07-17,-0.734247680516338
2014-07-18,0.09028428616057649
2014-07-21,0.10756756756756852
2014-07-22,-0.020833333333337013
2014-07-23,0.07510979075174634
2014-07-24,0.2864864864864829
2014-07-25,-0.3386034255599496
2014-07-28,-0.11518661518661694
2014-07-29,-0.0833333333333288
2014-07-30,-0.07353279631761345
2014-07-31,0.14423076923077335
2014-08-01,0.335038363171352
2014-08-04,-0.057644110275692224
2014-08-05,0.23459383753501456
2014-08-06,0.025348374253489576
2014-08-07,-0.27205031810295144
2014-08-08,-0.24695740365110969
2014-08-11,0.12506513809276304
2014-08-12,-0.2871828342987699
2014-08-13,0.08537685557286678
2014-08-14,0.8512238041913291
2014-08-15,0.2527671349510412
2014-08-18,0.007670547274506383
2014-08-19,0.15731270442863626
2014-08-20,-0.05617977528089766
2014-08-21,-1.0270691767851154
2014-08-22,-0.22871994801819334
2014-08-25,0.2078215901745283
2014-08-26,0.0058205100221933835
2014-08-27,0.13907284768211697
2014-08-28,0.24552538658224485
2014-08-29,0.17933723196881105
2014-09-01,-0.4306964164976345
2014-09-02,0.13707482993197234
2014-09-03,-0.28631211148579677
2014-09-04,0.15885895934415367
2014-09-05,-0.10021786492374914
2014-09-09,0.3967445807297737
2014-09-10,-0.2592577813248213
2014-09-11,0.20896765886540697
2014-09-12,-0.0018822151581032731
2014-09-15,0.11609088079676652
2014-09-16,-0.20619665081123412
2014-09-17,0.036435481673252355
2014-09-18,-0.06690974221198472
2014-09-19,-0.21862887596899444
2014-09-22,0.07573338342568516
2014-09-23,-0.030678625991823683
2014-09-24,0.10590500641848594
2014-09-25,0.005181347150255354
2014-09-26,0.3760730737018426
2014-09-29,-0.2856804733727767
2014-09-30,0.04462390401477159
2014-10-08,-0.011332385016598445
2014-10-09,0.06956521739130789
2014-10-10,-0.43107815500265645
2014-10-13,0.08059113300492379
2014-10-14,-0.09114219114219194
2014-10-15,-0.09748855000251147
2014-10-16,-0.15289855072463882
2014-10-17,0.18778376095449215
2014-10-20,0.1612037387899493
2014-10-21,0.05919413919413766
2014-10-22,0.07314842039922562
2014-10-23,0.1758188824662827
2014-10-24,-0.002405002405002247
2014-10-27,-0.26315612833937724
2014-10-28,0.016759581881533106
2014-10-29,0.04965378681878735
2014-10-30,-0.023121387283237982
2014-10-31,0.03806663806663924
2014-11-03,0.16713445242079383
2014-11-04,0.12670057605098817
2014-11-05,0.019367795537701155
2014-11-06,-0.12330607056340553
2014-11-07,0.056614509246088594
2014-11-10,0.029782359679265066
2014-11-11,-0.20706918048891143
2014-11-12,-0.1342154311760667
2014-11-13,0.13220277827891178
2014-11-14,-0.23429541595925396
2014-11-17,-0.06501361478589845
2014-11-18,0.24511656133631904
2014-11-19,0.013029416084716347
2014-11-20,-0.21291985945868414
2014-11-21,0.02206674583685994
2014-11-24,0.025762407056429862
2014-11-25,-0.3672065456554062
2014-11-26,-0.006828770995185841
2014-11-27,0.11338239414878859
2014-11-28,0.1939220339667862
2014-12-01,-0.09630434782608628
2014-12-02,0.2955126714717542
2014-12-03,0.18063063063063495
2014-12-04,0.027158948685854143
2014-12-05,0.03585049580473115
2014-12-08,0.04354166666666653
2014-12-09,0.0049353701527578425
2014-12-10,-0.19768976897689877
2014-12-11,0.05760971055088639
2014-12-12,-0.22728462948415842
2014-12-15,0.225347222222222
2014-12-16,-0.1339479666582455
2014-12-17,0.05460033808258607
2014-12-18,-0.1373836891078256
2014-12-19,0.14171165449348855
2014-12-22,-0.3222222222222232
2014-12-23,0.04797323452966819
2014-12-24,0.05681492109039148
2014-12-25,0.06265567055958324
2014-12-26,-0.1338249516440991
2014-12-29,0.37232704402515493
2014-12-30,-0.1074400024029086
2014-12-31,-0.08095712861415927
2015-01-05,0.11649911295091522
2015-01-06,0.12304593554593204
2015-01-07,-0.43486999935161563
2015-01-08,0.35152284263959643
2015-01-09,0.08005215123859147
2015-01-12,-0.15428276573787264
2015-01-13,-0.057382861506570286
2015-01-14,0.22247203334064808
2015-01-15,-0.33290155440414576
2015-01-16,-0.10265102129508838
2015-01-19,0.4202770928730757
2015-01-20,0.06586233286813986
2015-01-21,-0.035034563246255895
2015-01-22,0.0020504905743558843
2015-01-23,-0.01757689893283316
2015-01-26,-0.7562574850299393
2015-01-27,0.04636631519153615
2015-01-28,-0.09682433932933046
2015-01-29,0.14807795458609407
2015-01-30,0.42840478273549265
2015-02-02,0.5303488372093015
2015-02-03,-0.14729066072386537
2015-02-04,0.2846109839816881
2015-02-05,-0.06261859582543207
2015-02-06,-0.45066098389077436
2015-02-09,-0.25194782198087606
2015-02-10,0.043262574988462976
2015-02-11,-0.4351617795753283
2015-02-12,-0.12179579493087316
2015-02-13,0.034383372574490256
2015-02-16,0.2481084187338429
2015-02-17,-0.0185950413223139
2015-02-25,0.41098636728147564
2015-02-26,0.15450093283582342
2015-02-27,0.4144648882663746
2015-03-02,-0.14682858289843795
2015-03-03,0.12688381137579147
2015-03-04,-0.14532019704433186
2015-03-05,-0.06170367673826471
2015-03-06,-0.6825179856115069
2015-03-09,-0.05438234360114582
2015-03-10,-0.22048213224684243
2015-03-11,0.009176452188912033
2015-03-12,0.11492072247629927
2015-03-13,0.3716350305406687
2015-03-16,-0.019261049756273546
2015-03-17,0.12654586082692426
2015-03-18,-0.14076779937246942
2015-03-19,-0.0014215676827678408
2015-03-20,-0.04163503054066942
2015-03-23,0.07896254229358958
2015-03-24,0.17201113773007537
2015-03-25,0.09830163043478773
2015-03-26,-0.1131089108910933
2015-03-27,-0.024590163934429015
2015-03-30,0.01680672268907645
2015-03-31,-0.3123966942148777
2015-04-01,0.08168992718446805
2015-04-02,-0.1870091743119236
2015-04-03,0.012962256957686812
2015-04-07,0.03025210084033751
2015-04-08,0.3622434766459326
2015-04-09,-0.1508450197770611
2015-04-10,0.34366223553641484
2015-04-13,0.011627906976742203
2015-04-14,-0.1371489136195077
2015-04-15,-0.12437423517633035
2015-04-16,0.3198653198653204
2015-04-17,-0.1919123204837473
2015-04-20,0.13385826771653644
2015-04-21,0.2150900900900964
2015-04-22,-0.17552866397750483
2015-04-23,-0.3015970515970511
2015-04-24,0.14685050013517154
2015-04-27,-0.09358981134069898
2015-04-28,0.023387096774190125
2015-04-29,0.024622000277430292
2015-04-30,0.020432108755459838
2015-05-04,0.051649265453201434
2015-05-05,0.05417598806860731
2015-05-06,-0.219453086621907
2015-05-07,0.11644256155215696
2015-05-08,0.14715646427352558
2015-05-11,-0.267202591637171
2015-05-12,-0.19227053140096578
2015-05-13,0.08311418261879644
2015-05-14,-0.05464480874317154
2015-05-15,-0.09326424870466005
2015-05-18,0.08629541864138987
2015-05-19,0.060559006211180454
2015-05-20,-0.03785464438398363
2015-05-21,-0.019867549668868244
2015-05-22,-0.10135135135135287
2015-05-25,0.10181704260651864
2015-05-26,0.09400466939781851
2015-05-27,-0.1017103269105888
2015-05-28,0.1352521650534853
2015-05-29,0.07376514445479773
2015-06-01,0.08169359569135026
2015-06-02,-0.10021584952204354
2015-06-03,0.27686742787413876
2015-06-04,-0.05323772272924848
2015-06-05,0.12865003668378766
2015-06-08,-0.22880049337033176
2015-06-09,0.0064412238325280355
2015-06-10,-0.29770229770229495
2015-06-11,-0.2621468926553672
2015-06-12,-0.10912834591626933
2015-06-15,0.08418521035458222
2015-06-16,0.1466169045120157
2015-06-17,0.2916957411255544
2015-06-18,0.3125199554621877
2015-06-19,-0.05752358300133627
2015-06-23,0.12472253089674441
2015-06-24,0.026289697742412216
2015-06-25,-0.21032973870692395
2015-06-26,0.092608249666019
2015-06-29,0.1804817161516472
2015-06-30,-0.0074474027183054625
2015-07-01,-0.04682846932697876
2015-07-02,0.1110108031657201
2015-07-03,-0.36777880753784437
2015-07-06,-0.11489361702127804
2015-07-07,-0.1612664067219477
2015-07-08,-0.03998449211682639
2015-07-09,0.7041762816162177
2015-07-10,0.24289751598988535
2015-07-13,0.022857142857144876
2015-07-14,0.08959312996529989
2015-07-15,-0.161556603773585
2015-07-16,-1.13451934629359
2015-07-17,-0.05401740538352379
2015-07-20,-0.08036513007758979
2015-07-21,-0.24622037054571755
2015-07-22,0.11675531914893533
2015-07-23,0.27614841591924577
2015-07-24,-0.23099141295862716
2015-07-27,0.15930439440607405
2015-07-28,0.20882461311717113
2015-07-29,-0.10695802185163777
2015-07-30,0.12221768429650476
2015-07-31,0.34166666666666456
2015-08-03,-0.14891682603379658
2015-08-04,0.033026755852840047
2015-08-05,0.11328471328471111
2015-08-06,-0.006812590676842392
2015-08-07,-0.09523809523809315
2015-08-10,-0.0778795811518312
2015-08-11,0.047252747252750145
2015-08-12,0.0788916736285194
2015-08-13,0.29428130611832304
2015-08-14,-0.11229863692689004
2015-08-17,0.2050000000000012
2015-08-18,-0.08571428571428726
2015-08-19,-0.07836257309941742
2015-08-20,-0.46435207304772796
2015-08-21,-0.012701363073110233
2015-08-24,0.19272727272726897
2015-08-25,0.169172932330826
2015-08-26,0.021043229724902586
2015-08-27,0.14925884084762586
2015-08-28,0.24789029535865098
2015-08-31,-0.4683794466403128
2015-09-01,-0.35498374314163617
2015-09-02,-0.11099251510987401
2015-09-07,-0.061000252589036824
2015-09-08,-0.35967891324483037
2015-09-09,0.1471673254281942
2015-09-10,0.17944138405921875
2015-09-11,-0.01731567187998395
2015-09-14,0.14749856239217957
2015-09-15,0.5792279114844108
2015-09-16,0.058054226475279705
2015-09-17,-0.036284601684426813
2015-09-18,0.10605483625285497
2015-09-21,-0.11994159365874124
2015-09-22,-0.6315286406772692
2015-09-23,-0.002720062921939154
2015-09-24,0.00864042299384099
2015-09-25,0.09573281271788925
2015-09-28,0.049019607843137705
2015-09-29,0.3111169479282954
2015-09-30,-0.07870560249364063
2015-10-08,0.2211103796357234
2015-10-09,-0.09476423759950776
2015-10-12,0.2258064516129018
2015-10-13,-0.07685216225276634
2015-10-14,0.08518962075848181
2015-10-15,-0.25727221279003754
2015-10-16,-0.05803937653814534
2015-10-19,-0.40897476844458325
2015-10-20,0.043460925039872464
2015-10-21,-0.0015686274509822233
2015-10-22,0.06436148510812034
2015-10-23,0.1173452499172433
2015-10-26,0.15584591246009655
2015-10-27,-0.1426625808648298
2015-10-28,0.0008935219657510395
2015-10-29,0.024563953488370822
2015-10-30,-0.22968464105047612
2015-11-02,0.12951218539348208
2015-11-03,-0.006845747451443757
2015-11-04,0.17531169696393004
2015-11-05,-0.006091772151897863
2015-11-06,0.2407592024539836
2015-11-09,-0.15999324922998784
2015-11-10,0.23576971519115655
2015-11-11,-0.19728005912216645
2015-11-12,-0.06349785194300223
2015-11-13,-0.0283365119298781
2015-11-16,0.1191569443912252
2015-11-17,-0.0471381281437816
2015-11-18,-0.10124262950896107
2015-11-19,0.039540189066651674
2015-11-20,0.061372226215595
2015-11-23,-0.05109706592672423
2015-11-24,0.24021838101662724
2015-11-25,0.11830470180359166
2015-11-26,0.14591481964363345
2015-11-27,-0.17869249394673126
2015-11-30,0.000613154960981006
2015-12-01,-0.5175299747102576
2015-12-02,0.06917113893857897
2015-12-03,-0.20604395604395837
2015-12-04,0.0055832502492500005
2015-12-07,0.19105351170568524
2015-12-08,0.31988530465949944
2015-12-09,-0.05893746541228363
2015-12-10,0.01842503785966853
2015-12-11,0.15210711150131995
2015-12-14,-0.341854817537412
2015-12-15,-0.231047619047621
2015-12-16,-0.1486162421414215
2015-12-17,0.0840916164704596
2015-12-18,-0.24906247656191388
2015-12-21,0.050646026328620475
2015-12-22,-0.044351073762836105
2015-12-23,0.13063063063062674
2015-12-24,-0.10140058290155203
2015-12-25,0.147375533127823
2015-12-28,0.13165859564164747
2015-12-29,0.36665072533077936
2015-12-30,0.10135135135135839
2015-12-31,0.0028278374233098313
2016-01-04,0.21235072976558897
2016-01-05,-0.05876632397888123
2016-01-06,-0.26436314363143454
2016-01-07,-0.1309371501679259
2016-01-08,0.1040700284303439
2016-01-11,-0.3510061919504619
2016-01-12,0.03708309779536276
2016-01-13,-0.07402402402402214
2016-01-14,-0.017289201183426205
2016-01-15,-0.061175529788079164
2016-01-18,0.2226890756302511
2016-01-19,-0.10662715517241395
2016-01-20,0.3146223146223128
2016-01-21,0.017889492753620173
2016-01-22,0.03951553706875126
2016-01-25,-0.17121848739495804
2016-01-26,0.061547256097560926
2016-01-27,-0.3294871794871793
2016-01-28,-0.000426257459505662
2016-01-29,-0.014925373134328408
2016-02-01,0.04508318478906722
2016-02-02,0.0456668396471199
2016-02-03,0.19166666666666657
2016-02-04,0.07941176470588246
2016-02-05,-0.057142857142857176
2016-02-15,0.2525252525252483
2016-02-16,-0.021276595744684556
2016-02-17,-0.11729691876750747
2016-02-18,-0.08636363636364056
2016-02-19,0.09487870619946137
2016-02-22,-0.34747474747474105
2016-02-23,-0.010638297872332322
2016-02-24,0.24767326285352984
2016-02-25,0.08223519599667206
2016-02-26,-0.046507778881165626
2016-02-29,0.22510056315365842
2016-03-01,0.027031740495286692
2016-03-02,-0.09946236559139869
2016-03-03,-0.08346554459543754
2016-03-04,0.0009594298245615357
2016-03-07,0.13295240749773526
2016-03-08,0.04854162231211419
2016-03-09,-0.10688860872285372
2016-03-10,0.10367592173102602
2016-03-11,0.37792230892575035
2016-03-14,-0.29343689531363887
2016-03-15,-0.08626045207850214
2016-03-16,0.03430796356156135
2016-03-17,0.0707105160615703
2016-03-18,-0.5443836678469123
2016-03-21,0.19641635956402564
2016-03-22,0.061865927683974545
2016-03-23,0.051948051948055254
2016-03-24,-0.20675130056681623
2016-03-25,0.23179598281496774
2016-03-28,-0.19925989781543865
2016-03-29,-0.04510675058619683
2016-03-30,0.003097819611580968
2016-03-31,0.017784934693146633
2016-04-01,0.0296338394089454
2016-04-05,0.05414614338929663
2016-04-06,-0.004129442128254337
2016-04-07,-0.1252213101561263
2016-04-08,0.019155045118950866
2016-04-11,-0.013985231595432537
2016-04-12,0.08862677406981442
2016-04-13,0.2619145362940861
2016-04-14,0.04620283585676613
2016-04-15,0.14529956967891416
2016-04-18,-0.22459029006693942
2016-04-19,-0.088830686042582
2016-04-20,-0.3145215661125101
2016-04-21,0.4525440313111546
2016-04-22,0.013433583959900589
2016-04-25,0.27324696952713246
2016-04-26,0.06820131541321095
2016-04-27,-0.025843287506573442
2016-04-28,-0.5765427889532905
2016-04-29,-0.24056022408963706
2016-05-03,-0.2579033605346003
2016-05-04,-0.045787545787546576
2016-05-05,0.08345593259854435
2016-05-06,0.21834173075223315
2016-05-09,0.2082715439116833
2016-05-10,0.19620253164556872
2016-05-11,0.1864304849379481
2016-05-12,0.07204446728011414
2016-05-13,0.057591714937686056
2016-05-16,-0.15014829461196297
2016-05-17,-0.07571678272391456
2016-05-18,-0.14516782602822992
2016-05-19,-0.06835443037974828
2016-05-20,-0.3839795907785175
2016-05-23,0.24201680672268952
2016-05-24,-0.004260916179876681
2016-05-25,-0.2516581705710517
2016-05-26,-0.048543689320388404
2016-05-27,0.3070379136337254
2016-05-30,-0.2759090043784497
2016-05-31,0.10170165043314108
2016-06-01,0.184826782145236
2016-06-02,0.10296545802787474
2016-06-03,0.032850559578669614
2016-06-06,-0.05819463707813417
2016-06-07,-0.0888435408008362
2016-06-08,0.08571163825055739
2016-06-13,-0.027665915864677863
2016-06-14,-0.11318692865398747
2016-06-15,0.21592361776925684
2016-06-16,-0.018164225711396153
2016-06-17,-0.033462062698773845
2016-06-20,-0.13435078955166735
2016-06-21,0.004493265876591754
2016-06-22,-0.07075045759609686
2016-06-23,-0.05148510306202276
2016-06-24,0.012265714650005515
2016-06-27,0.21487463019545022
2016-06-28,-0.006319173476649034
2016-06-29,-0.05350649350649154
2016-06-30,0.1069453660694565
2016-07-01,-0.009561729830272866
2016-07-04,0.10495052234074655
2016-07-05,0.517788752785108
2016-07-06,0.2667763953469759
2016-07-07,0.015878783918166876
2016-07-08,0.0028317672802173656
2016-07-11,-0.3266779447140206
2016-07-12,-0.7434205725641959
2016-07-13,-0.3007497113248485
2016-07-14,-0.0787632678552846
2016-07-15,-0.09483877733812567
2016-07-18,0.19244215785604174
2016-07-19,0.2361018536658751
2016-07-20,-0.035532903396420595
2016-07-21,-0.055031839417271196
2016-07-22,0.12955083553512142
2016-07-25,-0.14674442896935685
2016-07-26,-0.026308031146489778
2016-07-27,0.05622654130588052
2016-07-28,0.1368557172937796
2016-07-29,-0.16429578980084839
2016-08-01,0.08891129032257777
2016-08-02,-0.020213810117516016
2016-08-03,0.019575077584149746
2016-08-04,-0.026920995670991547
2016-08-05,0.0872258918859268
2016-08-08,-0.11793906810035745
2016-08-09,0.12630697638194016
2016-08-10,0.04154513204572552
2016-08-11,0.015237256874576433
2016-08-12,-0.06398071489260515
2016-08-15,0.3933442802408357
2016-08-16,-0.0819269887055387
2016-08-17,0.09101438783820243
2016-08-18,-0.1454723545107537
2016-08-19,0.18225441541380424
2016-08-22,-0.47139067828723435
2016-08-23,-0.04385297845373969
2016-08-24,-0.11028349082823638
2016-08-25,0.4216391592608264
2016-08-26,-0.1642392874337955
2016-08-29,0.0802066459437003
2016-08-30,0.11512481644640157
2016-08-31,0.2512605042016791
2016-09-01,-0.5405296139074207
2016-09-02,0.032321724709782784
2016-09-05,0.09561752988047689
2016-09-06,-0.09891686537606435
2016-09-07,-0.560853326837983
2016-09-08,0.2560012040033132
2016-09-09,0.009834515366431151
2016-09-12,0.2681159420289863
2016-09-13,0.12474442988204337
2016-09-14,0.46050467673964834
2016-09-19,-0.06237243574220956
2016-09-20,0.40853149770546276
2016-09-21,-0.40945869821273184
2016-09-22,-0.012557319223983614
2016-09-23,-0.19210786739238145
2016-09-26,0.1706753554502366
2016-09-27,-0.5667420814479625
2016-09-28,0.1993784704694594
2016-09-29,-0.10814189717143782
2016-09-30,0.10516567194895998
2016-10-10,-0.26143162393162445
2016-10-11,0.27704815509693637
2016-10-12,0.030853174603175493
2016-10-13,0.20151554292603624
2016-10-14,0.15188092185496918
2016-10-17,0.2697649572649591
2016-10-18,-0.12093759898637928
2016-10-19,0.13185579196217428
2016-10-20,-0.13985149615401907
2016-10-21,-0.2409272206129935
2016-10-24,-0.13222789115646244
2016-10-25,0.11286208198959813
2016-10-26,-0.3665352352658476
2016-10-27,-0.06573131389307943
2016-10-28,-0.0020481338621157197
2016-10-31,-0.10475825719027677
2016-11-01,-0.12193383619409559
2016-11-02,0.21286372514649138
2016-11-03,-0.023804945054943787
2016-11-04,0.12668385685263195
2016-11-07,0.14302601386066724
2016-11-08,-0.041524225158607146
2016-11-09,-0.14399624765478514
2016-11-10,0.21531135531135553
2016-11-11,0.10036066028575372
2016-11-14,0.36299490666832585
2016-11-15,0.07397260273972743
2016-11-16,0.0667535853976536
2016-11-17,-0.19753249034071105
2016-11-18,-0.34557698974285794
2016-11-21,-0.8258571165045993
2016-11-22,-0.10820895522388002
2016-11-23,-0.12275924886312982
2016-11-24,0.6674401441492884
2016-11-25,0.4314538569757432
2016-11-28,0.5006130355429486
2016-11-29,0.19143880875572997
2016-11-30,0.40851929156965594
2016-12-01,-0.7235876158218739
2016-12-02,-0.3476599644483211
2016-12-05,-0.12786494233596438
2016-12-06,-0.11106285551992151
2016-12-07,-0.5025844162117772
2016-12-08,-0.016975308641975884
2016-12-09,0.1694621382317938
2016-12-12,0.07204373468343568
2016-12-13,-0.034837297739449935
2016-12-14,0.23280781851904891
2016-12-15,0.21344465853136518
2016-12-16,-0.17769402228976558
2016-12-19,-0.024927077256437814
2016-12-20,0.3002069566190192
2016-12-21,-0.06979499614240325
2016-12-22,-0.1040681934586963
2016-12-23,0.16585012919896647
2016-12-26,-0.0016118171268116877
2016-12-27,-0.32888281073765147
2016-12-28,0.13805511672810375
2016-12-29,0.06458813992642048
2016-12-30,-0.18746648140022443
2017-01-03,-0.07696901635193903
2017-01-04,0.11728275326978445
2017-01-05,-0.13587182688306268
2017-01-06,-0.08026311908203479
2017-01-09,0.1264941989921483
2017-01-10,-0.010541819746465411
2017-01-11,-0.17358760613504062
2017-01-12,0.03817570556489308
2017-01-13,-0.12132992080355323
2017-01-16,0.1803916906891737
2017-01-17,0.13669852648346972
2017-01-18,0.1858189456427074
2017-01-19,0.00891616489115546
2017-01-20,0.14606403466538423
2017-01-23,-0.3488670217567927
2017-01-24,-0.07897413542574543
2017-01-25,-0.00130157948429159
2017-01-26,0.07248366013071768
2017-02-03,0.1120343659851983
2017-02-06,0.2156992654472103
2017-02-07,-0.03544849197023113
2017-02-08,-0.10609712867777568
2017-02-09,-0.10323232323232466
2017-02-10,-0.11382734912146665
2017-02-13,-0.04904914959153427
2017-02-14,0.18024175685082938
2017-02-15,0.022538162226878843
2017-02-16,0.0944341372912835
2017-02-17,0.06357067057456382
2017-02-20,-0.11549707602339224
2017-02-21,-0.20143740902474455
2017-02-22,0.0285930594925802
2017-02-23,0.02014483212639514
2017-02-24,-0.17127331275996646
2017-02-27,0.20424836601307356
2017-02-28,0.05674514200299162
2017-03-01,0.1603013823736949
2017-03-02,-0.18559028741694755
2017-03-03,0.03432601880878061
2017-03-06,-0.04836113549897783
2017-03-07,0.19385009609224713
2017-03-08,-0.1747221600656354
2017-03-09,0.2425162836218857
2017-03-10,0.30278154681139546
2017-03-13,0.05031590513689367
2017-03-14,-0.25826330532212927
2017-03-15,0.026385355878097826
2017-03-16,-0.08706420847193508
2017-03-17,-0.36949662281258333
2017-03-20,-0.2918425590117699
2017-03-21,0.05755128793158668
2017-03-22,-0.09912735442318824
2017-03-23,-0.06783236554228941
2017-03-24,0.1926826727608626
2017-03-27,0.5253219630433187
2017-03-28,0.047204592915377486
2017-03-29,0.07709330966383332
2017-03-30,-0.03999442586399021
2017-03-31,0.01487074777516744
2017-04-05,-0.45034264628360227
2017-04-06,-0.02632450829794492
2017-04-07,0.20189782764383016
2017-04-10,0.04717992989064964
2017-04-11,-0.0766149295734214
2017-04-12,0.24252593469330647
2017-04-13,0.025238378179555057
2017-04-14,-0.26975530362554584
2017-04-17,0.04363867179751785
2017-04-18,0.06515097409038464
2017-04-19,-0.2788303183557011
2017-04-20,-0.05765134336562737
2017-04-21,0.0875158517683508
2017-04-24,-0.030561712965145982
2017-04-25,-0.13824884792626332
2017-04-26,0.1437215343889237
2017-04-27,0.09421438478303824
2017-04-28,0.013118933228748329
2017-05-02,0.06821671851005795
2017-05-03,0.04329004329004195
2017-05-04,0.0600161674422658
2017-05-05,-0.022830372662907245
2017-05-08,0.07590017964539798
2017-05-09,-0.13022126281705254
2017-05-10,0.10680037262315598
2017-05-11,0.05833789954338064
2017-05-12,-0.12839377254604306
2017-05-15,-0.09255666734735961
2017-05-16,0.0461979913916799
2017-05-17,-0.0798523206751054
2017-05-18,-0.18947008547008506
2017-05-19,0.1725924420967119
2017-05-22,-0.027082242011519195
2017-05-23,0.037964904535920295
2017-05-24,0.1142857142857165
2017-05-25,-0.04977581616925937
2017-05-26,0.04371705718208671
2017-05-31,0.18743551952836746
2017-06-01,-0.05416506653754138
2017-06-02,-0.17774725274725384
2017-06-05,0.23229231514145582
2017-06-06,-0.16848341232227632
2017-06-07,-0.3466856515473825
2017-06-08,0.04059040590406156
2017-06-09,0.17937062937062687
2017-06-12,-0.12482419127989
2017-06-13,-0.09761904761904619
2017-06-14,0.22072693551670441
2017-06-15,0.04371584699453017
2017-06-16,-0.049024274155159794
2017-06-19,0.01772752652149851
2017-06-20,0.24914189025863998
2017-06-21,0.0006951059392956704
2017-06-22,0.010338207059523166
2017-06-23,-0.1359019107710229
2017-06-26,0.0006162889921281275
2017-06-27,-0.09199903311578242
2017-06-28,0.0005434310059971546
2017-06-29,-0.058662348984932895
2017-06-30,0.13568376068376198
2017-07-03,0.1383228511530412
2017-07-04,0.08890138732658154
2017-07-05,-0.09168526408331523
2017-07-06,-0.022314781992200054
2017-07-07,-0.057476943346511634
2017-07-10,-0.08471218206158176
2017-07-11,-0.17968705534850593
2017-07-12,0.13153995315001296
2017-07-13,0.06176292778825536
2017-07-14,0.03839505721926506
2017-07-17,-0.23623999533570195
2017-07-18,0.045225822462077264
2017-07-19,-0.09147697790464396
2017-07-20,0.003621687596358482
2017-07-21,-0.022584780539421413
2017-07-24,0.3911373625824709
2017-07-25,0.12097812097812209
2017-07-26,0.1419163867362882
2017-07-27,-0.1119439665765525
2017-07-28,0.1724137931034472
2017-07-31,-0.21966230936819475
2017-08-01,-0.15100815100815212
2017-08-02,-0.22320376240116402
2017-08-03,0.18900589381898697
2017-08-04,-0.3180448610646116
2017-08-07,-0.1157754010695191
2017-08-08,0.2064169432590492
2017-08-09,0.12086322038090908
2017-08-10,-0.18776681171157478
2017-08-11,0.3546474614037859
2017-08-14,0.27195685670262076
2017-08-15,-0.24781356376014607
2017-08-16,0.0754180602006668
2017-08-17,0.01070488446914207
2017-08-18,-0.44180327868852376
2017-08-21,-0.2851658699116325
2017-08-22,0.2783169579239479
2017-08-23,-0.08266467624556673
2017-08-24,0.12991452991452873
2017-08-25,0.2927868852459036
2017-08-28,0.17976132881793086
2017-08-29,-0.2697553702578827
2017-08-30,-0.07746257720088195
2017-08-31,-0.14732343679711937
2017-09-01,-0.11714285714285808
2017-09-04,0.025366876310274383
2017-09-05,0.07019296492980667
2017-09-06,0.028835756337860605
2017-09-07,0.04801953336950611
2017-09-08,0.2167173252279641
2017-09-11,0.05453618756371131
2017-09-12,-0.01674641148325611
2017-09-13,0.1525600835945667
2017-09-14,0.11295908505154532
2017-09-15,-0.2642676088793327
2017-09-18,-0.17460787215152634
2017-09-19,0.07131661442006693
2017-09-20,-0.15024191494779895
2017-09-21,-0.12150493421052533
2017-09-22,0.06359725038326888
2017-09-25,0.20261136712749672
2017-09-26,-0.04259847063915867
2017-09-27,-0.02181298051135184
2017-09-28,0.22129186602870768
2017-09-29,0.11032665964172485
2017-10-09,-0.35032545392257436
2017-10-10,0.03956745190194826
2017-10-11,0.04150835866261278
2017-10-12,-0.34620174346201793
2017-10-13,0.029129886506935765
2017-10-16,0.23213071333977348
2017-10-17,-0.01795300144782193
2017-10-18,0.09513696255201369
2017-10-19,0.29560528110085194
2017-10-20,-0.17036065573770348
2017-10-23,-0.04145222165036627
2017-10-24,-0.04452562587299746
2017-10-25,0.14278079629464302
2017-10-26,-0.28593870058909177
2017-10-27,-0.030678571428574095
2017-10-30,0.13100446045633565
2017-10-31,0.08449062641986618
2017-11-01,-0.498858132850335
2017-11-02,0.21459722065303594
2017-11-03,0.11397800645682277
2017-11-06,-0.1541454737485716
2017-11-07,-0.050691002543728825
2017-11-08,0.3303206261045166
2017-11-09,-0.12729596985804037
2017-11-10,0.16339936015247297
2017-11-13,0.0036670964045213347
2017-11-14,-0.06367076336116816
2017-11-15,-0.035564570655845056
2017-11-16,0.129915730337084
2017-11-17,-0.3458217898331285
2017-11-20,-0.01058726220015982
2017-11-21,0.05833303425091787
2017-11-22,-0.05143330541765876
2017-11-23,-0.16008091665464663
2017-11-24,0.2589507499284681
2017-11-27,0.25923587010802823
2017-11-28,0.040597447032507644
2017-11-29,0.05136762397266799
2017-11-30,0.26707244207837066
2017-12-01,-0.087827755276062
2017-12-04,-0.38636692823488084
2017-12-05,0.19999999999999646
2017-12-06,-0.001859193438143742
2017-12-07,-0.16949152542372736
2017-12-08,-0.05687203791469156
2017-12-11,0.2591459714029082
2017-12-12,-0.4108071135430888
2017-12-13,-0.0436602870813384
2017-12-14,0.0352941176470585
2017-12-15,0.0455084015510534
2017-12-18,-0.18385028591232
2017-12-19,0.22626714370900386
2017-12-20,-0.06406860011154555
2017-12-21,-0.021688675470185593
2017-12-22,0.23284014643075024
2017-12-25,0.21883289124668284
2017-12-26,-0.14339396235948387
2017-12-27,0.20198464581447417
2017-12-28,-0.09281336296895291
2017-12-29,-0.3343797358735637
2018-01-02,-0.030536130536130718
2018-01-03,0.1432149049178606
2018-01-04,-0.16799625960666942
2018-01-05,0.06206506364922301
2018-01-08,0.1245311327831976
2018-01-09,-0.26300940438871023
2018-01-10,-0.03769973043716784
2018-01-11,0.126671122994649
2018-01-12,0.08250233426703724
2018-01-15,0.006777000998713936
2018-01-16,0.3046669436366112
2018-01-17,-0.012340600575893167
2018-01-18,-0.06787634408602182
2018-01-19,-0.10860272036742238
2018-01-22,-0.024054625489585216
2018-01-23,-0.26286966046002036
2018-01-24,0.005347593582888602
2018-01-25,-0.03409734012450376
2018-01-26,-0.025249907441690096
2018-01-29,-0.13405616483881652
2018-01-30,0.409867909867911
2018-01-31,-0.013422818791945164
2018-02-01,0.09389545291800766
2018-02-02,0.18462218294299937
2018-02-05,0.23219143148588992
2018-02-06,-0.3951973951973978
2018-02-07,0.07968787903290753
2018-02-08,-0.02052346362273308
2018-02-09,-0.23634761149303973
2018-02-12,-0.12354144975406793
2018-02-13,0.06400081400081181
2018-02-14,0.08339480370461998
2018-02-22,-0.06348410390131817
2018-02-23,0.30924296947887203
2018-02-26,0.08746615703137768
2018-02-27,0.06254667662435029
2018-02-28,-0.25110913930790313
2018-03-01,0.11560730419291457
2018-03-02,-0.15932141994686985
2018-03-05,0.006089743589742673
2018-03-06,0.044919386724070365
2018-03-07,0.18334582708645894
2018-03-08,-0.15375058904168246
2018-03-09,-0.10235254294660107
2018-03-12,-0.1823156682027661
2018-03-13,0.054938286228707695
2018-03-14,-0.15772593561039433
2018-03-15,0.07798549392174702
2018-03-16,0.011735867065815649
2018-03-19,0.22792377631087463
2018-03-20,-0.17788277359213667
2018-03-21,0.0705662259915211
2018-03-22,0.0004246949902474116
2018-03-23,0.10601229948745586
2018-03-26,-0.017610634999587885
2018-03-27,0.06826556308685895
2018-03-28,-0.062293569290379915
2018-03-29,0.013357356291802633
2018-03-30,0.030018776988318972
2018-04-02,-0.09923109756267029
2018-04-03,-0.0347424084720525
2018-04-04,0.12260259874474941
2018-04-09,0.47161371237458827
2018-04-10,-0.2001173708920188
2018-04-11,-0.06767833567874014
2018-04-12,0.14756124615726202
2018-04-13,-0.10374717026093366
2018-04-16,-0.8710787950734579
2018-04-17,0.2015027322404362
2018-04-18,-0.014958598242745896
2018-04-19,-0.2755114344278773
2018-04-20,0.14937243964089772
2018-04-23,0.3144510114043151
2018-04-24,-0.08948974522745007
2018-04-25,0.1374231899545802
2018-04-26,0.21791223077192945
2018-04-27,-0.16055138046055742
2018-05-02,0.0864533167624629
2018-05-03,-0.011857707509879151
2018-05-04,-0.10337747234327523
2018-05-07,-0.04355770865204269
2018-05-08,0.12028292408471587
2018-05-09,0.0757881157784425
2018-05-10,-0.061362176054829506
2018-05-11,0.12021792252533714
2018-05-14,-0.07184551415320815
2018-05-15,-0.06040268456375363
2018-05-16,-0.12341772151898804
2018-05-17,0.18976676710188367
2018-05-18,0.05440897102491776
2018-05-21,0.4404168413859502
2018-05-22,0.13740458015266663
2018-05-23,0.03221901282813728
2018-05-24,-0.03213129912159288
2018-05-25,-0.02737957216577118
2018-05-28,-0.5574048976452637
2018-05-29,-0.10783936276136495
2018-05-30,0.24162207509523098
2018-05-31,0.10940813572392966
2018-06-01,-0.17106533776301097
2018-06-04,0.24675343057118576
2018-06-05,0.07440674522551721
2018-06-06,-0.447456384956386
2018-06-07,-0.3926788124156563
2018-06-08,0.15960696398759988
2018-06-11,-0.1204041710949885
2018-06-12,-0.4023326183545261
2018-06-13,0.24716906492607102
2018-06-14,0.24295321637427
2018-06-15,-0.1689813482240528
2018-06-19,0.8851114404354862
2018-06-20,0.5250445935615375
2018-06-21,-0.08624875405855792
2018-06-22,-0.04533430585947078
2018-06-25,0.04390236901527033
2018-06-26,-1.2077308012733836
2018-06-27,-0.5132007917564178
2018-06-28,0.01909885340361719
2018-06-29,0.05422319474835814
2018-07-02,0.1132815390307097
2018-07-03,0.36151999194054174
2018-07-04,0.21561220845581147
2018-07-05,0.10259013675922651
2018-07-06,-0.03999999999999688
2018-07-09,-0.1102502017756297
2018-07-10,-0.08190725413826874
2018-07-11,0.18607318480261398
2018-07-12,-0.11706880551505215
2018-07-13,0.05974025974025504
2018-07-16,0.027270065492434846
2018-07-17,0.09424638336417104
2018-07-18,-0.26552754048375865
2018-07-19,-0.03894502021108702
2018-07-20,-0.2638965917060087
2018-07-23,0.07036752367057789
2018-07-24,0.04111783048105513
2018-07-25,0.1503590011579136
2018-07-26,0.1433766674594449
2018-07-27,0.19428791091311756
2018-07-30,-0.13378827332315485
2018-07-31,-0.047460361539785986
2018-08-01,0.08029197080292888
2018-08-02,-0.05055629834781706
2018-08-03,0.0956770019107233
2018-08-06,0.08885276030253864
2018-08-07,0.15540863816276185
2018-08-08,-0.10397618132924286
2018-08-09,-0.053298244335981765
2018-08-10,-0.1330308030803125
2018-08-13,0.36697475342720126
2018-08-14,-0.27169695732080834
2018-08-15,0.035820132856417254
2018-08-16,0.06801890024368695
2018-08-17,0.38671413908134333
2018-08-20,-0.489886397908913
2018-08-21,0.1640836246125444
2018-08-22,0.07979653545601349
2018-08-23,-0.010877895621648866
2018-08-24,-0.5485220171935693
2018-08-27,0.13916308230662708
2018-08-28,-0.061707248585986293
2018-08-29,-0.11518827173959961
2018-08-30,-0.13355201499531116
2018-08-31,0.15576133520127886
2018-09-03,0.00020546871198058939
2018-09-04,0.05217368948761943
2018-09-05,-0.06655001128922983
2018-09-06,0.172727272727271
2018-09-07,0.10326876513316978
2018-09-10,-0.13271830471318877
2018-09-11,-0.048764754779713426
2018-09-12,0.12250337292663788
2018-09-13,-0.003342128408089076
2018-09-14,-0.05248138957816388
2018-09-17,0.03749111584932299
2018-09-18,0.12026381461675476
2018-09-19,0.03786206302167348
2018-09-20,-0.15877908371312277
2018-09-21,0.042682394603287446
2018-09-25,0.05032806979594996
2018-09-26,-0.12356102315534381
2018-09-27,-0.1538929440389295
2018-09-28,0.06239669421487823
2018-10-08,-0.13991610474021932
2018-10-09,0.2883110132697326
2018-10-10,-0.03521983219291864
2018-10-11,0.28227232537577635
2018-10-12,0.05075696628391421
2018-10-15,0.09101944754118124
2018-10-16,-0.38740839440372704
2018-10-17,0.015074254661855947
2018-10-18,-0.36560565870910944
2018-10-19,-0.03644911504424727
2018-10-22,0.011880365549711652
2018-10-23,0.14699248120300565
2018-10-24,0.08798599594619264
2018-10-25,0.21696252465483432
2018-10-26,0.0018485915492958173
2018-10-29,0.10569780811417567
2018-10-30,0.02569213732004528
2018-10-31,-0.0750726216412469
2018-11-01,-0.14903003520335514
2018-11-02,0.4494856781136244
2018-11-05,-0.15594134501938345
2018-11-06,-0.20446932720834554
2018-11-07,0.03912666761619667
2018-11-08,0.16844571567672584
2018-11-09,-0.6685393258426956
2018-11-12,0.13529411764705757
2018-11-13,0.12317873428984265
2018-11-14,0.1732916330373964
2018-11-15,-0.15912330316742102
2018-11-16,0.17910751096013666
2018-11-19,-0.2635777598710735
2018-11-20,0.35593068151208335
2018-11-21,-0.20055555555555407
2018-11-22,0.17614645858343675
2018-11-23,0.04041562033701174
2018-11-26,0.2660345898584374
2018-11-27,-0.42518374201240494
2018-11-28,-0.1398062953995167
2018-11-29,-0.1530171146268342
2018-11-30,0.007172665623366421
2018-12-03,-0.10626844809254934
2018-12-04,0.03615350524887101
2018-12-05,0.20794447292265672
2018-12-06,0.25841507560751786
2018-12-07,0.00496175158455734
2018-12-10,0.02903368947553131
2018-12-11,0.09938675620492163
2018-12-12,-0.030638177523137973
2018-12-13,-0.37149383421941706
2018-12-14,0.12106397474056953
2018-12-17,-5.253975072707154e-05
2018-12-18,-0.11597975064601601
2018-12-19,-0.008904011461321795
2018-12-20,0.6225429975430017
2018-12-21,-0.2151916639162588
2018-12-24,-0.05270613578093271
2018-12-25,0.11535594035593863
2018-12-26,-0.09393515702883468
2018-12-27,-0.7685406698564617
2018-12-28,0.041687608197912875
2019-01-02,0.09569228748727567
2019-01-03,-0.08489970883209591
2019-01-04,0.07787648192298834
2019-01-07,0.1975393028024591
2019-01-08,0.20328931279041235
2019-01-09,-0.1541353383458616
2019-01-10,-0.041236654804265284
2019-01-11,0.2038097185306319
2019-01-14,0.3148424496355358
2019-01-15,-0.17549063089034492
2019-01-16,0.061320519842648684
2019-01-17,0.08406357388316028
2019-01-18,-0.22738151472208512
2019-01-21,-0.11584852353915569
2019-01-22,0.17511830874576884
2019-01-23,0.1146847106248253
2019-01-24,0.030318146546941427
2019-01-25,-0.008232532948187828
2019-01-28,-0.03575203389994602
2019-01-29,-0.25670571778282936
2019-01-30,-0.13743246719835944
2019-01-31,0.06431324812335895
2019-02-01,0.05079439322842108
2019-02-11,-0.07530838321029351
2019-02-12,0.07491800718413176
2019-02-13,0.06840236686390723
2019-02-14,-0.06070716367541486
2019-02-15,0.026934160939922444
2019-02-18,-0.11396011396011321
2019-02-19,0.24772952072655136
2019-02-20,0.0657692307692316
2019-02-21,-0.10542320539484776
2019-02-22,-0.04125483455092474
2019-02-25,0.1734539969834093
2019-02-26,-0.18190143190142774
2019-02-27,-0.14433333333333212
2019-02-28,0.1007233661328463
2019-03-01,0.45251396648044817
2019-03-04,0.2790434092712229
2019-03-05,-0.05544233214856563
2019-03-06,0.3067762557077609
2019-03-07,0.027102563289241613
2019-03-08,-0.5139730068396574
2019-03-11,-0.4522093048429354
2019-03-12,0.23761193245975795
2019-03-13,-0.32625070826250724
2019-03-14,-0.051555415420641536
2019-03-15,-0.09308099688473835
2019-03-18,0.17887450813066053
2019-03-19,-0.4577597509013456
2019-03-20,0.05199796993715878
2019-03-21,-0.12660050626596359
2019-03-22,0.41704207119741427
2019-03-25,-0.10624131118753491
2019-03-26,0.22859888190077005
2019-03-27,-0.0442136382068621
2019-03-28,0.5104162048462807
2019-03-29,-0.3334105804101434
2019-04-01,0.15868254084395467
2019-04-02,0.08891913947631168
2019-04-03,0.08046535967480128
2019-04-04,-0.6329797733423179
2019-04-08,-0.02274315036462178
2019-04-09,-0.0971688139651747
2019-04-10,-0.07347969660644339
2019-04-11,-0.0509641537605822
2019-04-12,0.2749894551045159
2019-04-15,0.1685603775260682
2019-04-16,-0.02094761578207013
2019-04-17,-0.1318455244937256
2019-04-18,0.1835977199416761
2019-04-19,-0.06525573192240075
2019-04-22,-0.14142231530845284
2019-04-23,-0.015492319435162057
2019-04-24,0.38388179544557244
2019-04-25,-0.2424358320584713
2019-04-26,0.1849306811332115
2019-04-29,0.009704281686448518
2019-04-30,0.03941913894715311
2019-05-06,-0.30798346162896423
2019-05-07,0.20909453757554738
2019-05-08,-0.30582161815318076
2019-05-09,0.3308355257189521
2019-05-10,0.09617330419297496
2019-05-13,-0.05050519486087543
2019-05-14,-0.05175431144337817
2019-05-15,0.15043916656820153
2019-05-16,-0.46088804912612524
2019-05-17,-0.09037967718268201
2019-05-20,0.04326830210546995
2019-05-21,-0.17341664738100765
2019-05-22,0.12367858749437387
2019-05-23,0.3341979452751546
2019-05-24,-0.004825619653438485
2019-05-27,0.20849518662387573
2019-05-28,0.1195717930508425
2019-05-29,0.12680390492359944
2019-05-30,-0.16495093612666714
2019-05-31,0.01735785691971664
2019-06-03,-0.22337414265778166
2019-06-04,0.01302515282940217
2019-06-05,-0.4745885450954572
2019-06-06,-0.0008684324793736022
2019-06-10,0.00625823451910151
2019-06-11,0.08478592064567654
2019-06-12,-0.07050332780992333
2019-06-13,0.2498450383018544
2019-06-14,-0.03787833383278304
2019-06-17,-0.04408031762561405
2019-06-18,-0.10166412750498342
2019-06-19,0.4526593147416236
2019-06-20,-0.009766234503108092
2019-06-21,0.08372495414748905
2019-06-24,0.01434540989962078
2019-06-25,0.09627329192547124
2019-06-26,-0.6603749747321574
2019-06-27,0.05318031803180877
2019-06-28,-0.1610779610779605
2019-07-01,0.7862886161658835
2019-07-02,0.022916666666663033
2019-07-03,0.34537857913022185
2019-07-04,-0.05870852739923476
2019-07-05,0.22362914862914662
2019-07-08,-1.1497233039557182
2019-07-09,0.1527207271010414
2019-07-10,-0.1913920447574393
2019-07-11,-0.08113250588442499
2019-07-12,-0.15537047028144746
2019-07-15,0.7862913069531003
2019-07-16,-0.3165464846767995
2019-07-17,0.19479186587620237
2019-07-18,0.0571219505645737
2019-07-19,0.10593770037129359
2019-07-22,-0.7257290911614502
2019-07-23,0.14807754969045442
2019-07-24,-0.055367263552316325
2019-07-25,0.039534624900475906
2019-07-26,-0.12330488056722413
2019-07-29,0.601608763863569
2019-07-30,-0.007168458781362081
2019-07-31,-0.07413823692092296
2019-08-01,-0.09880057407328338
2019-08-02,0.1779220166130432
2019-08-05,-0.3350061985524616
2019-08-06,0.170792385364427
2019-08-07,0.07652341754107461
2019-08-08,0.4038721962180776
2019-08-09,0.1310550774808293
2019-08-12,0.14830490180656203
2019-08-13,-0.14007041915858925
2019-08-14,0.2355769622483533
2019-08-15,-0.4053334616186379
2019-08-16,-0.29690904283448005
2019-08-19,-0.1879452975182322
2019-08-20,-0.10479604027991157
2019-08-21,-0.5509811227024308
2019-08-22,0.17225200139226893
2019-08-23,0.17506026614645187
2019-08-26,0.24259107542738434
2019-08-27,0.14256722475900468
2019-08-28,0.3477564102564103
2019-08-29,-0.14859234133713844
2019-08-30,-0.24667316937225975
2019-09-02,-0.2639659637439873
2019-09-03,-0.14343961749435363
2019-09-04,-0.06534900284900368
2019-09-05,0.07319926822004506
2019-09-06,0.30875576036866537
2019-09-09,0.1287689146273122
2019-09-10,0.03573078053491222
2019-09-11,-0.025434618291762266
2019-09-12,-0.10704194740274195
2019-09-16,-0.33841964487125853
2019-09-17,-0.007076131341950665
2019-09-18,0.036398784866062024
2019-09-19,-0.010503862561970605
2019-09-20,0.1078161552222406
2019-09-23,0.19814878998552907
2019-09-24,0.21654836061616084
2019-09-25,-0.048584967750429656
2019-09-26,0.04519774011299228
2019-09-27,0.17486227300550614
2019-09-30,-0.033675582034060396
2019-10-08,-0.44322259175815665
2019-10-09,0.25625362118044187
2019-10-10,0.024608501118567876
2019-10-11,-0.3315765697937019
2019-10-14,0.1274003129296866
2019-10-15,0.2716853632733147
2019-10-16,-0.24615609984765302
2019-10-17,-0.05862210656074482
2019-10-18,0.15600590442216297
2019-10-21,-0.29528908679672217
2019-10-22,-0.06473739933908178
2019-10-23,-0.036059549022046014
2019-10-24,0.23277136941733256
2019-10-25,0.12322119243961321
2019-10-28,0.1759628364127236
2019-10-29,0.0009196732908860056
2019-10-30,0.20265392004998994
2019-10-31,-0.2936031247998986
2019-11-01,-0.16008474276204715
2019-11-04,0.10018000223011743
2019-11-05,0.19432568420440416
2019-11-06,-0.06583056374239366
2019-11-07,0.15606985062066048
2019-11-08,-0.01087480287366567
2019-11-11,-0.034883855779378525
2019-11-12,-0.3421505013066794
2019-11-13,-0.24602662363856526
2019-11-14,-0.14838045309866774
2019-11-15,-0.01910997294162902
2019-11-18,-0.10545856042510804
2019-11-19,0.1610364691596014
2019-11-20,0.4087893864013237
2019-11-21,0.1030650542118409
2019-11-22,0.03039245444223061
2019-11-25,0.07218860205524974
2019-11-26,0.10499230532471357
2019-11-27,-0.3331093189964121
2019-11-28,0.0022314986600707465
2019-11-29,0.23172548492050596
2019-12-02,-0.06658069627588051
2019-12-03,-0.17487996600807587
2019-12-04,0.07171183904223385
2019-12-05,-0.09324788570650126
2019-12-06,-0.3369643290839649
2019-12-09,-0.019018651306770155
2019-12-10,0.1567305105727132
2019-12-11,0.03730756103412496
2019-12-12,0.08070682533726906
2019-12-13,0.23363056941330823
2019-12-16,0.23963426398208615
2019-12-17,-0.09215357486766941
2019-12-18,0.10777401034345506
2019-12-19,0.19513711905052922
2019-12-20,-0.21644980844936415
2019-12-23,-0.30964526911781476
2019-12-24,-0.02347737732353049
2019-12-25,-0.21181262729124253
2019-12-26,-0.3055202473392963
2019-12-27,0.22493326464665458
2019-12-30,0.09161549362305238
2019-12-31,0.1001161050260896
2020-01-02,0.12139303930933991
2020-01-03,0.0808184574766393
2020-01-06,-0.19039667393675136
2020-01-07,0.09946396664681129
2020-01-08,-0.014136150914268793
2020-01-09,0.17161004852982864
2020-01-10,0.007660793786110728
2020-01-13,0.15876578531965352
2020-01-14,-0.07031943212067295
2020-01-15,-0.0339089481946594
2020-01-16,-0.3479007942940495
2020-01-17,-0.08349605137550958
2020-01-20,-0.19817226298832633
2020-01-21,0.20309702828499968
2020-01-22,-0.0707220255337426
2020-01-23,0.41410798485821
2020-02-03,0.4319620863720739
2020-02-04,0.27624920288540855
2020-02-05,-0.2048131692868549
2020-02-06,0.1737789990712649
2020-02-07,-0.2410840054909034
2020-02-10,-0.4699886489411007
2020-02-11,-0.2648005098475065
2020-02-12,0.054995265151515704
2020-02-13,-0.244066688460282
2020-02-14,-0.19724820785437502
2020-02-17,0.24354619920563347
2020-02-18,0.08190706810591417
2020-02-19,-0.1683693910256411
2020-02-20,0.2680378780164938
2020-02-21,0.25645682001614106
2020-02-24,-0.1457192374350099
2020-02-25,0.05743740082820914
2020-02-26,0.060579789063394666
2020-02-27,-0.3155283053181246
2020-02-28,0.3209523809523814
2020-03-02,0.06735978112175123
2020-03-03,0.06304145912445766
2020-03-04,0.08385494287133674
2020-03-05,0.18337193709618432
2020-03-06,-0.6464602064602052
2020-03-09,-0.07267228112175098
2020-03-10,-0.016702225728487577
2020-03-11,-0.09383395223032069
2020-03-12,0.19599749843652492
2020-03-13,0.39770341515307944
2020-03-16,0.07348151408450898
2020-03-17,-0.24393351717747053
2020-03-18,0.3366215007399408
2020-03-19,-0.281274586939421
2020-03-20,-0.2592310974900115
2020-03-23,-0.12620822977078444
2020-03-24,0.21282509430216545
2020-03-25,-0.5346161796485972
2020-03-26,0.0698924731182806
2020-03-27,0.25120015675516855
2020-03-30,0.26221832016388863
2020-03-31,0.12448903753251579
2020-04-01,0.35462447143406517
2020-04-02,-0.09171540678131718
2020-04-03,-0.217905103779399
2020-04-07,-0.24006084309773051
2020-04-08,-0.42634028563850823
2020-04-09,-0.14620986217064802
2020-04-10,0.04978668560731249
2020-04-13,0.28581297753231927
2020-04-14,0.030427193165572096
2020-04-15,0.22065041994864007
2020-04-16,0.129898513153765
2020-04-17,0.12633239089877496
2020-04-20,-0.40485473199376365
2020-04-21,0.28274268104776784
2020-04-22,0.12979125896934465
2020-04-23,-0.18131881583215653
2020-04-24,-0.1754719709506895
2020-04-27,0.28998562248760157
2020-04-28,-0.44436778161092216
2020-04-29,-0.199761497064582
2020-04-30,0.1552569127184768
2020-05-06,0.07444122284112234
2020-05-07,-0.13694116332970327
2020-05-08,0.15378015363191416
2020-05-11,0.1192131846035998
2020-05-12,-0.07887553872273806
2020-05-13,0.21553716012866742
2020-05-14,-0.008509003074219833
2020-05-15,0.04125129961470202
2020-05-18,0.09342836591905056
2020-05-19,0.1263157894736814
2020-05-20,-0.3394723307398551
2020-05-21,0.045135938827528276
2020-05-22,0.1728046939531158
2020-05-25,-0.25068799364165006
2020-05-26,-0.2221289038198287
2020-05-27,0.1378448576916385
2020-05-28,0.6274860577045481
2020-05-29,-0.20291501720226818
2020-06-01,0.22123935056366845
2020-06-02,0.15766591708469888
2020-06-03,0.0454389102916858
2020-06-04,-0.8191422062161704
2020-06-05,-0.0702224363607172
2020-06-08,-0.08274647887323934
2020-06-09,-0.049101503890573064
2020-06-10,-0.0712302909171638
2020-06-11,0.07692755628782819
2020-06-12,0.2622517534145454
2020-06-15,0.11011235955056381
2020-06-16,0.09028513839898299
2020-06-17,0.019039074960127383
2020-06-18,0.05948922909590157
2020-06-19,-0.16011670267293598
2020-06-22,-0.25089910903296686
2020-06-23,-0.18689820008779878
2020-06-24,0.16247516145056923
2020-06-29,0.1190543075403471
2020-06-30,-0.03479914340569948
2020-07-01,0.17616410797297022
2020-07-02,0.12946181079671681
2020-07-03,-0.2250775365529436
2020-07-06,0.015828463626743026
2020-07-07,0.02913595413595129
2020-07-08,0.04545405028541597
2020-07-09,0.020661760411192227
2020-07-10,0.08242403894577659
2020-07-13,0.07343227757440446
2020-07-14,0.22237228660029634
2020-07-15,-0.1701171230617001
2020-07-16,0.101935646053292
2020-07-17,0.37005149133955284
2020-07-20,0.00996355111400446
2020-07-21,-0.2490742564346322
2020-07-22,0.44155844155844537
2020-07-23,-0.010737628384686407
2020-07-24,-0.4402538322780968
2020-07-27,-0.25679465951944663
2020-07-28,0.14268518972786093
2020-07-29,-0.5618414604263678
2020-07-30,-0.27584947022287254
2020-07-31,0.00150027346121763
2020-08-03,0.2496684350132642
2020-08-04,-0.18130662198163136
2020-08-05,0.21363377380404758
2020-08-06,0.2912641381143183
2020-08-07,0.16590565615917624
2020-08-10,-0.060763674527721065
2020-08-11,0.12049175225645789
2020-08-12,0.014645436391302873
2020-08-13,-0.19863427587006685
2020-08-14,-0.2523798047742353
2020-08-17,-0.23146299864099434
2020-08-18,-0.16323287137890133
2020-08-19,-0.0714712132380299
2020-08-20,0.06515165540899234
2020-08-21,0.19765930076507116
2020-08-24,-0.02703469581725762
2020-08-25,0.23228221746088978
2020-08-26,0.13174333325120366
2020-08-27,-0.12180665732395941
2020-08-28,0.006153712498553773
2020-08-31,0.23736481726183464
2020-09-01,-0.16948213842489432
2020-09-02,-0.18004642684211802
2020-09-03,0.21277915632754724
2020-09-04,-0.15480522828246154
2020-09-07,-0.08173720258126002
2020-09-08,0.12814461375335728
2020-09-09,0.20520077700549144
2020-09-10,-0.18917710196779972
2020-09-11,0.11860848702953808
2020-09-14,0.15032220513033828
2020-09-15,-0.19997600677808508
2020-09-16,-0.13254603812734866
2020-09-17,0.24945600435196186
2020-09-18,0.14661379263149243
2020-09-21,0.0052969961605066895
2020-09-22,0.28809531621303597
2020-09-23,0.21868915680694906
2020-09-24,-0.157816831582992
2020-09-25,-0.26919791521561376
2020-09-28,-0.26400682437634015
2020-09-29,-0.26541695674190824
2020-09-30,-0.39067689129468297
2020-10-09,-0.07057621472176853
2020-10-12,0.14123595005948
2020-10-13,0.07002424102276864
2020-10-14,0.06809223421217929
2020-10-15,0.10651346835557121
2020-10-16,0.3262774092267214
2020-10-19,0.02363750142223326
2020-10-20,0.07304251284828144
2020-10-21,0.09316025835099195
2020-10-22,0.19520494294433655
2020-10-23,-0.4283171114599707
2020-10-26,-0.07476658171382791
2020-10-27,-0.06539839509967947
2020-10-28,-0.08567496067495786
2020-10-29,0.12934508076358164
2020-10-30,0.4047692307692303
2020-11-02,-0.021124629130716006
2020-11-03,0.0882693883533302
2020-11-04,0.1213632079773794
2020-11-05,-0.2620676328502377
2020-11-06,-0.37042010358718475
2020-11-09,0.18636541471048604
2020-11-10,-0.012227406523105739
2020-11-11,-0.1192140102291609
2020-11-12,-0.053687492114657884
2020-11-13,0.08900630559880018
2020-11-16,-0.2864963896971643
2020-11-17,0.03099991041567213
2020-11-18,-0.021254439662333174
2020-11-19,0.01254381544108675
2020-11-20,0.12886358045621923
2020-11-23,0.03384261985589462
2020-11-24,-0.11007168241215007
2020-11-25,0.17526419833416707
2020-11-26,0.037620312240147176
2020-11-27,-0.14577027982331295
2020-11-30,0.24457557521714926
2020-12-01,0.040750686680145295
2020-12-02,-0.13396699929659178
2020-12-03,0.07538675836266234
2020-12-04,0.13532904436402626
2020-12-07,-0.27234728809064473
2020-12-08,-0.0233626076184879
2020-12-09,-0.08608234720150909
2020-12-10,-0.12852652208995688
2020-12-11,-0.08579714236682434
2020-12-14,0.16278766494841357
2020-12-15,0.014092133867962667
2020-12-16,0.15560145014353383
2020-12-17,0.17489044164968065
2020-12-18,-0.07426713678836389
2020-12-21,-0.024260681643529503
2020-12-22,0.20430655716430624
2020-12-23,-0.09240506329113429
2020-12-24,0.06802929573922914
2020-12-25,0.11842286501377662
2020-12-28,0.0693994222596396
2020-12-29,-0.2818167346288989
2020-12-30,0.1375996781562943
2020-12-31,-0.3196342218293756
2021-01-04,0.18594748346597298
2021-01-05,-0.17868211421405883
2021-01-06,0.1655487082519588
2021-01-07,-0.1580638131773929
2021-01-08,0.20165008716464583
2021-01-11,-0.30475626089544144
2021-01-12,0.13481803485862176
2021-01-13,-0.019509561304837796
2021-01-14,0.12359276251542878
2021-01-15,-0.001084187316492749
2021-01-18,0.07687774449399022
2021-01-19,-0.08232178721436889
2021-01-20,-0.03637496256364361
2021-01-21,-0.10917936545325929
2021-01-22,-0.08881762409369981
2021-01-25,-0.0036339021294626572
2021-01-26,0.10490094993605195
2021-01-27,-0.10049315724190687
2021-01-28,-0.02605749065263472
2021-01-29,0.11253871182719608
2021-02-01,0.004776556776558954
2021-02-02,-0.09770712558816402
2021-02-03,0.13371277643426838
2021-02-04,0.04538377890151792
2021-02-05,-0.0003144541369399165
2021-02-08,-0.05312444194726899
2021-02-09,0.0997110740206845
2021-02-10,-0.15041642778322473
2021-02-18,0.19129500446325226
2021-02-19,-0.20041094662321676
2021-02-22,0.16135934429982085
2021-02-23,-0.020988224140511436
2021-02-24,0.2567732449444965
2021-02-25,-0.19665045255834118
2021-02-26,0.2680513735146318
2021-03-01,0.009672926252948535
2021-03-02,-0.07735726920016087
2021-03-03,-0.15355206642879107
2021-03-04,0.09500759835650348
2021-03-05,-0.09563569518026833
2021-03-08,0.035279217893652265
2021-03-09,0.12897557754218433
2021-03-10,0.04183210792862455
2021-03-11,-0.07979235488437862
2021-03-12,-0.06858186394119202
2021-03-15,-0.21361593799600592
2021-03-16,-0.15738670007388972
2021-03-17,-0.18621020407676608
2021-03-18,0.030712600283157233
2021-03-19,-0.006506667524572393
2021-03-22,-0.0347300749492396
2021-03-23,0.2085827234640466
2021-03-24,0.24672414963677533
2021-03-25,-0.1396900485377181
2021-03-26,0.32816772443653086
2021-03-29,0.10838749355362358
2021-03-30,-0.2247177974108589
2021-03-31,-0.09266065324257908
2021-04-01,0.41436206363917394
2021-04-02,-0.40563421485644036
2021-04-06,-0.018753187975335924
2021-04-07,-0.0016610104429497646
2021-04-08,-0.0458923042177755
2021-04-09,-0.586290202067355
2021-04-12,0.08541571397594853
2021-04-13,-0.013196387650621838
2021-04-14,0.1411964255697723
2021-04-15,0.17342128398594067
2021-04-16,0.42962353540068776
2021-04-19,-0.02001605716173177
2021-04-20,0.032417040225890176
2021-04-21,-0.03266803933946351
2021-04-22,-0.19238014810965398
2021-04-23,-0.1512470516624778
2021-04-26,0.24270366665216564
2021-04-27,0.05087142057568682
2021-04-28,0.017373703102530502
2021-04-29,0.003146496211710058
2021-04-30,-0.02516320474777535
2021-05-06,-0.12467215801983503
2021-05-07,-0.07233333197861491
2021-05-10,-0.1278439819938622
2021-05-11,0.15104843595109796
2021-05-12,0.13453952730236218
2021-05-13,-0.1544054330592996
2021-05-14,0.13972720424083457
2021-05-17,0.1818380254503583
2021-05-18,-0.13427986926233584
2021-05-19,-0.14179456552334954
2021-05-20,0.012826591457014466
2021-05-21,-0.2274519006382014
2021-05-24,-0.09911894273127622
2021-05-25,-0.00934133033059277
2021-05-26,-0.018226720431959095
2021-05-27,0.15357808574438053
2021-05-28,0.23036630269265612
2021-05-31,-0.11647254575707228
2021-06-01,0.0735092141207746
2021-06-02,0.14169847123329343
2021-06-03,-0.025439261787379798
2021-06-04,-0.23576476226513898
2021-06-07,0.2581468787837492
2021-06-08,0.05435064669006567
2021-06-09,-0.13517193646094475
2021-06-10,-0.1414183174413257
2021-06-11,0.15837325814949738
2021-06-15,-0.22717307569222556
2021-06-16,-0.011946694477045439
2021-06-17,0.13277496636986855
2021-06-18,0.1319521702225828
2021-06-21,-0.06590909090908949
2021-06-22,0.131168034004134
2021-06-23,-0.14086984970127756
2021-06-24,-0.1274346896866723
2021-06-25,-0.05204420154863053
2021-06-28,0.0830769230769215
2021-06-29,-0.14411063670363986
2021-06-30,-0.03796784042448535
2021-07-01,0.2071461652117287
2021-07-02,-0.07053173947317769
2021-07-05,-0.09291384317521821
2021-07-06,0.05840130532501731
2021-07-07,0.26116642202931645
2021-07-08,-0.28045778193091964
2021-07-09,0.18413417107328447
2021-07-12,-0.004822005881383748
2021-07-13,0.15376553023611134
2021-07-14,-0.2205789481414034
2021-07-15,0.11177504876508007
2021-07-16,-0.17764997204249966
2021-07-19,0.03356918238993349
2021-07-20,-0.03527360735088238
2021-07-21,0.13055832570593265
2021-07-22,0.13043056364190345
2021-07-23,0.10727582507730452
2021-07-26,0.08617303609342125
2021-07-27,-0.11450780631833468
2021-07-28,-0.020441134006110015
2021-07-29,-0.2650587841732094
2021-07-30,0.005053124039210748
2021-08-02,-0.11786958877620957
2021-08-03,0.0005887954454627531
2021-08-04,-0.04059151747510234
2021-08-05,0.15875639636504232
2021-08-06,-0.10058521416983543
2021-08-09,-0.01677728963289883
2021-08-10,0.007045994717390522
2021-08-11,0.03964719706052643
2021-08-12,-0.0031917448599192433
2021-08-13,0.0671556265613781
2021-08-16,0.10096398038274873
2021-08-17,0.0218359969038908
2021-08-18,-0.20162912395276655
2021-08-19,0.07792549141751462
2021-08-20,0.044996575540282226
2021-08-23,-0.03137431885802039
2021-08-24,0.030114548171103893
2021-08-25,0.18203587600139237
2021-08-26,-0.035778076412752796
2021-08-27,-0.0640132188696554
2021-08-30,-0.06986886057156873
2021-08-31,-0.03798027881672439
2021-09-01,-0.021112122335700156
2021-09-02,-0.10082165501903442
2021-09-03,0.12562360590054764
2021-09-06,0.02866597668591278
2021-09-07,-0.04386653256557521
2021-09-08,-0.0021058794924900042
2021-09-09,0.10997393173529024
2021-09-10,-0.1452274130192217
2021-09-13,0.015244722334275375
2021-09-14,0.07346891476911309
2021-09-15,0.07669772962598326
2021-09-16,-0.08120334594777623
2021-09-17,0.08227154228892138
2021-09-22,0.028099918099917506
2021-09-23,0.17753358743545392
2021-09-24,-0.11676546214328187
2021-09-27,-0.002485330453137067
2021-09-28,-0.07858557578276723
2021-09-29,-0.041534799365221954
2021-09-30,-0.13741299374342936
2021-10-08,0.10295217563465016
2021-10-11,0.23208352091238524
2021-10-12,0.10303395693267281
2021-10-13,0.2342433003038092
2021-10-14,-0.05624581867801228
2021-10-15,-0.07734204793028304
2021-10-18,-0.29733645304784345
2021-10-19,-0.12584393690872928
2021-10-20,-0.35482199254252433
2021-10-21,-0.08145872259796458
2021-10-22,0.12087492499863656
2021-10-25,0.08784898496098292
2021-10-26,0.1275320961673085
2021-10-27,0.11548816449050149
2021-10-28,0.13133848133848253
2021-10-29,-0.0943809463574203
2021-11-01,-0.00390433941528711
2021-11-02,-0.1263651438282025
2021-11-03,0.07295946669221992
2021-11-04,-0.08304633444298232
2021-11-05,-0.02018625703786684
2021-11-08,0.2831238063256902
2021-11-09,0.13674408413672032
2021-11-10,0.07904454114643238
2021-11-11,0.016949509855591034
2021-11-12,-0.06500763311896088
2021-11-15,-0.4407223154183304
2021-11-16,-0.23449742777997573
2021-11-17,-0.36956762903181395
2021-11-18,-0.11700835851779294
2021-11-19,0.08221843003412803
2021-11-22,0.238147680460392
2021-11-23,0.20337497880038308
2021-11-24,0.30158524133396136
2021-11-25,0.16678058783322292
2021-11-26,-0.020372168284787284
2021-11-29,-0.11947329907569859
2021-11-30,-0.0010204081632629383
2021-12-01,-0.05238211180628597
2021-12-02,0.019748881607125214
2021-12-03,0.2554654083780277
2021-12-06,-0.020206123360990327
2021-12-07,-0.05201477501678891
2021-12-08,-6.740525142441816e-05
2021-12-09,-0.05031961138062451
2021-12-10,-0.4093772461183801
2021-12-13,0.1573838942789258
2021-12-14,-0.0925764390709496
2021-12-15,-0.015336338850435446
2021-12-16,0.05641378101588977
2021-12-17,0.2614424538828627
2021-12-20,-0.10218436696322712
2021-12-21,0.16050881708399323
2021-12-22,-0.04140689786156949
2021-12-23,-0.1830535849951711
2021-12-24,-0.11334488853568546
2021-12-27,-0.1535248861673727
2021-12-28,-0.04102133743608809
2021-12-29,0.12558004557856825
2021-12-30,0.14444040087340854
2021-12-31,-0.14625111713887265
2022-01-04,0.46759018759018267
2022-01-05,0.1722027105490474
2022-01-06,-0.08427862792569953
2022-01-07,0.12582674701745508
2022-01-10,0.24673271200185776
2022-01-11,-0.43458373825720276
2022-01-12,-0.43836241696943046
2022-01-13,0.002546738072974385
2022-01-14,-0.22606702219576258
2022-01-17,-0.027788837372583114
2022-01-18,0.1859659522641881
2022-01-19,0.35793010752688165
2022-01-20,0.0630600667818439
2022-01-21,0.03795503490049373
2022-01-24,-0.10286818451671849
2022-01-25,-0.056065469863330164
2022-01-26,-0.23508771929824496
2022-01-27,-0.14468774548311192
2022-01-28,0.0578585349077113
2022-02-07,0.2352002515426625
2022-02-08,0.14409925889009878
2022-02-09,0.24622374321454088
2022-02-10,0.07259243049167871
2022-02-11,-0.005263157894734666
2022-02-14,-0.3328029796967643
2022-02-15,-0.3496445046908232
2022-02-16,-0.19420506917562924
2022-02-17,0.10812618978275064
2022-02-18,-0.07438630656485198
2022-02-21,0.4621799964827308
2022-02-22,0.25475746802439053
2022-02-23,0.2132608191679879
2022-02-24,0.2701624939563953
2022-02-25,0.48541962830835345
2022-02-28,-0.3084356123006901
2022-03-01,0.12925968466903948
2022-03-02,-0.12461053534561808
2022-03-03,-0.44745087284307566
2022-03-04,-0.5682136027627902
2022-03-07,0.025710229825162526
2022-03-08,-0.2390612431071173
2022-03-09,0.013842320334207289
2022-03-10,0.18973988403737624
2022-03-11,0.10987553955441817
2022-03-14,-0.1306267235486843
2022-03-15,0.033046571899429764
2022-03-16,-0.09012311514887497
2022-03-17,-0.23141021636117215
2022-03-18,-0.009372535502442658
2022-03-21,0.12355474227081485
2022-03-22,-0.07515686417357992
2022-03-23,-0.0667505706979522
2022-03-24,0.1658538784342019
2022-03-25,-0.03995969364905628
2022-03-28,-0.1161678735789867
2022-03-29,0.085002274793674
2022-03-30,0.09212805984206562
2022-03-31,-0.20127394736448026
2022-04-01,0.17067840905409248
2022-04-06,0.39909374321888735
2022-04-07,0.06808171001271787
2022-04-08,0.004265156538413556
2022-04-11,0.16086747321053205
2022-04-12,0.014115591412359393
2022-04-13,-0.5247867487262505
2022-04-14,-0.024640354804583826
2022-04-15,0.10327429790939356
2022-04-18,0.07566382026389193
2022-04-19,-0.2514034873399616
2022-04-20,0.30036166140359055
2022-04-21,-0.054660866924139906
2022-04-22,-0.13451785682385847
2022-04-25,0.09241632729766859
2022-04-26,0.2862876120358536
2022-04-27,-0.1440657118435599
2022-04-28,0.09523332073176424
2022-04-29,0.11678895570478585
2022-05-05,-0.2475131653610792
2022-05-06,-0.2332207853924561
2022-05-09,0.0324119217439243
2022-05-10,-0.12181678078068128
2022-05-11,-0.15450734524997634
2022-05-12,-0.04131418191626178
2022-05-13,0.16684356961662433
2022-05-16,0.13657971214683737
2022-05-17,0.09265215849061881
2022-05-18,0.12177784833876878
2022-05-19,0.025513267164280706
2022-05-20,-0.035338855379519134
2022-05-23,-0.2066923022110011
2022-05-24,-0.17016920752538375
2022-05-25,-0.06760293315591134
2022-05-26,0.05671760616851306
2022-05-27,-0.06974441322092617
2022-05-30,0.13967056982516124
2022-05-31,0.15994649323508497
2022-06-01,0.024639374790865774
2022-06-02,0.05233149546332641
2022-06-06,0.09773478579193637
2022-06-07,0.0015155738276106112
2022-06-08,0.1466094196195106
2022-06-09,0.13318197018498476
2022-06-10,0.0810931838329138
2022-06-13,-0.1903027429293686
2022-06-14,-0.0360153887608149
2022-06-15,-0.07122879065630461
2022-06-16,-0.04918051896580623
2022-06-17,-0.15079457876885535
2022-06-20,0.24843247336028704
2022-06-21,0.0747991302426735
2022-06-22,-0.13892006174795601
2022-06-23,-0.09126673091684176
2022-06-24,0.5115736256924773
2022-06-27,-0.11134515902137754
2022-06-28,-0.0879541460881269
2022-06-29,0.024114970445295432
2022-06-30,-0.03302600391143526
2022-07-01,-0.6014502454261479
2022-07-04,-0.05865986975879856
2022-07-05,0.09969679149191513
2022-07-06,0.2313780700865942
2022-07-07,0.13191251933080061
2022-07-08,0.1235086919783153
2022-07-11,0.09094572908194715
2022-07-12,-0.1656417279725985
2022-07-13,-0.3505529351151821
2022-07-14,0.13168692405465865
2022-07-15,-0.014688905295657344
2022-07-18,-0.056173736953304854
2022-07-19,0.19088257187695548
2022-07-20,0.06674075180864625
2022-07-21,-0.45525761186410574
2022-07-22,-0.03489905194711266
2022-07-25,0.0049935817091942645
2022-07-26,-0.18886777379388867
2022-07-27,-0.009290842042272901
2022-07-28,0.4207555641425552
2022-07-29,0.05135175619435746
2022-08-01,0.12015499633307013
2022-08-02,0.07229815335621036
2022-08-03,0.12223331534630251
2022-08-04,-0.15889147978432722
2022-08-05,0.09797306293849717
2022-08-08,-0.14413632061150783
2022-08-09,-0.09370692473680871
2022-08-10,-0.05146914261432897
2022-08-11,-0.10574469525007865
2022-08-12,-0.14440125871568232
2022-08-15,0.053928607507252424
2022-08-16,0.06739203357015645
2022-08-17,-0.02580277519332306
2022-08-18,0.06744383568895045
2022-08-19,0.04986387742491187
2022-08-22,-0.06819718229309364
2022-08-23,0.09681694950328092
2022-08-24,0.18696774836771465
2022-08-25,-0.047738330888809036
2022-08-26,0.01761688779057149
2022-08-29,0.002590511349514886
2022-08-30,-0.11467201388400058
2022-08-31,-0.28015432051653716
2022-09-01,0.27920946911483274
2022-09-02,0.03595458469326707
2022-09-05,0.043540959897187946
2022-09-06,-0.014825659765474758
2022-09-07,0.25346750053131495
2022-09-08,-0.39883827068293143
2022-09-09,-0.054821772002487196
2022-09-13,-0.05730026439048786
2022-09-14,0.06891238395582872
2022-09-15,-0.27856099342585894
2022-09-16,0.2126036353610772
2022-09-19,0.0076938449240628575
2022-09-20,0.1717494509540904
2022-09-21,0.12100669381256914
2022-09-22,0.15641025641025988
2022-09-23,-0.0286817999767466
2022-09-26,0.11004273504273354
2022-09-27,-0.08261116406038536
2022-09-28,-0.21117495797614577
2022-09-29,0.0701558688797644
2022-09-30,0.041570576176879495
2022-10-10,0.005164682645600632
2022-10-11,-0.042799776694414655
2022-10-12,0.09892144845781585
2022-10-13,-0.16199326096841307
2022-10-14,-0.011162687886825846
2022-10-17,-0.24551705327966056
2022-10-18,-0.020297163671129523
2022-10-19,-0.0021329752350076198
2022-10-20,0.10061498539861415
2022-10-21,-0.056321926105391634
2022-10-24,0.13931650657948308
2022-10-25,0.007432004654775892
2022-10-26,-0.0499014535599855
2022-10-27,-0.016928493758517602
2022-10-28,0.1290576581153211
2022-10-31,-0.019760271447438964
2022-11-01,0.3187567013922873
2022-11-02,0.10673857973289114
2022-11-03,-0.05590641478523494
2022-11-04,-0.03435222101405987
2022-11-07,0.007603511439829493
2022-11-08,-0.5441732175678606
2022-11-09,-0.2157372199815314
2022-11-10,0.1631559290382822
2022-11-11,-0.15532737793973728
2022-11-14,0.04590283749865492
2022-11-15,0.30652335604341885
2022-11-16,0.17622073219128
2022-11-17,-0.14956539556803775
2022-11-18,0.06768801410106186
2022-11-21,0.1504401330947922
2022-11-22,-0.08652802212471883
2022-11-23,-0.07354807692955073
2022-11-24,0.11414617490503784
2022-11-25,-0.03875823702772391
2022-11-28,-0.2500934522457255
2022-11-29,0.1242319788252759
2022-11-30,0.05120246058627895
2022-12-01,-0.06770869717080136
2022-12-02,0.08218623799161014
2022-12-05,-0.07151245117032709
2022-12-06,-0.19536036887139857
2022-12-07,0.10851918311543532
2022-12-08,-0.08194695599758939
2022-12-09,-0.03392770199745618
2022-12-12,0.3628605929664765
2022-12-13,0.2899592207085522
2022-12-14,-0.19513558152281021
2022-12-15,0.05509462204316991
2022-12-16,0.1355947689961309
2022-12-19,-0.34143113556369814
2022-12-20,-0.30435775292141853
2022-12-21,0.09083614822001947
2022-12-22,0.0772020783719639
2022-12-23,-0.2737238305043701
2022-12-26,0.15998430406812733
2022-12-27,0.3067483522265335
2022-12-28,-0.06682492630266931
2022-12-29,-0.15471625636528513
2022-12-30,0.14681097796675693
2023-01-03,-0.011784115517286402
2023-01-04,-0.40590130744829334
2023-01-05,0.16152797993583706
2023-01-06,0.19960190462921706
2023-01-09,0.06908274568291459
2023-01-10,-0.040959872905240696
2023-01-11,0.15652770145740577
2023-01-12,-0.20991836463795288
2023-01-13,-0.029859335716633698
2023-01-16,-0.12003444070067183
2023-01-17,-0.17800569297945548
2023-01-18,0.24178921151467825
2023-01-19,0.15863068145394266
2023-01-20,-0.20683746911590545
2023-01-30,0.03796016862745662
2023-01-31,0.28155588679281524
2023-02-01,-0.2533477011494246
2023-02-02,0.14679441976063196
2023-02-03,0.30462855820411305
2023-02-06,0.04785779631960299
2023-02-07,-0.10485756518774693
2023-02-08,0.011190758293838754
2023-02-09,-0.40364659022526916
2023-02-10,-0.15295363999571568
2023-02-13,-0.02285596967179769
2023-02-14,-0.05684286916086585
2023-02-15,0.12122590837282753
2023-02-16,0.27273560806147146
2023-02-17,-0.1706740837310289
2023-02-20,-0.13014897695112554
2023-02-21,0.1401446583450071
2023-02-22,-0.13902380952381205
2023-02-23,-0.05453115192422596
2023-02-24,0.10102732735296917
2023-02-27,0.17727469290915016
2023-02-28,-0.15781934913676798
2023-03-01,0.09965538847118006
2023-03-02,-0.11742114087416647
2023-03-03,0.1370522979397709
2023-03-06,0.154248366013078
2023-03-07,0.10992470526688972
2023-03-08,0.0021917257326680047
2023-03-09,0.11882593487554148
2023-03-10,0.2423593964334707
2023-03-13,-0.31941974576829824
2023-03-14,0.13859649122807377
2023-03-15,0.009791562457536616
2023-03-16,0.040181916490780165
2023-03-17,-0.39326179054028015
2023-03-20,0.14280294774415989
2023-03-21,-0.16868896656141474
2023-03-22,0.0037038889362831506
2023-03-23,0.04723684573192627
2023-03-24,0.0015284516364236223
2023-03-27,0.04117668258401887
2023-03-28,-0.027726804047905236
2023-03-29,-0.0332217543101865
2023-03-30,-0.23309859154929707
2023-03-31,0.05933378182781728
2023-04-03,-0.10133505439793264
2023-04-04,0.0017865895674574958
2023-04-06,0.054635463890705484
2023-04-07,0.14993348179425534
2023-04-10,-0.0039598393574300315
2023-04-11,0.0010141987829594239
2023-04-12,0.13821876778674658
2023-04-13,-0.10503244334030945
2023-04-14,-0.09215485591573559
2023-04-17,-0.05421257884783637
2023-04-18,0.03809603628196352
2023-04-19,-0.18896001319459144
2023-04-20,0.042336081800124964
2023-04-21,0.116157895658818
2023-04-24,0.14420775375736927
2023-04-25,-0.05913270206935549
2023-04-26,0.18193774005051283
2023-04-27,-0.021720012160169118
2023-04-28,-0.13273699622582297
2023-05-04,0.06772463185375545
2023-05-05,0.07051178846581847
2023-05-08,-0.10805400133463275
2023-05-09,0.03640298561411079
2023-05-10,0.10698793625622721
2023-05-11,-0.24311128749351474
2023-05-12,-0.06285615076533782
2023-05-15,0.06889294848373921
2023-05-16,0.004977284718431025
2023-05-17,0.013513513513516363
2023-05-18,-0.0011376197988706982
2023-05-19,0.17455749867514697
2023-05-22,0.10049406872936503
2023-05-23,-0.05199735060641819
2023-05-24,-0.08051761322789411
2023-05-25,0.15906568589495118
2023-05-26,-0.21102737869341098
2023-05-29,-0.43023793023793044
2023-05-30,0.059295478677977353
2023-05-31,0.25258239055582926
2023-06-01,0.0016640835304684368
2023-06-02,0.1402511060392348
2023-06-05,0.3248094477033995
2023-06-06,0.04719935192902791
2023-06-07,-0.33144423282389857
2023-06-08,-0.1395179379726289
2023-06-09,0.055696408647508036
2023-06-12,-0.04762992443012461
2023-06-13,-0.07369708482930415
2023-06-14,0.15614296595810354
2023-06-15,0.04056490612734579
2023-06-16,-0.10193557933881488
2023-06-19,-0.046541908914732026
2023-06-20,-0.0022605901164145853
2023-06-21,0.17599944087223854
2023-06-26,0.12384082124719611
2023-06-27,-0.15372441781637128
2023-06-28,0.14813610977135944
2023-06-29,-0.04165813580254885
2023-06-30,-0.3949154769203803
2023-07-03,0.28925433875749007
2023-07-04,0.1542773741012294
2023-07-05,-0.19517641167049682
2023-07-06,0.10273543424477763
2023-07-07,0.22928847140119132
2023-07-10,-0.6705833985594836
2023-07-11,0.05948410596459519
2023-07-12,0.14633600057530005
2023-07-13,-0.045454262271587824
2023-07-14,-0.12402885682575
2023-07-17,0.298266943955633
2023-07-18,-0.13444254318875018
2023-07-19,-0.10074606126680921
2023-07-20,-0.03789707377828733
2023-07-21,0.02390701060006608
2023-07-24,0.038464455094139885
2023-07-25,0.0820618787797823
2023-07-26,0.11675038136696483
2023-07-27,0.04004862295438304
2023-07-28,0.150754818046407
2023-07-31,0.1205587965467036
2023-08-01,-0.04376039430893254
2023-08-02,-0.12186622691826918
2023-08-03,-0.0003725406047677751
2023-08-04,-0.05715407954327775
2023-08-07,-0.32344275648587795
2023-08-08,0.006048611482595593
2023-08-09,0.1269220743105649
2023-08-10,0.05127204432685476
2023-08-11,-0.1796022151761169
2023-08-14,0.14340582062100785
2023-08-15,0.07444590739521724
2023-08-16,-0.18736487730464513
2023-08-17,-0.12443097096745866
2023-08-18,0.24284008953546304
2023-08-21,0.1095950765787814
2023-08-22,-0.014560251004999088
2023-08-23,0.11740412688878331
2023-08-24,0.1283391296999689
2023-08-25,-0.14571388924986864
2023-08-28,-0.13975707318091896
2023-08-29,-0.07340657171459775
2023-08-30,-0.012877164105168823
2023-08-31,-0.21981360087502702
2023-09-01,0.10897481187959086
2023-09-04,0.16441726921198654
2023-09-05,-0.07378995662135839
2023-09-06,0.04137069808406183
2023-09-07,0.26731060193233497
2023-09-08,-0.048455334671136135
2023-09-11,-0.24398080212482431
2023-09-12,0.1082988125765372
2023-09-13,0.11967921257291683
2023-09-14,-0.08558912098990834
2023-09-15,-0.04950079125305931
2023-09-18,0.11690184766507869
2023-09-19,0.1506926838102168
2023-09-20,-0.31010963663703467
2023-09-21,-0.04268624089923424
2023-09-22,0.049979296066251774
2023-09-25,-0.03905367627622017
2023-09-26,-0.27748918580768483
2023-09-27,0.2017384088569603
2023-09-28,-0.08265899105908489
2023-10-09,0.0289132842216815
2023-10-10,0.23111161347851605
2023-10-11,0.09914815661899691
2023-10-12,0.023027259684356614
2023-10-13,0.14091031203952517
2023-10-16,-0.10787308524159687
2023-10-17,-0.3467433385036385
2023-10-18,0.03789789974567194
2023-10-19,-0.20086567799616387
2023-10-20,0.05096844902670893
2023-10-23,-0.02366392337604143
2023-10-24,0.425858422149466
2023-10-25,-0.04236309061069275
2023-10-26,0.19023219383327394
2023-10-27,-0.1985828410381101
2023-10-30,0.14469125183237397
2023-10-31,-0.3426953305594072
2023-11-01,0.04240223403218901
2023-11-02,-0.0007044488337695567
2023-11-03,0.0976654824734553
2023-11-06,-0.05966587112171662
2023-11-07,0.07067510548523147
2023-11-08,-0.015970515970513487
2023-11-09,-0.11635985940701042
2023-11-10,-0.00931444762405113
2023-11-13,0.026415094339624967
2023-11-14,0.040844502357905016
2023-11-15,-0.022646007151372268
2023-11-16,0.04613394735345813
2023-11-17,0.1023854631694356
2023-11-20,-0.03777873070326475
2023-11-21,-0.020140297498308483
2023-11-22,0.07167679392445513
2023-11-23,0.014236479321314038
2023-11-24,-0.1912556625916946
2023-11-27,0.00166666666666887
2023-11-28,-0.1202879884238451
2023-11-29,-0.03468368884667616
2023-11-30,-0.03133855300110812
2023-12-01,0.31397028642843783
2023-12-04,0.07155401217677435
2023-12-05,0.0772693338167213
2023-12-06,0.004905450204960677
2023-12-07,0.0491887945470049
2023-12-08,-0.28396452153018553
2023-12-11,-0.1560855466022992
2023-12-12,0.05187774911708511
2023-12-13,-0.10237275273495
2023-12-14,-0.12013482101348624
2023-12-15,-0.012065544389684726
2023-12-18,0.10611305420738598
2023-12-19,-0.021938628568433108
2023-12-20,0.040961688583342
2023-12-21,0.17120680849391903
2023-12-22,0.1785472809813622
2023-12-25,0.07998291979463253
2023-12-26,-0.032207822263370725
2023-12-27,0.013505220891301007
2023-12-28,-0.14690997919042367
2023-12-29,-0.041210728361409925
2024-01-02,-0.17780945141681564
2024-01-03,0.1428662568573693
2024-01-04,0.01103224733558316
2024-01-05,0.03786052115187087
2024-01-08,-0.19264192835875985
2024-01-09,0.23491777297118094
2024-01-10,-0.1591094804643655
2024-01-11,0.014196390259108725
2024-01-12,0.09356739037484865
2024-01-15,0.23134554790523318
2024-01-16,-0.25809387813044915
2024-01-17,0.0769745358032553
2024-01-18,0.07719514933752476
2024-01-19,-0.04296057291257784
2024-01-22,-0.08479282985600023
2024-01-23,0.17818715576563207
2024-01-24,-0.05719779805445246
2024-01-25,-0.09557281738467636
2024-01-26,-0.007796921611107219
2024-01-29,-0.07391308216618665
2024-01-30,0.01201201201201095
2024-01-31,0.008707865168539289
2024-02-01,0.059509716229964094
2024-02-02,-0.026292373613457667
2024-02-05,0.06199895682207361
2024-02-06,-0.28167988347629314
2024-02-07,0.2253745318352115
2024-02-08,0.021574980646287774
2024-02-19,0.05127667226084527
2024-02-20,-0.06395506570580352
2024-02-21,0.24066043567718243
2024-02-22,-0.2892634207241013
2024-02-23,-0.15846936316477342
2024-02-26,0.006978302132571643
2024-02-27,0.20155279503105583
2024-02-28,-0.14021571648690317
2024-02-29,-0.0035768645357664025
2024-03-01,0.07088510507746623
2024-03-04,-0.10004205951421039
2024-03-05,-0.2612008281573531
2024-03-06,0.36507055098536745
2024-03-07,0.045295942103898396
2024-03-08,0.11147020362413196
2024-03-11,0.04568254024599663
2024-03-12,0.18083231352991472
2024-03-13,-0.39080299260313
2024-03-14,0.25203796547898316
2024-03-15,-0.1303063639697218
2024-03-18,0.2867714032855132
2024-03-19,-0.035809752289178896
2024-03-20,0.23028212921829627
2024-03-21,-0.2409378058995175
2024-03-22,0.060041272944493754
2024-03-25,-0.429553689991229
2024-03-26,0.11172503898512778
2024-03-27,-0.11248185776487236
2024-03-28,-0.027789043910881724
2024-03-29,-0.021611498665669852
2024-04-01,0.17387695722319677
2024-04-02,-0.2223665223665191
2024-04-03,-0.09613766520579385
2024-04-08,0.23512711212000312
2024-04-09,-0.011347992298418612
2024-04-10,-0.10022784315283784
2024-04-11,0.053294376583103986
2024-04-12,0.2943647636454847
2024-04-15,-0.1431619075920887
2024-04-16,0.06897712846699304
2024-04-17,0.21864553963028957
2024-04-18,0.026669915245589374
2024-04-19,-0.23699657873257005
2024-04-22,-0.1341867158615086
2024-04-23,0.36641922352132517
2024-04-24,-0.19440867816236929
2024-04-25,0.20661296533679968
2024-04-26,0.0028594000232901318
2024-04-29,0.13196707179880834
2024-04-30,-0.5714148531858224
2024-05-06,0.06134969325153396
2024-05-07,-0.28590609370363995
2024-05-08,0.01332148701309347
2024-05-09,-0.07651977620544273
2024-05-10,0.09340809968847844
2024-05-13,0.20341394025604448
2024-05-14,0.09627090156531448
2024-05-15,0.13244999455475961
2024-05-16,0.09896803491549792
2024-05-17,0.026806010928957666
2024-05-20,-0.3436902420626315
2024-05-21,0.07658376362844702
2024-05-22,-0.17533836631979782
2024-05-23,0.09310408243224116
2024-05-24,0.008686742694226392
2024-05-27,0.1670919442646852
2024-05-28,-0.12436799821378419
2024-05-29,0.17882637628554068
2024-05-30,-0.13005204239425872
2024-05-31,0.026150371590051916
2024-06-03,0.145315505082886
2024-06-04,0.0017634704794692105
2024-06-05,-0.22361178174794427
2024-06-06,-0.1893268097629472
2024-06-07,-0.02429291424277635
2024-06-11,-0.40329997870981593
2024-06-12,0.03875685125684641
2024-06-13,0.307445727771431
2024-06-14,0.18223764047120736
2024-06-17,0.16226367395583227
2024-06-18,0.1571412276556606
2024-06-19,-0.04304456895920171
2024-06-20,-0.35052567534679524
2024-06-21,0.08599161390783888
2024-06-24,-0.22132221825962428
2024-06-25,0.2310241905438884
2024-06-26,0.14588579514113995
2024-06-27,0.19107816711590295
2024-06-28,-0.18583934639707186
2024-07-01,0.06700886396525964
2024-07-02,0.012370128727746954
2024-07-03,-0.09817361776747605
2024-07-04,-0.032178040693651704
2024-07-05,0.19440905380925363
2024-07-08,0.011599123347311745
2024-07-09,-0.3457008224870012
2024-07-10,0.2657501685173981
2024-07-11,-0.011980483565107124
2024-07-12,-0.06941424197667395
2024-07-15,0.05197163314946925
2024-07-16,0.13742769242780342
2024-07-17,-0.4884488550559326
2024-07-18,0.2945655056577105
2024-07-19,-0.09021855427566966
2024-07-22,-0.13326344399145787
2024-07-23,0.06725692976465025
2024-07-24,0.24903341504746357
2024-07-25,-0.4442722633607953
2024-07-26,0.1854069117480342
2024-07-29,0.3504225784185888
2024-07-30,0.030473013947846583
2024-07-31,-0.07128933444723048
2024-08-01,0.21134683381549713
2024-08-02,-0.23226552501851222
2024-08-05,-0.4431883162926828
2024-08-06,0.06550802139037498
2024-08-07,0.0386720082976927
2024-08-08,-0.18305323061252599
2024-08-09,0.16439885938320323
2024-08-12,0.10431443259506443
2024-08-13,-0.20290647746845258
2024-08-14,0.09681892603967514
2024-08-15,0.14572600464017074
2024-08-16,-0.1261148930502943
2024-08-19,0.18430297530621004
2024-08-20,-0.11362937440895525
2024-08-21,-0.12169975459470218
2024-08-22,0.0436443542934348
2024-08-23,0.16263781663493115
2024-08-26,-0.06388266685705205
2024-08-27,0.28102951597498543
2024-08-28,-0.0492687625886674
2024-08-29,-0.09942528735631528
2024-08-30,-0.001422219154860807
2024-09-02,-0.011806731364852656
2024-09-03,0.5653803925769163
2024-09-04,0.16976339152966932
2024-09-05,0.06605136093663128
2024-09-06,-0.14798991885910462
2024-09-09,-0.023064838237252687
2024-09-10,-1.0303523964674572
2024-09-11,-0.09903325737074158
2024-09-12,-0.0014408090697110819
2024-09-13,0.2670980587356842
2024-09-18,-0.0543487812369992
2024-09-19,0.4488549027948292
2024-09-20,-0.032688566585770254
2024-09-23,0.04624802502382913
2024-09-24,-0.3434707741661532
2024-09-25,0.00194673753060777
2024-09-26,0.026244156277482833
2024-09-27,0.154219806200259
2024-09-30,-0.0017840510561523276
2024-10-08,0.33753113563307957
2024-10-09,0.0871395530707668
2024-10-10,-0.07895227008148487
2024-10-11,-0.15216849451645148
2024-10-14,-0.04258469382752486
2024-10-15,-0.374454492400332
2024-10-16,-0.05341916175389427
2024-10-17,-0.09933740191804968
2024-10-18,0.1520721925133688
2024-10-21,0.03418803418803386
2024-10-22,0.15402143851928568
2024-10-23,0.017696540293295815
2024-10-24,0.014084547105649214
2024-10-25,-0.22313779152784272
2024-10-28,-0.1690992767915834
2024-10-29,0.004261225196999542
2024-10-30,-0.033828272717163016
2024-10-31,0.0225276816022376
2024-11-01,0.3190433184496555
2024-11-04,0.04225413351357282
2024-11-05,0.10940799568996898
2024-11-06,-0.0204562970049671
2024-11-07,0.1663091072987291
2024-11-08,-0.12045035651934313
2024-11-11,0.11106137825566706
2024-11-12,0.024692031152164423
2024-11-13,0.09816798258467355
2024-11-14,-0.18074646852383056
2024-11-15,-0.275520745805884
2024-11-18,-0.06061690884668376
2024-11-19,-0.21630982557334494
2024-11-20,-0.14366066207914036
2024-11-21,0.09752127882988118
2024-11-22,0.39792999546611274
2024-11-25,0.08336201755959376
2024-11-26,0.08156114440772624
2024-11-27,0.09668627256892834
2024-11-28,-0.07761530663001162
2024-11-29,-0.3738048933976321
2024-12-02,-0.11885666982991487
2024-12-03,-0.09245797718148674
2024-12-04,0.29554680802989514
2024-12-05,0.0871747655009005
2024-12-06,0.24288402191422953
2024-12-09,0.03516057313341044
2024-12-10,0.05831527926062454
2024-12-11,-0.36599615947901754
2024-12-12,-0.04700558190628621
2024-12-13,-0.1862243283029598
2024-12-16,0.05907093534211813
2024-12-17,0.028070066848230147
2024-12-18,0.049513568122319135
2024-12-19,-0.02788547695096824
2024-12-20,0.34963358393504396
2024-12-23,-0.06401545430321996
2024-12-24,0.010463427515183032
2024-12-25,-0.1358647267947313
2024-12-26,0.017297416995255777
2024-12-27,-0.4648266866824964
2024-12-30,-0.07159301130524531
2024-12-31,0.153194032299164
