date,FCT_Cr_Atr_Dfive
2018-11-27,
2018-11-28,
2018-11-29,
2018-11-30,
2018-12-03,
2018-12-04,
2018-12-05,
2018-12-06,
2018-12-07,
2018-12-10,
2018-12-11,0.2421848739495798
2018-12-12,-0.057544202191127124
2018-12-13,-0.0953068186077893
2018-12-14,-0.15931802144271717
2018-12-17,0.13393967661691544
2018-12-18,-0.19893491124260348
2018-12-19,0.36147186147186144
2018-12-20,0.05972784631321214
2018-12-21,0.08603332046446721
2018-12-24,0.33657488344988334
2018-12-25,0.28215330204720135
2018-12-26,-0.2856674856674857
2018-12-27,0.1357654678241697
2018-12-28,0.2561886886000637
2019-01-02,-0.20789432789432777
2019-01-03,-0.11608182692794577
2019-01-04,0.20138277812696415
2019-01-07,-0.028384725342046033
2019-01-08,-0.33211480614973266
2019-01-09,0.16151469855505735
2019-01-10,0.15631171198541693
2019-01-11,-0.3109173126614987
2019-01-14,0.02516623872539329
2019-01-15,0.19505410992217898
2019-01-16,-0.34558606919577095
2019-01-17,-0.20079340860543188
2019-01-18,0.3537581699346407
2019-01-21,-0.049197055871528915
2019-01-22,-0.01330233146689453
2019-01-23,0.12885043541977842
2019-01-24,0.21475403962595413
2019-01-25,-0.3096760443307759
2019-01-28,0.024373651899784216
2019-01-29,-0.1753751727240592
2019-01-30,0.0418275418275419
2019-01-31,-0.0404858299595143
2019-02-01,0.17592254293021548
2019-02-11,-0.00877024518276676
2019-02-12,0.20747172921085982
2019-02-13,0.07923760058991358
2019-02-14,-0.12659195109526233
2019-02-15,-0.1578192252510759
2019-02-18,-0.11547047998310556
2019-02-19,-0.10189123748445802
2019-02-20,-0.1049055098785126
2019-02-21,0.09855776306107439
2019-02-22,0.14143979212189206
2019-02-25,0.10384995674205903
2019-02-26,-0.0070508474576270845
2019-02-27,-0.014909553420011254
2019-02-28,-0.1647687172150692
2019-03-01,-0.11880862267566239
2019-03-04,0.17943548387096786
2019-03-05,-0.0023157894736842155
2019-03-06,0.027063949195096717
2019-03-07,0.16175138795920774
2019-03-08,0.1381366036450349
2019-03-11,-0.3022540983606557
2019-03-12,-0.024610136452241714
2019-03-13,0.047286310700944856
2019-03-14,-0.13591895299795653
2019-03-15,-0.13267543859649109
2019-03-18,0.02030965391621123
2019-03-19,0.13681549647807312
2019-03-20,0.21366956042441776
2019-03-21,0.026411029728565433
2019-03-22,0.018810679611650352
2019-03-25,0.08936830231246481
2019-03-26,-0.1675222236133717
2019-03-27,-0.48738229755178913
2019-03-28,0.36510695187165765
2019-03-29,0.25272886841094844
2019-04-01,0.06582380568338149
2019-04-02,0.11687494381012326
2019-04-03,0.3635933806146573
2019-04-04,-0.44595728025050324
2019-04-08,-0.33792843691148766
2019-04-09,-0.08115582681670813
2019-04-10,0.0480910425844347
2019-04-11,-0.21049509001636674
2019-04-12,0.17623272376124097
2019-04-15,0.1750427350427349
2019-04-16,-0.009003601440576024
2019-04-17,-0.13888888888888903
2019-04-18,-0.020953311394487653
2019-04-19,0.05259131765155845
2019-04-22,-0.20170940170940166
2019-04-23,0.06888544891640866
2019-04-24,0.04922644163150491
2019-04-25,0.07408290473108749
2019-04-26,-0.09095986595388164
2019-04-29,0.1422222222222223
2019-04-30,-0.10028449502133724
2019-05-06,0.6825881067298061
2019-05-07,0.0689060339544961
2019-05-08,-0.10957890010384021
2019-05-09,0.09449419482993594
2019-05-10,0.022137212153897336
2019-05-13,-0.9463994872037643
2019-05-14,0.4818105265550595
2019-05-15,0.18644935054442827
2019-05-16,-0.11204889238463397
2019-05-17,0.19405208471269078
2019-05-20,0.16324394267387107
2019-05-21,-0.832963320463323
2019-05-22,0.060433884297520904
2019-05-23,0.0962146640538615
2019-05-24,-0.18839735398030608
2019-05-27,0.141042893187553
2019-05-28,0.4714067166897369
2019-05-29,-0.21264903129657114
2019-05-30,-0.04746949030868897
2019-05-31,-0.07224428997020785
2019-06-03,0.2501673840267833
2019-06-04,-0.2730808008065681
2019-06-05,0.08196721311475356
2019-06-06,0.06475155279503383
2019-06-10,0.10124709363771033
2019-06-11,-0.5302814674256832
2019-06-12,0.2665224313181199
2019-06-13,-0.004672897196261742
2019-06-14,-0.2516227801592173
2019-06-17,0.05486352188414302
2019-06-18,0.22983870967741996
2019-06-19,-0.19902983548113493
2019-06-20,-0.07047161147425682
2019-06-21,0.23151408450704297
2019-06-24,-0.027318045862410566
2019-06-25,0.044864664441973096
2019-06-26,0.0043654791342286475
2019-06-27,0.15161509690581076
2019-06-28,0.2762978142076512
2019-07-01,0.03769507803121104
2019-07-02,-0.013351016799292771
2019-07-03,0.10330963263924273
2019-07-04,0.09978840457046188
2019-07-05,-0.5192259487642276
2019-07-08,0.013402375875725625
2019-07-09,0.16517094017093906
2019-07-10,-0.01479500891265735
2019-07-11,-0.32923349705504557
2019-07-12,0.13026091047630894
2019-07-15,-0.2612465839815028
2019-07-16,-0.4359668109668096
2019-07-17,-0.19521203830369221
2019-07-18,0.24952622838722366
2019-07-19,0.13821753854567362
2019-07-22,0.2617642269803812
2019-07-23,0.3253037285295354
2019-07-24,0.26752950800514264
2019-07-25,-0.19609923545015046
2019-07-26,-0.16845232451565909
2019-07-29,-0.020499699927351137
2019-07-30,-0.1424313332219082
2019-07-31,-0.2390443839308302
2019-08-01,0.16365007541478324
2019-08-02,0.3394381546285662
2019-08-05,-0.13119983266661384
2019-08-06,0.06735751295336867
2019-08-07,0.12849162011173346
2019-08-08,-0.048477564102564846
2019-08-09,-0.4795489650911325
2019-08-12,0.20025446871896307
2019-08-13,-0.005538919174296836
2019-08-14,0.04184843709157037
2019-08-15,0.11819437052256541
2019-08-16,0.22734895103091857
2019-08-19,-0.16253439625183053
2019-08-20,0.1622354178397088
2019-08-21,-0.06816422656525237
2019-08-22,-0.2644500011531944
2019-08-23,0.06052138243526721
2019-08-26,0.22330097087378772
2019-08-27,-0.23348236462990643
2019-08-28,0.03078007518796583
2019-08-29,0.13063063063062882
2019-08-30,-0.06735751295336732
2019-09-02,-0.41557713052858836
2019-09-03,0.0472851321898986
2019-09-04,-0.05236847733104803
2019-09-05,0.0
2019-09-06,-0.0314465408805022
2019-09-09,0.27656565656565724
2019-09-10,0.05331562129752403
2019-09-11,0.029611508689933782
2019-09-12,-0.08695652173913043
2019-09-16,0.0314465408805054
2019-09-17,0.09740259740259709
2019-09-18,-0.09006211180123952
2019-09-19,0.12726704190119031
2019-09-20,0.20256345815531435
2019-09-23,-0.08290155440414851
2019-09-24,-0.24455205811137826
2019-09-25,0.027403414195863368
2019-09-26,-0.24713225371120173
2019-09-27,0.0828663460265626
2019-09-30,0.14022639516847735
2019-10-08,0.11976720441086064
2019-10-09,0.08544527557590517
2019-10-10,0.12679425837320468
2019-10-11,-0.45134684566113475
2019-10-14,0.004213620774126077
2019-10-15,-0.14850707176531874
2019-10-16,-0.03308678500986416
2019-10-17,0.07747933884297623
2019-10-18,0.22961774926489847
2019-10-21,-0.11709401709401346
2019-10-22,0.298502009499449
2019-10-23,-0.03711031175060186
2019-10-24,-0.14018977655341464
2019-10-25,0.039255813953490856
2019-10-28,0.0713035870516193
2019-10-29,-0.27659435867370064
2019-10-30,-0.0407882389740367
2019-10-31,0.1021114572516474
2019-11-01,0.10218181818181607
2019-11-04,-0.13769925100825936
2019-11-05,0.015934539190351385
2019-11-06,0.28385093167702374
2019-11-07,-0.03644074452211021
2019-11-08,-0.1775038520801221
2019-11-11,0.22105031861129226
2019-11-12,0.0925925925925942
2019-11-13,-0.3864168618267061
2019-11-14,-0.021299608952488825
2019-11-15,0.04911795226565111
2019-11-18,-0.20219188260424886
2019-11-19,0.08045977011494776
2019-11-20,0.21468433903035122
2019-11-21,0.03990705192967607
2019-11-22,0.020305091733664526
2019-11-25,0.07309278350515029
2019-11-26,-0.18355255362010414
2019-11-27,-0.13450721447787042
2019-11-28,0.1923275639369727
2019-11-29,0.05305688463582568
2019-12-02,0.26762376237624186
2019-12-03,0.10309278350515637
2019-12-04,0.13195402298850528
2019-12-05,-0.2871470301850085
2019-12-06,-0.2228217602830544
2019-12-09,-0.36762376237623984
2019-12-10,0.0
2019-12-11,-0.03999999999999905
2019-12-12,-0.007338638373119946
2019-12-13,0.1933137931897287
2019-12-16,0.038805638698462847
2019-12-17,-0.03155378486055852
2019-12-18,0.04724553416342824
2019-12-19,0.0881130396967837
2019-12-20,-0.07261096660454533
2019-12-23,0.38849165859883183
2019-12-24,0.03155378486055852
2019-12-25,-0.14099553416343236
2019-12-26,0.049817994785981944
2019-12-27,0.1158841158841078
2019-12-30,-0.5319911748483135
2019-12-31,0.0400000000000017
2020-01-02,0.08092948717949275
2020-01-03,-0.05896402448127646
2020-01-06,0.01518218623482366
2020-01-07,0.1985492992377639
2020-01-08,0.38499999999999185
2020-01-09,0.1356275303643703
2020-01-10,0.09111201298701661
2020-01-13,-0.08485888634630688
2020-01-14,0.08650429054347203
2020-01-15,-0.6852739726027322
2020-01-16,-0.15984405458089662
2020-01-17,-0.1646634615384604
2020-01-20,0.1190694126621009
2020-01-21,0.28608888590062176
2020-01-22,0.36516907749784205
2020-01-23,0.15096108766994867
2020-02-03,0.5013111888111897
2020-02-04,-0.04599450433312964
2020-02-05,-0.4479727616996129
2020-02-06,-0.14255200866079362
2020-02-07,-0.2226197028068227
2020-02-10,-0.7562361419068746
2020-02-11,-0.39143239625167364
2020-02-12,0.13302953991286237
2020-02-13,0.0271305879762178
2020-02-14,0.06614246068454971
2020-02-17,0.3081300813008113
2020-02-18,0.38007662835249495
2020-02-19,-0.12903225806452204
2020-02-20,0.2273937856689898
2020-02-21,0.14156309247945964
2020-02-24,0.31261261261261436
2020-02-25,-0.040796503156875226
2020-02-26,0.1349241419944062
2020-02-27,-0.3102008032128533
2020-02-28,-0.06224519510774503
2020-03-02,-0.3785700594211231
2020-03-03,-0.08328712432072952
2020-03-04,-0.0773972602739717
2020-03-05,0.031929824561408277
2020-03-06,0.20622594832325558
2020-03-09,0.40756145683357575
2020-03-10,0.17006063897185547
2020-03-11,0.08608247422680136
2020-03-12,0.1111547525530216
2020-03-13,-0.3567347300349911
2020-03-16,-0.4580032970125866
2020-03-17,-0.2092821513771443
2020-03-18,-0.02913802978235556
2020-03-19,0.12266254932235487
2020-03-20,0.17844995818232529
2020-03-23,0.03371052087333795
2020-03-24,0.1255896226415106
2020-03-25,-0.025126262626266084
2020-03-26,-0.32056194125159554
2020-03-27,0.029497016197778808
2020-03-30,0.241849914017052
2020-03-31,0.01580882352941295
2020-04-01,0.07997957099080642
2020-04-02,0.1375661375661374
2020-04-03,-0.2492831124544658
2020-04-07,-0.1877528787420123
2020-04-08,-0.08561724983592987
2020-04-09,-0.12182212167668938
2020-04-10,-0.007965084875919388
2020-04-13,0.1285759206517992
2020-04-14,0.0008563618824044619
2020-04-15,-0.1077830371081149
2020-04-16,0.06954817839151087
2020-04-17,-0.04749064039113236
2020-04-20,0.0568073235549736
2020-04-21,0.28655889836850423
2020-04-22,0.41834146341463085
2020-04-23,-0.04097035040431004
2020-04-24,0.06603773584906114
2020-04-27,0.021645021645023552
2020-04-28,-0.42302106027596226
2020-04-29,-0.4950769230769224
2020-04-30,0.03144654088049632
2020-05-06,0.19801980198020108
2020-05-07,-0.17591499409680858
2020-05-08,0.23526671325412715
2020-05-11,0.2139860139860153
2020-05-12,0.07339449541285346
2020-05-13,-0.18092578488618496
2020-05-14,0.1995971942495925
2020-05-15,-0.05336084905659591
2020-05-18,-0.03059163059162885
2020-05-19,-0.15603912351202515
2020-05-20,-0.2693462693462672
2020-05-21,-0.14791940872733744
2020-05-22,0.24939123376623717
2020-05-25,0.039682539682537384
2020-05-26,0.11422357546760062
2020-05-27,0.26245633388490336
2020-05-28,0.062188146525492365
2020-05-29,-0.46846011131725696
2020-06-01,0.3199999999999966
2020-06-02,-0.14269005847953245
2020-06-03,0.10343228200370878
2020-06-04,0.05091733663161881
2020-06-05,0.283713485394153
2020-06-08,-0.5442990654205613
2020-06-09,0.219544846050867
2020-06-10,-0.1788537549407051
2020-06-11,0.02895111532985703
2020-06-12,-0.10336743393008704
2020-06-15,0.44268987001827065
2020-06-16,-0.061263923619011874
2020-06-17,0.065217391304344
2020-06-18,-0.19589356798659113
2020-06-19,0.08527566113849752
2020-06-22,-0.30839080459771245
2020-06-23,-0.20101596516689726
2020-06-24,0.05194805194804888
2020-06-29,0.16316316316316262
2020-06-30,-0.10235640648011758
2020-07-01,-0.1023076923076812
2020-07-02,0.12210012210012076
2020-07-03,-0.1667021503086973
2020-07-06,-0.18518518518519334
2020-07-07,0.1801242236024898
2020-07-08,0.21191553544494124
2020-07-09,0.127899877899879
2020-07-10,0.37791199309748125
2020-07-13,0.21759259259260233
2020-07-14,-0.19960474308300816
2020-07-15,0.12324929971988734
2020-07-16,-0.04615384615385218
2020-07-17,-0.4298245614034928
2020-07-20,-0.012301587301593524
2020-07-21,0.13144963144962946
2020-07-22,-0.05194805194804278
2020-07-23,0.16428571428572053
2020-07-24,0.2745098039215569
2020-07-27,0.1463969658660002
2020-07-28,0.4374006359300499
2020-07-29,-0.11578471279964857
2020-07-30,-0.2959183673469442
2020-07-31,-0.15784313725489907
2020-08-03,-0.3731304662837086
2020-08-04,-0.8793496271748138
2020-08-05,0.04840503365526076
2020-08-06,-0.02181562280084154
2020-08-07,0.30641025641026126
2020-08-10,0.32713772007658914
2020-08-11,0.4325812639228583
2020-08-12,0.24111087897618558
2020-08-13,0.22146800024323132
2020-08-14,-0.28398357104981864
2020-08-17,-0.2368153694846611
2020-08-18,-0.05104036288750672
2020-08-19,-0.5484240745246838
2020-08-20,-0.231227271550972
2020-08-21,0.25097756995870696
2020-08-24,0.2357900318133604
2020-08-25,-0.025245232286009982
2020-08-26,0.5200042562247369
2020-08-27,0.3679846172335056
2020-08-28,-0.2944702451668624
2020-08-31,0.22599192207175298
2020-09-01,0.19926297958334058
2020-09-02,-0.17800129435875756
2020-09-03,-0.22888710242615856
2020-09-04,0.15939406555749336
2020-09-07,-0.5448325017818982
2020-09-08,-0.23373497271495983
2020-09-09,0.02824698733134258
2020-09-10,-0.10547474272404343
2020-09-11,-0.17855363961955245
2020-09-14,0.18711222900946628
2020-09-15,0.2166815492800491
2020-09-16,-0.24604063349864108
2020-09-17,0.045829500824902794
2020-09-18,0.055291066093180935
2020-09-21,-0.12886578661980203
2020-09-22,-0.24820788530465515
2020-09-23,0.18798355899419952
2020-09-24,-0.01596848264447564
2020-09-25,0.0523763582817095
2020-09-28,0.13835811247576518
2020-09-29,0.07243707796193896
2020-09-30,-0.1376044932079432
2020-10-09,0.1142398859383359
2020-10-12,0.1098308668076093
2020-10-13,-0.06654377880184978
2020-10-14,-0.022437077961942227
2020-10-15,0.10919540229885083
2020-10-16,0.018324107654135308
2020-10-19,-0.2638847491306505
2020-10-20,-0.050020416496526506
2020-10-21,0.10938697318008164
2020-10-22,0.24342105263157832
2020-10-23,-0.2468614007075588
2020-10-26,0.0733208826174216
2020-10-27,0.06200821074239138
2020-10-28,-7.153999614928352e-15
2020-10-29,-0.552631578947367
2020-10-30,0.24021164021164465
2020-11-02,0.28453007729359503
2020-11-03,0.18693693693693425
2020-11-04,-0.21597772542299834
2020-11-05,0.3763747054202673
2020-11-06,0.26646686646686407
2020-11-09,-0.2611371528428154
2020-11-10,-0.2714828169617931
2020-11-11,0.23795832097541836
2020-11-12,-0.09153875360418616
2020-11-13,-0.5838487291355677
2020-11-16,0.002304229827315013
2020-11-17,0.2766911502951243
2020-11-18,0.3830768757119537
2020-11-19,0.061071822206129125
2020-11-20,0.2500409440003478
2020-11-23,0.055137844611532205
2020-11-24,-0.23653017241378949
2020-11-25,-0.7943471582181284
2020-11-26,0.019246808237636935
2020-11-27,-0.035339623747289856
2020-11-30,0.14572144647332252
2020-12-01,0.11143879814478456
2020-12-02,0.41922611538758603
2020-12-03,-0.10961653199995461
2020-12-04,0.0023792080432043644
2020-12-07,0.13549834606802508
2020-12-08,-0.027702893918952164
2020-12-09,0.03667708479907414
2020-12-10,0.16977734496975386
2020-12-11,0.06773501925578831
2020-12-14,-0.4884742631229463
2020-12-15,-0.05876327149458042
2020-12-16,-0.17274061497128992
2020-12-17,-0.2564557461068411
2020-12-18,0.04311053280372303
2020-12-21,0.14745708980571587
2020-12-22,0.22595704948646206
2020-12-23,0.22314049586777274
2020-12-24,0.1829040686823447
2020-12-25,0.13435374149660267
2020-12-28,0.042253521126759216
2020-12-29,-0.03585668250587301
2020-12-30,-0.19192363876493612
2020-12-31,0.07187466920715604
2021-01-04,-0.37957057823129564
2021-01-05,0.17241379310344715
2021-01-06,-0.3246259720944299
2021-01-07,0.05951109489535307
2021-01-08,0.14021404911780663
2021-01-11,0.4037252718212032
2021-01-12,-0.08073297816286998
2021-01-13,0.24263738274350316
2021-01-14,-0.019776275647543768
2021-01-15,-0.3753315649867381
2021-01-18,-0.36452417471569254
2021-01-19,-0.18444519341924148
2021-01-20,-0.16045377782442424
2021-01-21,-0.0649022384830249
2021-01-22,0.011425997215169223
2021-01-25,0.11661437908496722
2021-01-26,0.017898068318237273
2021-01-27,0.1353771410333709
2021-01-28,0.0490317186993081
2021-01-29,0.28704143573502366
2021-02-01,-0.032710691823901454
2021-02-02,-0.02048821306695646
2021-02-03,0.2863771285736596
2021-02-04,0.03176922810327794
2021-02-05,-0.2642765756715124
2021-02-08,0.05759213542110829
2021-02-09,0.19753970202610716
2021-02-10,-0.5288698639643288
2021-02-18,-0.009768375770014211
2021-02-19,0.16432898657297929
2021-02-22,-0.035343879775180456
2021-02-23,0.19049774803054492
2021-02-24,0.1665500827766235
2021-02-25,0.0942444080741944
2021-02-26,-0.08738432880663481
2021-03-01,0.08708408676746901
2021-03-02,-0.32711406455381936
2021-03-03,0.19383036153549535
2021-03-04,-0.24164607183099923
2021-03-05,0.04783897933106495
2021-03-08,-0.03265704881958395
2021-03-09,-0.05338755915930256
2021-03-10,-0.238880061630314
2021-03-11,0.18877695513209483
2021-03-12,-0.1081261090449463
2021-03-15,-0.11297029005205174
2021-03-16,0.05840693217797175
2021-03-17,-0.0170572181441756
2021-03-18,-0.13173576771903003
2021-03-19,0.23425568425568538
2021-03-22,0.08327777080954211
2021-03-23,-0.11590372286582123
2021-03-24,0.15286251779540402
2021-03-25,0.11129884030535914
2021-03-26,-0.20099978026807364
2021-03-29,-0.1487362175484994
2021-03-30,0.3702543628773285
2021-03-31,0.023670779246875523
2021-04-01,0.155402822527168
2021-04-02,0.11760636251942483
2021-04-06,0.2609265551374291
2021-04-07,-0.3197415832338411
2021-04-08,-0.2085237564873188
2021-04-09,-0.3403581902809421
2021-04-12,-0.23810911927113107
2021-04-13,0.046658792004881045
2021-04-14,0.05790950404472058
2021-04-15,0.2194293646258812
2021-04-16,0.1466312530115706
2021-04-19,0.16629622573612102
2021-04-20,-0.4751990710019909
2021-04-21,0.14975409627194394
2021-04-22,-0.12104382227632499
2021-04-23,-0.12563142621717668
2021-04-26,-0.08677043000056213
2021-04-27,0.2897295105324292
2021-04-28,-0.26225113629088787
2021-04-29,0.03905457496449831
2021-04-30,0.13087860634855344
2021-05-06,0.33108345363036773
2021-05-07,0.22568917231838515
2021-05-10,0.2746802671042946
2021-05-11,-0.027247533532870113
2021-05-12,-0.011285070698962618
2021-05-13,-0.35438824156374393
2021-05-14,-0.15208338123382353
2021-05-17,-0.1476465432675807
2021-05-18,0.01511947360036067
2021-05-19,-0.01432440625333164
2021-05-20,0.14096145442582403
2021-05-21,-0.21505336110356002
2021-05-24,0.1271952297431422
2021-05-25,0.0889666126363778
2021-05-26,0.19748819559668213
2021-05-27,0.06806505316673125
2021-05-28,0.3619420370888077
2021-05-31,-0.19290689149559873
2021-06-01,-0.149896536826069
2021-06-02,-0.2005656016113323
2021-06-03,-0.2541695795465885
2021-06-04,-0.31879953157765695
2021-06-07,0.0701309620872394
2021-06-08,0.11025050142960705
2021-06-09,0.028130632097800576
2021-06-10,0.045023824055997974
2021-06-11,-0.07810378932991051
2021-06-15,0.3590921525140707
2021-06-16,-0.10005236530720654
2021-06-17,-0.13184030745161876
2021-06-18,0.22260798432283868
2021-06-21,0.1793756760816899
2021-06-22,-0.4996915181489814
2021-06-23,0.1303680293929717
2021-06-24,0.18982048877145807
2021-06-25,-0.19485394485394453
2021-06-28,0.11559042710350806
2021-06-29,0.06224028906955642
2021-06-30,-0.11924447612259259
2021-07-01,-0.15853322304935202
2021-07-02,0.07952163140842484
2021-07-05,-0.14104223433242494
2021-07-06,0.021620971620972457
2021-07-07,0.05852746620649772
2021-07-08,0.1560860595343358
2021-07-09,0.16903536714857226
2021-07-12,-0.003936464088397519
2021-07-13,0.1524851229462152
2021-07-14,-0.09508396660099387
2021-07-15,-0.11134432783608185
2021-07-16,-0.330812480202722
2021-07-19,0.3085844785288333
2021-07-20,0.28971156925047786
2021-07-21,0.12337344028520573
2021-07-22,0.037323171083780846
2021-07-23,0.2764555468135318
2021-07-26,-0.36606887774978814
2021-07-27,-0.6589385331900326
2021-07-28,-0.034565727699530625
2021-07-29,0.07044801296207888
2021-07-30,-0.3235993208828516
2021-08-02,0.1583268039034124
2021-08-03,0.3692987856063596
2021-08-04,0.18237401286330626
2021-08-05,-0.08270889678755185
2021-08-06,0.20759435810369514
2021-08-09,-0.14088742207554136
2021-08-10,-0.05637624359360976
2021-08-11,-0.4489047763918449
2021-08-12,-0.0005219072716228824
2021-08-13,0.04938504693062966
2021-08-16,0.0917907598319969
2021-08-17,0.07902916882380653
2021-08-18,0.3165407660672764
2021-08-19,0.05011929954491372
2021-08-20,0.03141992986208239
2021-08-23,-0.015885669253305184
2021-08-24,-0.3032012118345592
2021-08-25,-0.12147827706886175
2021-08-26,-0.011149441767917325
2021-08-27,-0.2155923173525472
2021-08-30,-0.022649415548822008
2021-08-31,0.3146998616874127
2021-09-01,0.0975141017321412
2021-09-02,0.19439821808033775
2021-09-03,0.1536340852130309
2021-09-06,0.01950487621905405
2021-09-07,-0.19707718329054175
2021-09-08,-0.08218522770761395
2021-09-09,-0.4401767176862508
2021-09-10,0.11470424972907681
2021-09-13,0.2959117402490883
2021-09-14,0.1282521948859437
2021-09-15,0.06888437157639293
2021-09-16,0.46846987499709514
2021-09-17,-0.07339749446883181
2021-09-22,-0.44876286241827634
2021-09-23,-0.014562373282815233
2021-09-24,0.24687349924476826
2021-09-27,-0.33254378071650126
2021-09-28,-0.15101936277020872
2021-09-29,0.1181985584258419
2021-09-30,0.0519587006717043
2021-10-08,-0.47368327874657096
2021-10-11,-0.0008736981896973056
2021-10-12,0.16680923256775515
2021-10-13,0.18708606882620413
2021-10-14,0.04243211520962127
2021-10-15,0.3006993006993013
2021-10-18,0.11347636607442141
2021-10-19,-0.05167859145604063
2021-10-20,-0.09274582650513881
2021-10-21,-0.2967965089472512
2021-10-22,-0.23817463697437205
2021-10-25,0.34649678787024657
2021-10-26,-0.14449438632171738
2021-10-27,-0.12223111616125351
2021-10-28,0.28762124587120663
2021-10-29,0.23360587240560768
2021-11-01,-0.5748640396956296
2021-11-02,0.19516373612693771
2021-11-03,0.05933119359174876
2021-11-04,-0.23704979193571593
2021-11-05,-0.11537190082644705
2021-11-08,0.137140692136667
2021-11-09,-0.24185982177294
2021-11-10,0.11128254186817751
2021-11-11,0.053365291021201675
2021-11-12,-0.12799479443615774
2021-11-15,0.06594266649774885
2021-11-16,0.19543571790372893
2021-11-17,-0.2815356024616467
2021-11-18,0.2876448969541146
2021-11-19,0.16222848388048985
2021-11-22,0.11271642586945158
2021-11-23,-0.07347280334728418
2021-11-24,0.1708225984541775
2021-11-25,-0.3059443875421981
2021-11-26,0.12225865956138748
2021-11-29,0.036323070058008805
2021-11-30,0.17636363636363667
2021-12-01,0.44279220779220746
2021-12-02,0.14800284488494142
2021-12-03,-0.0949057589137361
2021-12-06,-0.18240740740740607
2021-12-07,-0.11935040384945755
2021-12-08,-0.5615400955921416
2021-12-09,-0.055606735247453985
2021-12-10,0.147686019954322
2021-12-13,0.016577060931900534
2021-12-14,-0.04299586722575878
2021-12-15,0.0070630422084451555
2021-12-16,-0.017475566009763188
2021-12-17,-0.2793049573465132
2021-12-20,0.003179150564063503
2021-12-21,-0.04615666877100474
2021-12-22,0.24905384388541885
2021-12-23,0.1870115855457823
2021-12-24,-0.07831448074420393
2021-12-27,0.021910455170702857
2021-12-28,0.2212835577613131
2021-12-29,-0.2047287661856128
2021-12-30,-0.31468712196194787
2021-12-31,0.15425636327945993
2022-01-04,-0.010928961748632787
2022-01-05,-0.3010779559361849
2022-01-06,0.02334881142144153
2022-01-07,0.24777414987656154
2022-01-10,0.056627474625667085
2022-01-11,0.11272536893426235
2022-01-12,0.3068250060052819
2022-01-13,0.09066871048093544
2022-01-14,-0.21598746081504566
2022-01-17,0.07684849640790878
2022-01-18,-0.1406091925737589
2022-01-19,-0.13113833522668317
2022-01-20,-0.10025931486283604
2022-01-21,0.3373787502819762
2022-01-24,-0.006235827664399049
2022-01-25,0.024267330842675336
2022-01-26,-0.13076403923184265
2022-01-27,0.13314701539759627
2022-01-28,-0.15478687407307823
2022-02-07,-0.2480480480480478
2022-02-08,-0.03764661226039108
2022-02-09,0.12242957231334516
2022-02-10,-0.09204298954841386
2022-02-11,-0.2912787448957674
2022-02-14,0.06591420966420858
2022-02-15,0.14087708209636463
2022-02-16,-0.057553333663317725
2022-02-17,-0.014261995788830424
2022-02-18,0.260460704607048
2022-02-21,0.056402844231792204
2022-02-22,-0.16880370965253746
2022-02-23,0.10665096049293296
2022-02-24,0.17751710654936453
2022-02-25,-0.13044888427607912
2022-02-28,0.014619883040935668
2022-03-01,0.16758225121333048
2022-03-02,-0.06719709417971295
2022-03-03,-0.13401759530791815
2022-03-04,0.050332802366595465
2022-03-07,0.2333333333333332
2022-03-08,0.07695085756310095
2022-03-09,0.17289373110490092
2022-03-10,0.0326401848395996
2022-03-11,0.13775162641779307
2022-03-14,-0.20583695127834037
2022-03-15,-0.19962568202004788
2022-03-16,-0.1687529119428484
2022-03-17,-0.09632556682649561
2022-03-18,-0.2071296168484145
2022-03-21,-0.13841492624909962
2022-03-22,0.12487988359003988
2022-03-23,-0.12131674131334598
2022-03-24,0.06237407855128112
2022-03-25,0.3335317932841145
2022-03-28,0.24953240558024536
2022-03-29,-0.2201033985931009
2022-03-30,0.1298568872987472
2022-03-31,0.05699106496015492
2022-04-01,-0.3573582838541498
2022-04-06,-0.23163711720009272
2022-04-07,0.22905411199725587
2022-04-08,-0.04317310476631731
2022-04-11,0.0998500773751467
2022-04-12,0.16633349375150702
2022-04-13,0.01656925475776723
2022-04-14,-0.22633812793853428
2022-04-15,0.0865064380996517
2022-04-18,-0.4448121504359782
2022-04-19,-0.050847372822150946
2022-04-20,0.037992462594649466
2022-04-21,0.159718798549973
2022-04-22,-0.20320413436692714
2022-04-25,0.852295025201028
2022-04-26,-0.00035236081747781235
2022-04-27,0.2353119321623242
2022-04-28,-0.01390789473684119
2022-04-29,0.1514863099188922
2022-05-05,-0.74903421904108
2022-05-06,-0.05339376182628301
2022-05-09,-0.2264487023688628
2022-05-10,0.055981968810916674
2022-05-11,0.040980839999081115
2022-05-12,0.061968118488765794
2022-05-13,0.07772765987033078
2022-05-16,-0.13013910927503183
2022-05-17,-0.2485532407407428
2022-05-18,-0.03944177475188634
2022-05-19,0.1627022000342626
2022-05-20,-0.05702279315939343
2022-05-23,0.26733235465196825
2022-05-24,0.29162202380952623
2022-05-25,0.05055386576520425
2022-05-26,-0.09256884655309502
2022-05-27,0.20380501598229778
2022-05-30,-0.19589515745941158
2022-05-31,-0.0033414043583552128
2022-06-01,-0.16675191815856766
2022-06-02,0.17109270892823258
2022-06-06,-0.2756995811425017
2022-06-07,-0.005992583219672054
2022-06-08,-0.3192809048392966
2022-06-09,0.3337331334332818
2022-06-10,-0.17904619474908595
2022-06-13,0.2338597913343634
2022-06-14,0.1776261373035564
2022-06-15,0.19555389374213855
2022-06-16,-0.29086509376890235
2022-06-17,-0.032451611920752466
2022-06-20,-0.17294405272295837
2022-06-21,0.12421383647798716
2022-06-22,0.23388389164598905
2022-06-23,0.4701754385964903
2022-06-24,0.20900957733555048
2022-06-27,0.25320144837940606
2022-06-28,-0.25072898799313825
2022-06-29,-0.31897020981789487
2022-06-30,-0.6585301837270349
2022-07-01,-0.2262554805390425
2022-07-04,-0.47323777153834845
2022-07-05,0.059665334665334205
2022-07-06,0.21663349810618365
2022-07-07,0.40069885842582953
2022-07-08,0.07665882528658399
2022-07-11,0.40746879035729655
2022-07-12,-0.047312032861165296
2022-07-13,-0.10174090591585738
2022-07-14,-0.2610770567650712
2022-07-15,0.03617303312049565
2022-07-18,-0.1634257047300528
2022-07-19,0.04221803801774051
2022-07-20,-0.06492576075080991
2022-07-21,0.3075876273492948
2022-07-22,0.0548707683663435
2022-07-25,-0.09380712745198651
2022-07-26,-0.06503759030962032
2022-07-27,-0.07740393454679259
2022-07-28,-0.17834332797035693
2022-07-29,-0.1305616449478336
2022-08-01,0.29655438019924035
2022-08-02,0.07247159808129373
2022-08-03,0.1293773860583499
2022-08-04,-0.11813408245027679
2022-08-05,0.02792260304144032
2022-08-08,-0.15953952214005787
2022-08-09,-0.07201501877346662
2022-08-10,0.04644238005034052
2022-08-11,0.00646483180428202
2022-08-12,0.18599258408782957
2022-08-15,-0.037768722921880986
2022-08-16,0.11984644402179738
2022-08-17,0.03633158436324875
2022-08-18,0.07181954748841159
2022-08-19,-0.20323711320713828
2022-08-22,0.16180129917763308
2022-08-23,-0.13570257370771543
2022-08-24,-0.2329248772739625
2022-08-25,0.05936453211357812
2022-08-26,-0.005392481424264121
2022-08-29,-0.3054500847012066
2022-08-30,0.08028357410380073
2022-08-31,0.24322250639385812
2022-09-01,-0.06015377657168848
2022-09-02,0.11585144927536274
2022-09-05,0.12056933247504094
2022-09-06,0.08980934111106639
2022-09-07,-0.20126582278480737
2022-09-08,0.09720443875373631
2022-09-09,-0.10488861386138608
2022-09-13,0.26186451397753074
2022-09-14,-0.2105553826225778
2022-09-15,0.16275449592396984
2022-09-16,0.05809859154929524
2022-09-19,0.05280528052805447
2022-09-20,-0.38792102206736384
2022-09-21,0.23822295774245858
2022-09-22,-0.011781070799980316
2022-09-23,-0.041434540389971034
2022-09-26,0.020565552699227146
2022-09-27,0.2166451639327464
2022-09-28,-0.1457031625492642
2022-09-29,-0.12871994801819286
2022-09-30,-0.22565661242504093
2022-10-10,-0.07369055269922832
2022-10-11,0.05792619564223702
2022-10-12,-0.004094046087262885
2022-10-13,0.202089268755938
2022-10-14,0.0845569062396697
2022-10-17,0.08510174418604564
2022-10-18,-0.2478222470134345
2022-10-19,0.050984669575312946
2022-10-20,-0.18114143920595632
2022-10-21,0.04726027397260325
2022-10-24,-0.03197674418604424
2022-10-25,0.11059018470685512
2022-10-26,0.009810859109826639
2022-10-27,-0.02526881720430301
2022-10-28,0.025425487754253386
2022-10-31,0.01865671641790886
2022-11-01,0.2649657147927064
2022-11-02,-0.12354352666508212
2022-11-03,0.16503267973856392
2022-11-04,-0.042341847477796846
2022-11-07,0.16146750718457212
2022-11-08,-0.3892326971274344
2022-11-09,0.10275978012429365
2022-11-10,-0.13742690058479662
2022-11-11,0.1911247585557884
2022-11-14,-0.4054763362785389
2022-11-15,0.12578947368420954
2022-11-16,0.007587706720199646
2022-11-17,0.026207258976614
2022-11-18,-0.41108271520288886
2022-11-21,0.29100867833262145
2022-11-22,0.15374407582938712
2022-11-23,-0.047791747259830715
2022-11-24,0.11212899085512908
2022-11-25,0.2873089315436623
2022-11-28,0.04631254631254686
2022-11-29,-0.17624407582938714
2022-11-30,-0.09724192277383915
2022-12-01,-0.11202046035806024
2022-12-02,0.2022635998539653
2022-12-05,-0.1502966381015153
2022-12-06,0.06612318840579717
2022-12-07,0.13656906003476196
2022-12-08,-0.02023362536503793
2022-12-09,-0.46257349615558885
2022-12-12,0.23449977493623583
2022-12-13,0.040376811594202665
2022-12-14,0.2616429450737972
2022-12-15,0.05261986236631976
2022-12-16,0.5551403054172686
2022-12-19,-0.31680259354724627
2022-12-20,-0.03687168505067813
2022-12-21,-0.38923706562129523
2022-12-22,0.06931468433110902
2022-12-23,-0.6383618382027771
2022-12-26,0.535952925388575
2022-12-27,-0.029920337741342513
2022-12-28,0.1940916839875217
2022-12-29,-0.12336442544371107
2022-12-30,0.4251838176783235
2023-01-03,-0.6122922776148588
2023-01-04,0.10769768316938025
2023-01-05,-0.25556259770989137
2023-01-06,0.16296338070531705
2023-01-09,0.07944483047375075
2023-01-10,0.17864508963985426
2023-01-11,-0.16223899371069278
2023-01-12,0.22303761414090725
2023-01-13,-0.08166833166833168
2023-01-16,-0.48392452830188704
2023-01-17,-0.015132641740787024
2023-01-18,0.41194871794871923
2023-01-19,-0.08084156519131952
2023-01-20,0.014290605536895127
2023-01-30,0.29687121212121037
2023-01-31,0.019451646829732896
2023-02-01,-0.5789335664335682
2023-02-02,0.2957357370371214
2023-02-03,-0.1572700296735895
2023-02-06,0.045996123441778135
2023-02-07,0.042396769433326646
2023-02-08,0.33327523703290657
2023-02-09,-0.4443820819654791
2023-02-10,0.2394719726840375
2023-02-13,-0.1270699698081778
2023-02-14,-0.0674791150751635
2023-02-15,-0.014380784028283106
2023-02-16,0.18377393699737724
2023-02-17,-0.26464336324988247
2023-02-20,0.06323293727549283
2023-02-21,0.08288356832069013
2023-02-22,-0.23891193552210405
2023-02-23,0.16942306930823708
2023-02-24,0.14504847220517772
2023-02-27,-0.052900738837138105
2023-02-28,-0.13368326088739324
2023-03-01,0.13552907997352276
2023-03-02,-0.27742713282745723
2023-03-03,-0.04485328677902267
2023-03-06,0.2183018083558566
2023-03-07,0.07722941260133517
2023-03-08,0.06299461855017471
2023-03-09,0.16367838632861587
2023-03-10,0.0999926583951243
2023-03-13,-0.02623357035121962
2023-03-14,0.05781951817068192
2023-03-15,0.005935422602090942
2023-03-16,0.10715599480099167
2023-03-17,-0.05210452507456055
2023-03-20,-0.18075726618440274
2023-03-21,0.0522071307300524
2023-03-22,0.0054400923705459625
2023-03-23,-0.3939101080772059
2023-03-24,0.06972937254077358
2023-03-27,-0.009568389894679633
2023-03-28,-0.13794813119755966
2023-03-29,0.08434581639824276
2023-03-30,0.26755139086493734
2023-03-31,-0.09013806706114501
2023-04-03,0.22577897650649503
2023-04-04,0.06934077209183051
2023-04-06,-0.12345775265568797
2023-04-07,-0.0021824580648123412
2023-04-10,-1.0530195334404815e-05
2023-04-11,-0.2954657837593788
2023-04-12,-0.12828712829761335
2023-04-13,-0.15382003395585683
2023-04-14,-0.12084520417853696
2023-04-17,-0.08329718447399805
2023-04-18,0.012215357582065184
2023-04-19,0.11182481762692263
2023-04-20,0.15704909384309745
2023-04-21,0.19261185144128926
2023-04-24,0.04487498634896372
2023-04-25,0.1319510095888436
2023-04-26,-0.027742766720227734
2023-04-27,-0.04889635906497515
2023-04-28,-0.2756302439834893
2023-05-04,0.0925915776011708
2023-05-05,0.013025241003751287
2023-05-08,0.06974265797795144
2023-05-09,-0.012286459648238678
2023-05-10,0.23566349616769533
2023-05-11,0.04048574662961738
2023-05-12,0.1190406923888152
2023-05-15,-0.017136480371772865
2023-05-16,0.0449874879422915
2023-05-17,-0.08879163266819946
2023-05-18,-0.22105485232067482
2023-05-19,-0.21352703453870697
2023-05-22,0.13567734401067655
2023-05-23,0.2345848334190539
2023-05-24,-0.012177985948477937
2023-05-25,0.28960784313725396
2023-05-26,0.013306674020959385
2023-05-29,-0.27739714692350936
2023-05-30,-0.3837587981930891
2023-05-31,0.0604863221884509
2023-06-01,-0.18386901152213314
2023-06-02,0.013008394847301374
2023-06-05,0.001616464280081567
2023-06-06,0.06142632767252429
2023-06-07,0.15813035525175587
2023-06-08,-0.0717337619066294
2023-06-09,0.25156268782305347
2023-06-12,0.11339413814306246
2023-06-13,0.11840022611644879
2023-06-14,-0.3247253835489122
2023-06-15,0.03651373703599642
2023-06-16,-0.4869350282485861
2023-06-19,0.012404181184669214
2023-06-20,0.04848776728953969
2023-06-21,0.12426346801346766
2023-06-26,0.33456891255375837
2023-06-27,0.37041839557399725
2023-06-28,-0.09832884097035066
2023-06-29,-0.04405426975259232
2023-06-30,-0.021329365079365434
2023-07-03,-0.37497842968076034
2023-07-04,-0.017016254901214833
2023-07-05,0.0627598337064275
2023-07-06,-0.12728387492336052
2023-07-07,0.07460317460317595
2023-07-10,0.02436559622726131
2023-07-11,-0.0925190560956683
2023-07-12,0.027787241291202303
2023-07-13,0.32643521862915964
2023-07-14,-0.046889400921659864
2023-07-17,0.34534967555876317
2023-07-18,-0.13107539226942186
2023-07-19,0.0035813395334883674
2023-07-20,-0.4072099517644079
2023-07-21,0.021889400921659374
2023-07-24,-0.5131578947368447
2023-07-25,0.28137651821862364
2023-07-26,0.06339456563337072
2023-07-27,0.4401506865961855
2023-07-28,-0.002819548872180496
2023-07-31,0.35740740740740873
2023-08-01,-0.09687261632341818
2023-08-02,-0.09166666666666629
2023-08-03,-0.2121198177886178
2023-08-04,-0.021210433491135626
2023-08-07,-0.20368069933287436
2023-08-08,-0.1362617660242027
2023-08-09,0.02097902097902135
2023-08-10,-0.31820661066870143
2023-08-11,-0.10151946818613647
2023-08-14,0.125008924109375
2023-08-15,0.09682400744134988
2023-08-16,0.13312361582961407
2023-08-17,0.2687054013779376
2023-08-18,0.12094451801201865
2023-08-21,0.004141008556090894
2023-08-22,0.08078092628471724
2023-08-23,-0.2844049476665004
2023-08-24,0.03445034293688275
2023-08-25,0.10711816005066101
2023-08-28,-0.02874440933504022
2023-08-29,-0.10128233392122328
2023-08-30,0.1901269004941706
2023-08-31,-0.025524695476466304
2023-09-01,0.11283121065729865
2023-09-04,0.05356007628734814
2023-09-05,0.010400299289188841
2023-09-06,-0.12642871721604224
2023-09-07,0.16364903422613045
2023-09-08,-0.4388353838445705
2023-09-11,-0.12506819421713145
2023-09-12,-0.047171333102892204
2023-09-13,0.22481388970515964
2023-09-14,-0.37091786101687096
2023-09-15,0.2536687373147182
2023-09-18,0.23404255319149214
2023-09-19,0.07108908202064104
2023-09-20,-0.15561192136968666
2023-09-21,0.2417035261558238
2023-09-22,-0.04803493449781658
2023-09-25,-0.34971751412429564
2023-09-26,0.18546235921754545
2023-09-27,0.007017543859648387
2023-09-28,-0.0010235165102960853
2023-10-09,0.05298013245033145
2023-10-10,0.2648118537469356
2023-10-11,-0.2440171764932942
2023-10-12,-0.030303030303031088
2023-10-13,-0.05387931034482934
2023-10-16,-0.13525861346298984
2023-10-17,-0.0921058338755146
2023-10-18,-0.07776922453609733
2023-10-19,0.05797101449275588
2023-10-20,0.043269230769232454
2023-10-23,0.10466654071415021
2023-10-24,-0.0261515227787579
2023-10-25,0.14119417168197337
2023-10-26,-0.027667984189724795
2023-10-27,-0.06410256410256356
2023-10-30,-0.06453365357122354
2023-10-31,0.02049635036496584
2023-11-01,-0.06337767923133504
2023-11-02,-0.10593220338983164
2023-11-03,0.15655608214849842
2023-11-06,0.054803821717834406
2023-11-07,0.020166666666665705
2023-11-08,0.11533920318456364
2023-11-09,0.4920325894902182
2023-11-10,-0.19564614714385645
2023-11-13,-0.027673242863118182
2023-11-14,-0.001117886178861811
2023-11-15,-0.09292587874736917
2023-11-16,-0.5780508504966719
2023-11-17,0.10307473932485937
2023-11-20,0.11538676222691148
2023-11-21,-0.01656229400131887
2023-11-22,0.20316858891618544
2023-11-23,0.07345335456969707
2023-11-24,-0.06671691476666028
2023-11-27,-0.21601800571529844
2023-11-28,-0.04033264033264137
2023-11-29,-0.07111036863793438
2023-11-30,0.15134382515505454
2023-12-01,0.35408677518391934
2023-12-04,0.18535135233718258
2023-12-05,0.1916907653749777
2023-12-06,-0.3032484509867114
2023-12-07,0.07856632814979442
2023-12-08,-0.38159088356501797
2023-12-11,-0.04620639931680854
2023-12-12,-0.1659058360186197
2023-12-13,0.3204229676071797
2023-12-14,-0.20771614871450345
2023-12-15,-0.09215293324624867
2023-12-18,-0.0018339863139069726
2023-12-19,-0.08644615812741921
2023-12-20,-0.1442846913767004
2023-12-21,0.08620209513523229
2023-12-22,0.18633486029579632
2023-12-25,-0.07116965869811487
2023-12-26,0.18047960483943837
2023-12-27,-0.1039748071033572
2023-12-28,0.006410973200641331
2023-12-29,0.013832199546487237
2024-01-02,0.22326381574327717
2024-01-03,-0.017633853642160864
2024-01-04,0.17778257563668096
2024-01-05,0.06075525429167356
2024-01-08,-0.054727220794058555
2024-01-09,-0.31142120291056374
2024-01-10,-0.06641065773668745
2024-01-11,-0.18321811849153993
2024-01-12,-0.08503724536333208
2024-01-15,-0.08324240350650196
2024-01-16,0.1733766233766207
2024-01-17,-0.07771315145640158
2024-01-18,0.17778413226577794
2024-01-19,-0.0483331929115082
2024-01-22,0.1370034407256811
2024-01-23,-0.12738095238094949
2024-01-24,0.18294140391577807
2024-01-25,-0.13947293141671951
2024-01-26,0.16386282457017393
2024-01-29,-0.04347826086956535
2024-01-30,0.0450564971751399
2024-01-31,-0.2338226299694144
2024-02-01,0.1885548523206753
2024-02-02,0.011499000086946959
2024-02-05,-0.03862660944205801
2024-02-06,0.17161016949152685
2024-02-07,0.11492063492062934
2024-02-08,-0.15744535519125546
2024-02-19,-0.12503062974761212
2024-02-20,-0.005817835002386369
2024-02-21,-0.2180232558139564
2024-02-22,0.06251526251526876
2024-02-23,0.03337819101215039
2024-02-26,-0.13138638011734133
2024-02-27,0.0022757697456474713
2024-02-28,-0.020184291355855213
2024-02-29,-0.02367703218767646
2024-03-01,-0.050522037698826155
2024-03-04,0.17251192124288098
2024-03-05,0.012317928430138968
2024-03-06,0.1747460087082714
2024-03-07,0.31899475794018306
2024-03-08,0.14146078657738342
2024-03-11,0.02566481137910122
2024-03-12,0.03965466783728591
2024-03-13,-0.04697535474234394
2024-03-14,-0.4983357603494928
2024-03-15,-0.12884171957421114
2024-03-18,0.014398397395763748
2024-03-19,0.23438212494300087
2024-03-20,0.09758642591416433
2024-03-21,0.20166056853363562
2024-03-22,0.09861979473870289
2024-03-25,0.0663539035246047
2024-03-26,-0.3525776549032373
2024-03-27,-0.06116914055341976
2024-03-28,0.004170324846355159
2024-03-29,0.024165622927874386
2024-04-01,-0.19275506812894838
2024-04-02,0.1777346740850389
2024-04-03,-0.07828414642307285
2024-04-08,-0.03358208955223871
2024-04-09,-0.04042054594971207
2024-04-10,-0.05064824585017956
2024-04-11,0.0753161743538725
2024-04-12,-0.07032262329226682
2024-04-15,-0.048379531123062
2024-04-16,0.040945806044677895
2024-04-17,0.11818505149164944
2024-04-18,-0.17396326935133402
2024-04-19,0.15045656623772266
2024-04-22,0.14156949528077006
2024-04-23,-0.1900973734878767
2024-04-24,0.10102791219005451
2024-04-25,-0.16182225055945007
2024-04-26,-0.0697078258100454
2024-04-29,-0.15327580106758182
2024-04-30,0.15655363425406116
2024-05-06,-0.20799774618010758
2024-05-07,0.35033025996298484
2024-05-08,-0.05608373625975735
2024-05-09,-0.03250675568271666
2024-05-10,0.17211816233342517
2024-05-13,0.2335008249587522
2024-05-14,-0.261090772552334
2024-05-15,0.1401882641468613
2024-05-16,0.3248760571595187
2024-05-17,-0.3893851470300568
2024-05-20,-0.16209704220671095
2024-05-21,0.2978051597997683
2024-05-22,-0.11159549143889769
2024-05-23,-0.19299775028121438
2024-05-24,0.18873994049383483
2024-05-27,-0.00872951920494476
2024-05-28,-0.33620613713111036
2024-05-29,0.08620960486669492
2024-05-30,-0.24008892713712052
2024-05-31,0.046814830164568604
2024-06-03,0.2967490332306479
2024-06-04,0.08664792304087801
2024-06-05,0.047227821726832056
2024-06-06,0.10043146563951216
2024-06-07,-0.029590099256612767
2024-06-11,-0.4390872285609095
2024-06-12,0.23363984674329363
2024-06-13,-0.10601797845330617
2024-06-14,0.13916485066017023
2024-06-17,0.016683241315452922
2024-06-18,0.24628340080971342
2024-06-19,-0.2974242424242427
2024-06-20,0.02982468902306186
2024-06-21,-0.009132086499124701
2024-06-24,-0.06615098270238565
2024-06-25,-0.10261016949152596
2024-06-26,0.166313131313132
2024-06-27,-0.08914672292136616
2024-06-28,-0.07553257658217656
2024-07-01,0.12015273820829221
2024-07-02,0.006962592399017628
2024-07-03,-0.10393476044852086
2024-07-04,0.29471778838242313
2024-07-05,0.05782375086808305
2024-07-08,-0.2055193821926103
2024-07-09,0.012980910425842034
2024-07-10,0.09157555192492932
2024-07-11,-0.41668448740430053
2024-07-12,-0.03393021321307638
2024-07-15,0.0692294081217373
2024-07-16,0.014901960784314983
2024-07-17,0.01704174820613144
2024-07-18,0.34513054082978967
2024-07-19,-0.007578628268289395
2024-07-22,0.16677123139223277
2024-07-23,0.05248868778280279
2024-07-24,-0.0013975155279508725
2024-07-25,-0.11383480412756616
2024-07-26,0.13355665024630867
2024-07-29,-0.154436106819689
2024-07-30,-0.00327079837984965
2024-07-31,0.023638361324754588
2024-08-01,-0.13037328748127863
2024-08-02,-0.09284758364312198
2024-08-05,0.12819693094629325
2024-08-06,-0.017318955332682205
2024-08-07,-0.24686490594718016
2024-08-08,0.31556940449557913
2024-08-09,0.08982478234018955
2024-08-12,-0.15475983292725365
2024-08-13,-0.05787007724452201
2024-08-14,0.18739250085999293
2024-08-15,-0.40796457918644413
2024-08-16,-0.34053084304595127
2024-08-19,0.01957481666384689
2024-08-20,-0.018835378466385548
2024-08-21,0.13357274368207328
2024-08-22,0.11745710659544126
2024-08-23,0.3033834315829245
2024-08-26,0.10959678096928954
2024-08-27,0.0612441247192514
2024-08-28,-0.3266567990096321
2024-08-29,0.21914615970426551
2024-08-30,-0.13772141284980416
2024-09-02,-0.14978723404255517
2024-09-03,0.16873750742801602
2024-09-04,0.7333944323519344
2024-09-05,-0.20069012372166065
2024-09-06,0.16084814735489283
2024-09-09,0.08286415711947832
2024-09-10,-0.2777048831518855
2024-09-11,-0.7998009312369266
2024-09-12,0.026648147087460744
2024-09-13,-0.1334681496461062
2024-09-18,0.14814258911819728
2024-09-19,0.24836227513777592
2024-09-20,0.18018772196854266
2024-09-23,0.04295959794681143
2024-09-24,0.030947425572345127
2024-09-25,-0.21446061891448853
2024-09-26,-0.17360366158907306
2024-09-27,0.010789049919486107
2024-09-30,0.03464843891648598
2024-10-08,0.3474419315922746
2024-10-09,0.017339467375104986
2024-10-10,-0.008264822306319527
2024-10-11,0.23431677018633507
2024-10-14,-0.10181823221264213
2024-10-15,-0.5771006591939492
2024-10-16,0.2737497406100877
2024-10-17,0.051546391752578385
2024-10-18,-0.28722760290557026
2024-10-21,0.05893527419207059
2024-10-22,0.2790575164024716
2024-10-23,-0.4642117376294615
2024-10-24,0.05768286696121788
2024-10-25,0.10508474576271254
2024-10-28,0.01909090909090803
2024-10-29,-0.02517657780815785
2024-10-30,0.3093250097541951
2024-10-31,-0.2274285714285718
2024-11-01,-0.09952606635070833
2024-11-04,0.015438596491231603
2024-11-05,-0.09956709956710003
2024-11-06,-0.18407248450167263
2024-11-07,0.44349999999999634
2024-11-08,0.06554548382643514
2024-11-11,0.12372388257074755
2024-11-12,0.04780564263323026
2024-11-13,0.20570570570571023
2024-11-14,-0.3821502057613132
2024-11-15,0.0839805825242714
2024-11-18,-0.2610672409667418
2024-11-19,0.17707474014189156
2024-11-20,-0.17054396168320338
2024-11-21,0.10378262585263973
2024-11-22,-0.13144796380090268
2024-11-25,0.17898193760263237
2024-11-26,-0.2521531100478492
2024-11-27,0.03986689286180163
2024-11-28,-0.121431885331965
2024-11-29,0.0995202529575313
2024-12-02,-0.314513073133767
2024-12-03,0.16433566433566624
2024-12-04,0.17578835657974712
2024-12-05,0.15100914265999407
2024-12-06,0.1682631145700822
2024-12-09,0.31977446637132506
2024-12-10,-0.0798076923076925
2024-12-11,-0.2893060046085581
2024-12-12,-0.08047667833384013
2024-12-13,-0.3158935690417284
2024-12-16,-0.2515089461150525
2024-12-17,0.14939806723208288
2024-12-18,0.269003107330244
2024-12-19,0.2684336675811517
2024-12-20,0.05890599140197687
2024-12-23,0.15080780408021147
2024-12-24,0.07360489134779656
2024-12-25,-0.1691542288557219
2024-12-26,-0.44132635253053754
2024-12-27,0.0706521739130425
2024-12-30,0.011695906432748017
2024-12-31,-0.4493491124260327
