date,FCT_Cr_Atr_Dfive
2012-12-28,
2012-12-31,
2013-01-04,
2013-01-07,
2013-01-08,
2013-01-09,
2013-01-10,
2013-01-11,
2013-01-14,
2013-01-15,
2013-01-16,0.12965806154453544
2013-01-17,0.15793833410032207
2013-01-18,-0.0323891507165528
2013-01-21,0.13182161753590327
2013-01-22,-0.2731770833333333
2013-01-23,-0.1527598229325814
2013-01-24,0.14073995994518818
2013-01-25,-0.08178432508482994
2013-01-28,0.11005291005291008
2013-01-29,0.21984375000000006
2013-01-30,0.06467661691542292
2013-01-31,-0.5448673184357543
2013-02-01,0.3590254706533777
2013-02-04,0.06359381359381354
2013-02-05,0.2407142857142857
2013-02-06,0.09523483499931534
2013-02-07,0.3699508733624455
2013-02-08,-0.3444782168186424
2013-02-18,-0.20274725274725275
2013-02-19,-0.21111051315719934
2013-02-20,-0.11687764614583787
2013-02-21,0.2237823156129927
2013-02-22,0.30753837801989115
2013-02-25,0.16843126971766434
2013-02-26,-0.0789723732396782
2013-02-27,0.1557046448352219
2013-02-28,-0.2958848283197003
2013-03-01,-0.31799388726899475
2013-03-04,-0.20810145685866785
2013-03-05,-0.10607387719351499
2013-03-06,-0.0788690476190486
2013-03-07,-0.11904681426398508
2013-03-08,-0.012791141657121266
2013-03-11,0.29083533405083006
2013-03-12,0.2534727809064091
2013-03-13,-0.004922161172159329
2013-03-14,0.317953918089121
2013-03-15,0.18650166754431974
2013-03-18,-0.08949527716820774
2013-03-19,-0.152822834150635
2013-03-20,-0.1233984356255118
2013-03-21,-0.26686685061948895
2013-03-22,-0.01776589266329151
2013-03-25,-0.34415834900429154
2013-03-26,-0.0013023593906130518
2013-03-27,0.13328854551562289
2013-03-28,0.257800780078013
2013-03-29,-0.0391061452513991
2013-04-01,0.39589119134088246
2013-04-02,0.09203056302556249
2013-04-03,0.04641313742437151
2013-04-08,-0.10690235690236113
2013-04-09,-0.07653061224490021
2013-04-10,-0.24847243057334462
2013-04-11,-0.08468567251461664
2013-04-12,-0.04872585738415056
2013-04-15,-0.12735961768220055
2013-04-16,0.36021855550731585
2013-04-17,0.2044198895027629
2013-04-18,0.07928299492385998
2013-04-19,-0.04248366013072205
2013-04-22,0.09537308569566945
2013-04-23,-0.42439146085035473
2013-04-24,0.00516946140674214
2013-04-25,-0.014142620592311379
2013-04-26,0.07653218355405249
2013-05-02,-0.030050505050504127
2013-05-03,0.17147274835716672
2013-05-06,-0.2676966046958196
2013-05-07,-0.0635590490303465
2013-05-08,-0.13517073331358007
2013-05-09,-0.07155172413793565
2013-05-10,-0.2139753376394572
2013-05-13,0.2675872971590639
2013-05-14,-0.0005663680362429507
2013-05-15,0.1951931716082705
2013-05-16,0.1530033370411637
2013-05-17,0.16030534351145143
2013-05-20,-0.20283294392523332
2013-05-21,0.07782276203328678
2013-05-22,-0.285108958837774
2013-05-23,-0.06676089125374617
2013-05-24,0.2520674300254457
2013-05-27,0.21106991525423824
2013-05-28,-0.11201079622131876
2013-05-29,0.361299435028244
2013-05-30,0.017351531871641256
2013-05-31,-0.25229374256776427
2013-06-03,0.08140544993905977
2013-06-04,0.1631091278776149
2013-06-05,0.04763826351478964
2013-06-06,0.00392513416674437
2013-06-07,0.11093195394987906
2013-06-13,-0.17861606026056226
2013-06-14,-0.010293193811685974
2013-06-17,-0.28076412796845174
2013-06-18,0.019600297901650195
2013-06-19,-0.17255064076064802
2013-06-20,-0.09707689752533001
2013-06-21,-0.1014030612244868
2013-06-24,-0.05491951076448321
2013-06-25,-0.042263592022267246
2013-06-26,0.08474576271186811
2013-06-27,0.021586675432831798
2013-06-28,-0.006336929676330802
2013-07-01,-0.033445852852025684
2013-07-02,0.20253560108923455
2013-07-03,0.01923076923076475
2013-07-04,0.10245245804026762
2013-07-05,-0.047421158924965255
2013-07-08,0.24411815963750422
2013-07-09,-0.28664807789001945
2013-07-10,-0.065588385124806
2013-07-11,0.03105345911949018
2013-07-12,0.15116371751952584
2013-07-15,-0.17913099660798115
2013-07-16,-0.029191616766468226
2013-07-17,0.06891400687148302
2013-07-18,-0.1139705882352891
2013-07-19,0.04438364493084569
2013-07-22,0.1495596205962083
2013-07-23,0.27983870967742397
2013-07-24,-0.011383206619905011
2013-07-25,0.01279655508612286
2013-07-26,-0.024325046778938736
2013-07-29,-0.14480994152046855
2013-07-30,-0.3017313650446567
2013-07-31,-0.004550667801246673
2013-08-01,0.02551613841232922
2013-08-02,-0.3119540229885056
2013-08-05,0.25645524066576864
2013-08-06,0.1109214323456515
2013-08-07,0.03815360284669341
2013-08-08,0.14887218045112494
2013-08-09,0.18226415094339493
2013-08-12,-0.3252890899949743
2013-08-13,0.22536516241552382
2013-08-14,-0.012928985645021852
2013-08-15,0.049470899470900054
2013-08-16,0.21481918238993558
2013-08-19,0.1903522470935273
2013-08-20,-0.07594856124268011
2013-08-21,-0.05071505828626734
2013-08-22,-0.3082621082621042
2013-08-23,-0.3349780701754358
2013-08-26,-0.13643067846607407
2013-08-27,-0.30662719633307883
2013-08-28,0.17379750199309263
2013-08-29,0.3852720450281376
2013-08-30,0.2690058479532171
2013-09-02,0.22681159420289376
2013-09-03,0.3756913238852384
2013-09-04,-0.23531542955482215
2013-09-05,-0.3915657513218467
2013-09-06,-0.1633199464524795
2013-09-09,-0.14347826086956236
2013-09-10,-0.41556035316104695
2013-09-11,0.0859107139684866
2013-09-12,0.046953046953047806
2013-09-13,0.1120890748623273
2013-09-16,-0.06214689265536771
2013-09-17,0.26919542577087735
2013-09-18,-0.02878067583194093
2013-09-23,0.26694139194139094
2013-09-24,-0.00962898323955362
2013-09-25,0.019084691698431
2013-09-26,-0.07614457831325125
2013-09-27,0.22638081395348458
2013-09-30,-0.13690476190476095
2013-10-08,-0.008928942231818442
2013-10-09,0.007347915242651923
2013-10-10,0.17991769547325082
2013-10-11,-0.3078181407942198
2013-10-14,-0.1726190476190475
2013-10-15,0.055451879498796944
2013-10-16,0.07352941176470391
2013-10-17,-0.22898652138418263
2013-10-18,0.04691536301644115
2013-10-21,0.17216981132075398
2013-10-22,-0.3535309503051425
2013-10-23,-0.03175451998981698
2013-10-24,0.0890688259109318
2013-10-25,0.2083801874163406
2013-10-28,-0.17805986367677729
2013-10-29,0.37121458808206
2013-10-30,-0.027682227682220686
2013-10-31,-0.05524861878452787
2013-11-01,-0.3318889593461589
2013-11-04,0.445175766641735
2013-11-05,-0.21771870089052026
2013-11-06,0.015561015561014146
2013-11-07,0.19549252122354854
2013-11-08,0.28823842136535055
2013-11-11,-0.49302967563836797
2013-11-12,0.1032608695652177
2013-11-13,-0.06452762923351464
2013-11-14,-0.24900377055214334
2013-11-15,-0.2568996463947285
2013-11-18,0.10259552235103395
2013-11-19,-0.046201972017267605
2013-11-20,0.17345895550601348
2013-11-21,0.031836791190046954
2013-11-22,0.16846629325549817
2013-11-25,0.1125120753652586
2013-11-26,0.09883355096463493
2013-11-27,-0.09453738687856017
2013-11-28,0.068658614113154
2013-11-29,-0.060185185185188825
2013-12-02,-0.0798418972332039
2013-12-03,-0.1526315789473684
2013-12-04,0.1128787878787895
2013-12-05,-0.01876256421710134
2013-12-06,0.1435185185185207
2013-12-09,0.16952868103763508
2013-12-10,0.11492537313433114
2013-12-11,-0.29032976827094564
2013-12-12,0.15092083233675704
2013-12-13,-0.1097258675998817
2013-12-16,-0.1101774042950505
2013-12-17,0.03194962686566855
2013-12-18,0.37807287093941444
2013-12-19,-0.17944936086529073
2013-12-20,-0.03134167052648264
2013-12-23,-0.11791383219954894
2013-12-24,0.01373106060606294
2013-12-25,-0.016098081023447786
2013-12-26,0.12142381902861338
2013-12-27,0.37629433795990386
2013-12-30,0.2659063625450201
2013-12-31,-0.013674652663823901
2014-01-02,-0.31354679802955954
2014-01-03,-0.046260420335804256
2014-01-06,-0.5447709593777004
2014-01-07,-0.15901117728645137
2014-01-08,-0.11456425818378568
2014-01-09,0.1362336966231938
2014-01-10,-0.09613845538214906
2014-01-13,0.23531661708457458
2014-01-14,-0.06937049796429644
2014-01-15,0.06763285024155039
2014-01-16,-0.06152105294502791
2014-01-17,0.19701253995573612
2014-01-20,-0.04375334165033044
2014-01-21,0.009871320289090206
2014-01-22,0.19075144508670305
2014-01-23,0.00714206003793582
2014-01-24,-0.20634051356942285
2014-01-27,0.043753341650327876
2014-01-28,0.06539749691521306
2014-01-29,-0.382240806788833
2014-01-30,0.18357179356157388
2014-02-07,0.3543572937971175
2014-02-10,-0.03862784337398096
2014-02-11,-0.11661910283734399
2014-02-12,0.23081740780916377
2014-02-13,-0.1383057312589665
2014-02-14,-0.48499355329935745
2014-02-17,0.10310879713961454
2014-02-18,0.18417966767734623
2014-02-19,-0.08960737571597635
2014-02-20,-0.03584287555217731
2014-02-21,0.258919087785067
2014-02-24,-0.09791921664627076
2014-02-25,-0.07831325301204646
2014-02-26,0.1730863471528012
2014-02-27,-0.059129901960783604
2014-02-28,-0.08813852813852979
2014-03-03,-0.14388664531402212
2014-03-04,-0.035211267605631785
2014-03-05,-0.15200409783583346
2014-03-06,0.08102286967418351
2014-03-07,0.18965367965367813
2014-03-10,0.23579331403418508
2014-03-11,0.15106492614221573
2014-03-12,-0.0035898049539270296
2014-03-13,0.14311201733146747
2014-03-14,-0.15388964269560962
2014-03-17,-0.0358414589503817
2014-03-18,-0.19240868246002757
2014-03-19,0.043149579546416225
2014-03-20,-0.1714906562364213
2014-03-21,-0.06983698528633488
2014-03-24,-0.050251256281407836
2014-03-25,0.1748209198771985
2014-03-26,-0.07352058903735842
2014-03-27,0.002189570728897701
2014-03-28,0.06234537357743412
2014-03-31,-0.07692307692307791
2014-04-01,0.094041796353939
2014-04-02,0.10616864742501417
2014-04-03,0.02855322599328209
2014-04-04,0.06925533196770996
2014-04-08,0.10155361879500135
2014-04-09,-0.3221153846153847
2014-04-10,-0.059585338323533535
2014-04-11,0.022008571759526526
2014-04-14,-0.05733833338104605
2014-04-15,-0.08574165298303474
2014-04-16,0.011464497041418983
2014-04-17,0.016574585635361037
2014-04-18,0.01670311439559676
2014-04-21,-0.0139556576020648
2014-04-22,0.20680647534951707
2014-04-23,0.17614666347436342
2014-04-24,0.038251366120219815
2014-04-25,-0.10197809961144624
2014-04-28,0.22287034998899527
2014-04-29,-0.2536765848956828
2014-04-30,-0.14727715241861816
2014-05-05,-0.08449414068669417
2014-05-06,0.08660287081339808
2014-05-07,-0.4533898305084749
2014-05-08,0.2825843952604526
2014-05-09,0.29217638691323056
2014-05-12,0.02377086445411351
2014-05-13,0.06802507836990775
2014-05-14,0.3928571428571406
2014-05-15,-0.2440476190476195
2014-05-16,-0.30718031464300366
2014-05-19,0.10024968789013897
2014-05-20,-0.09136153572698488
2014-05-21,-0.2775721687638774
2014-05-22,0.2670492348636092
2014-05-23,0.08447761194030054
2014-05-26,-0.12879818594104425
2014-05-27,0.3438643165946172
2014-05-28,0.1869238612481017
2014-05-29,-0.26249028660237406
2014-05-30,0.08122448979591704
2014-06-03,0.054866562009422346
2014-06-04,-0.6528859226300854
2014-06-05,0.14332189091561578
2014-06-06,0.13497895412713512
2014-06-09,0.13528206042242213
2014-06-10,0.010752386299827235
2014-06-11,0.32137048981504285
2014-06-12,-0.22767358339983873
2014-06-13,-0.12913404834982947
2014-06-16,-0.372977138453634
2014-06-17,0.20921098366354257
2014-06-18,0.06673571648517726
2014-06-19,-0.10553830227743348
2014-06-20,0.04223386771682668
2014-06-23,0.17647058823529557
2014-06-24,-0.34774114774115095
2014-06-25,-0.005637278162663448
2014-06-26,0.10571768910065646
2014-06-27,-0.025646107499604137
2014-06-30,0.0738916256157614
2014-07-01,0.17897749549125933
2014-07-02,-0.11177094379639546
2014-07-03,0.013781652137816493
2014-07-04,0.18134171907757007
2014-07-07,-0.04950138171332408
2014-07-08,-0.15425222076598527
2014-07-09,0.16682627849071158
2014-07-10,0.09661319073083702
2014-07-11,-0.1825252525252528
2014-07-14,-0.05480849485300948
2014-07-15,0.11489262371615566
2014-07-16,-0.3086762029493293
2014-07-17,0.05427004925192809
2014-07-18,0.0017953594522622934
2014-07-21,-0.10495292808872887
2014-07-22,-0.0257872846108154
2014-07-23,0.40471594043022335
2014-07-24,-0.2916972377005298
2014-07-25,0.0530278207227846
2014-07-28,0.16931446151409724
2014-07-29,0.05506095459101152
2014-07-30,-0.32208458440346144
2014-07-31,0.18030497530622208
2014-08-01,0.057384612032745114
2014-08-04,-0.012552908143246916
2014-08-05,-0.10255156752664887
2014-08-06,0.05825238485697929
2014-08-07,-0.03875101987175662
2014-08-08,-0.14549450549450701
2014-08-11,-0.05344165638283455
2014-08-12,0.05759162303664793
2014-08-13,0.216629874908018
2014-08-14,0.29992773617133295
2014-08-15,0.05049135886140511
2014-08-18,0.13159879336350178
2014-08-19,-0.012345679012346103
2014-08-20,-0.32635209713024177
2014-08-21,-0.4548996688096648
2014-08-22,-0.033092091462135355
2014-08-25,-0.15650953662867517
2014-08-26,-0.034634186759464426
2014-08-27,0.24571596244131358
2014-08-28,0.03692992213570723
2014-08-29,0.2684790334044054
2014-09-01,-0.0603219253008251
2014-09-02,0.11690993570187916
2014-09-03,0.02609776304888299
2014-09-04,0.35185813997358634
2014-09-05,-0.3291475315729072
2014-09-09,0.199251163732037
2014-09-10,0.061383061383063806
2014-09-11,-0.25157563025210256
2014-09-12,-0.1287454030264621
2014-09-15,0.1438889901567667
2014-09-16,-0.11437462052216255
2014-09-17,-0.1982987772461477
2014-09-18,0.13392857142857234
2014-09-19,-0.2004493787998949
2014-09-22,0.25375996493438785
2014-09-23,0.15457935310876422
2014-09-24,-0.0015627411637588046
2014-09-25,0.012987012987013453
2014-09-26,0.1598290598290593
2014-09-29,-0.3917423616845569
2014-09-30,-0.22355443418061827
2014-10-08,0.18649710504549388
2014-10-09,-0.022161324913618205
2014-10-10,-0.07941595441595489
2014-10-13,0.2243335611756634
2014-10-14,0.18327904020339975
2014-10-15,-0.22950250280927853
2014-10-16,0.09437610564857653
2014-10-17,-0.05436945209672553
2014-10-20,-0.33176730390352493
2014-10-21,-0.16329190056134812
2014-10-22,0.1495284684048614
2014-10-23,-0.15837252542928898
2014-10-24,0.053882122662028326
2014-10-27,0.23532489919044408
2014-10-28,0.16864367098486094
2014-10-29,0.09165494608532686
2014-10-30,0.11142209782753634
2014-10-31,0.1802631578947368
2014-11-03,0.06896336516258086
2014-11-04,-0.044875440791717805
2014-11-05,-0.17028003613369525
2014-11-06,-0.06791238306937215
2014-11-07,-0.15610204550677975
2014-11-10,-0.07375823465222658
2014-11-11,-0.11660868921619473
2014-11-12,0.01234851971161369
2014-11-13,-0.0013655423486693893
2014-11-14,0.024487274455642957
2014-11-17,-0.0409775870902389
2014-11-18,0.16145726465156504
2014-11-19,0.1138249150675991
2014-11-20,0.05230315504250182
2014-11-21,-0.06992031666816229
2014-11-24,0.040977587090240866
2014-11-25,-0.2182258236035307
2014-11-26,-0.20110091772238245
2014-11-27,0.012814313346228727
2014-11-28,0.14757326007326055
2014-12-01,0.03139043233789845
2014-12-02,0.15032803830981306
2014-12-03,0.19140727333349225
2014-12-04,-0.04290148177813256
2014-12-05,-0.17340659340659093
2014-12-08,-0.07401743014589701
2014-12-09,-0.009323671497585886
2014-12-10,0.06773497254938439
2014-12-11,0.026126590003241128
2014-12-12,0.03744680851063432
2014-12-15,0.12270531400966195
2014-12-16,0.030816326530612635
2014-12-17,-0.2416035721219162
2014-12-18,-0.0651421042725363
2014-12-19,0.010589721169725619
2014-12-22,-0.28700209643605984
2014-12-23,-0.1349339735894372
2014-12-24,0.0006366182836790302
2014-12-25,-0.05289333750391407
2014-12-26,0.119963470319642
2014-12-29,0.5289955604883484
2014-12-30,0.12726681832954584
2014-12-31,0.22574484339189999
2015-01-05,0.16233079886801693
2015-01-06,-0.03442857142857607
2015-01-07,-0.4452891326021961
2015-01-08,-0.08099606122287571
2015-01-09,-0.19869400478327365
2015-01-12,-0.11566542846163755
2015-01-13,0.03785714285714421
2015-01-14,0.3081240571479295
2015-01-15,0.1574960127591712
2015-01-16,0.14149800385325725
2015-01-19,0.3787773012865257
2015-01-20,-0.18056506167926928
2015-01-21,-0.20900779736458713
2015-01-22,-0.162444153862916
2015-01-23,-0.1137691958789604
2015-01-26,-0.5541753020269916
2015-01-27,0.1291364902506963
2015-01-28,-0.11291460832745152
2015-01-29,-0.01583241992449217
2015-01-30,-0.08369283865400956
2015-02-02,0.2595725367222312
2015-02-03,-0.028304093567251547
2015-02-04,0.2900548391877851
2015-02-05,0.08852794849282897
2015-02-06,0.11655969191270522
2015-02-09,-0.09415989079470494
2015-02-10,-0.10116959064327263
2015-02-11,-0.3872832369942179
2015-02-12,-0.09452736318408173
2015-02-13,0.3323367427222713
2015-02-16,0.08233209179382162
2015-02-17,0.1733060195398654
2015-02-25,0.27515728291763697
2015-02-26,0.19567949725059258
2015-02-27,-0.364834166288056
2015-03-02,0.08464849354376004
2015-03-03,0.08061210911510247
2015-03-04,-0.04654621223513536
2015-03-05,-0.10123088494005156
2015-03-06,0.001997935381732756
2015-03-09,-0.05454723744393773
2015-03-10,-0.3711928093780483
2015-03-11,0.37613280015664163
2015-03-12,-0.016250318067468638
2015-03-13,0.1648107458873778
2015-03-16,-0.10852052130513104
2015-03-17,0.2673544255396653
2015-03-18,-0.6269293924466298
2015-03-19,0.017525617842073953
2015-03-20,-0.2981088791506141
2015-03-23,0.11012658227848234
2015-03-24,-0.04155844155844206
2015-03-25,0.23827325322652387
2015-03-26,-0.035247989809728444
2015-03-27,0.14484558503697453
2015-03-30,-0.17315270935960916
2015-03-31,-0.10331728196896771
2015-04-01,0.30995929132503763
2015-04-02,0.009433962264152058
2015-04-03,0.019229460985507596
2015-04-07,0.11836802036439358
2015-04-08,0.13234658599827373
2015-04-09,-0.3373107446389366
2015-04-10,-4.4923629829271734e-05
2015-04-13,0.0716796299235834
2015-04-14,-0.02224233803181296
2015-04-15,-0.1128917378917363
2015-04-16,-0.13161958397674525
2015-04-17,-0.1380952380952383
2015-04-20,-0.055256512493357286
2015-04-21,0.04771668219944347
2015-04-22,0.09184184184183569
2015-04-23,0.08936946326211598
2015-04-24,0.33571428571428175
2015-04-27,-0.02490851630073055
2015-04-28,0.052481076534899695
2015-04-29,0.07524570024570294
2015-04-30,0.12533912099836975
2015-05-04,-0.3160098522167446
2015-05-05,0.21459328533943367
2015-05-06,-0.12011908851482872
2015-05-07,-0.11212494402149462
2015-05-08,0.013309739959994078
2015-05-11,0.1372372164018586
2015-05-12,-0.2892218060757394
2015-05-13,0.08776468333812505
2015-05-14,0.029460059886022252
2015-05-15,-0.19431687715269663
2015-05-18,0.0025821596244131866
2015-05-19,-0.02216150576806057
2015-05-20,0.15054169816074675
2015-05-21,-0.12841613329269408
2015-05-22,0.198568872987477
2015-05-25,0.14180327868852383
2015-05-26,0.1006031549644272
2015-05-27,-0.2822671156004498
2015-05-28,0.1193346059449131
2015-05-29,-0.09520348837209328
2015-06-01,-0.28750220341970845
2015-06-02,0.1684719310505485
2015-06-03,-0.04278074866310229
2015-06-04,0.03885640025990959
2015-06-05,0.03125000000000031
2015-06-08,0.11138519924098989
2015-06-09,-0.3938419457381557
2015-06-10,0.1888079498084152
2015-06-11,-0.20609913395983015
2015-06-12,0.3716814159292025
2015-06-15,0.1466793168880428
2015-06-16,0.33666381522669003
2015-06-17,0.26259022309711166
2015-06-18,0.22786266296973684
2015-06-19,-0.4713124122391658
2015-06-23,-0.21509783183500658
2015-06-24,-0.16440743113388567
2015-06-25,-0.6350160256410251
2015-06-26,0.034487557757610934
2015-06-29,0.1314781300679247
2015-06-30,0.2527322404371563
2015-07-01,0.5540370607635157
2015-07-02,0.3351012866137411
2015-07-03,-0.032207229390327025
2015-07-06,0.04958609099773932
2015-07-07,0.0110441767068295
2015-07-08,-0.5225781133709518
2015-07-09,0.6241162200175578
2015-07-10,-0.13804692883852818
2015-07-13,-0.05207225757089908
2015-07-14,-0.20120077625939983
2015-07-15,-0.001995060686757741
2015-07-16,-0.9829812428950359
2015-07-17,0.2922626318347193
2015-07-20,-0.0735110775600771
2015-07-21,-0.09198350822263912
2015-07-22,-0.003974769633836486
2015-07-23,0.22390521603736924
2015-07-24,-0.41679571557620343
2015-07-27,-0.006667089292305493
2015-07-28,0.0928498381943907
2015-07-29,0.006717229294946829
2015-07-30,0.08288580314046884
2015-07-31,0.14824434824434693
2015-08-03,0.069774545639145
2015-08-04,0.004018951751363346
2015-08-05,-0.059728502233707195
2015-08-06,0.10757883871296307
2015-08-07,0.10432372505543483
2015-08-10,-0.0006087221183514457
2015-08-11,0.15373978629792662
2015-08-12,0.1582787933498837
2015-08-13,0.3035672423224169
2015-08-14,-0.13116531165311784
2015-08-17,-0.10555792617879449
2015-08-18,-0.24023067653641067
2015-08-19,-0.04213975032480417
2015-08-20,-0.7252977273909186
2015-08-21,0.08914105183832585
2015-08-24,0.3751674175088293
2015-08-25,0.30834757392160095
2015-08-26,-0.01459555641050196
2015-08-27,0.41219044501087315
2015-08-28,0.09217429443816533
2015-08-31,-0.3871082568263072
2015-09-01,-0.3416168123945402
2015-09-02,-0.032304202012232
2015-09-07,-0.02630520574114438
2015-09-08,-0.2904599756289219
2015-09-09,0.07283435216937473
2015-09-10,0.08431072582015997
2015-09-11,-0.0315954118873811
2015-09-14,-0.17886732493474294
2015-09-15,0.22983648332979367
2015-09-16,-0.05189650102910767
2015-09-17,0.029811629811629835
2015-09-18,0.05093167701863065
2015-09-21,0.14141414141414504
2015-09-22,-0.13419117647058953
2015-09-23,0.037395963972179265
2015-09-24,0.010058027079304772
2015-09-25,0.027793913937175337
2015-09-28,-0.04929577464788988
2015-09-29,0.3553240740740785
2015-09-30,0.029188419553870148
2015-10-08,0.09653733833958913
2015-10-09,-0.054191429465126686
2015-10-12,0.03805981959170898
2015-10-13,-0.4274831649831688
2015-10-14,0.03847354456063615
2015-10-15,-0.2261437908496739
2015-10-16,0.055509459010958176
2015-10-19,-0.10070434345128233
2015-10-20,0.23744270435447412
2015-10-21,0.06617761823006033
2015-10-22,0.22889723265192985
2015-10-23,0.022850870628144743
2015-10-26,0.1306902985074578
2015-10-27,-0.12084342939630535
2015-10-28,-0.23315064434898466
2015-10-29,-0.1517730496453943
2015-10-30,-0.13305322128851238
2015-11-02,-0.07092391304347384
2015-11-03,-0.06410761524173847
2015-11-04,0.2625763681268689
2015-11-05,0.06666666666666869
2015-11-06,0.06002886002886064
2015-11-09,0.24843559528647047
2015-11-10,0.21810493119266466
2015-11-11,-0.15042100756386528
2015-11-12,0.10071942446043257
2015-11-13,0.059952465834814145
2015-11-16,-0.13297054300248984
2015-11-17,-0.21242559523810037
2015-11-18,0.17928781744571118
2015-11-19,0.07070914696813872
2015-11-20,-0.0034114458791610104
2015-11-23,0.11680364748935584
2015-11-24,0.3080895008605876
2015-11-25,-0.18442837225513986
2015-11-26,-0.147455968688845
2015-11-27,-0.03261277428827861
2015-11-30,-0.2975444511593889
2015-12-01,-0.3476863097890629
2015-12-02,0.061205694348611075
2015-12-03,-0.12124028699014822
2015-12-04,0.0069322678648927934
2015-12-07,0.003925666559292371
2015-12-08,0.23739900673067518
2015-12-09,-0.06995357668343445
2015-12-10,-0.004674063322394492
2015-12-11,0.10452032184856638
2015-12-14,0.08425570518731046
2015-12-15,-0.16286561010179287
2015-12-16,0.015122497201842115
2015-12-17,0.2447988904299598
2015-12-18,-0.1369542619542638
2015-12-21,0.12332769862352053
2015-12-22,-0.04829577753018214
2015-12-23,0.0013572572545399973
2015-12-24,-0.2991071428571439
2015-12-25,-0.11930199430199133
2015-12-28,-0.13753766681015656
2015-12-29,0.16162758809817657
2015-12-30,0.0037979768469447416
2015-12-31,0.14154411764706173
2016-01-04,0.40187949143172885
2016-01-05,0.013716356107659079
2016-01-06,-0.0775701803309195
2016-01-07,0.12221166463056514
2016-01-08,0.054705882352936025
2016-01-11,-0.40757749712973623
2016-01-12,0.06872294372294077
2016-01-13,0.17453987730061593
2016-01-14,-0.10606371342630856
2016-01-15,-0.08918032786884728
2016-01-18,0.4584438549955791
2016-01-19,-0.10504033411522284
2016-01-20,-0.25849056603773596
2016-01-21,-0.06334828617437166
2016-01-22,0.11168032786884932
2016-01-25,-0.5987153482082501
2016-01-26,0.0736550527299449
2016-01-27,0.04082139310540542
2016-01-28,0.10910564942822833
2016-01-29,-0.01598837209302234
2016-02-01,0.3163398692810486
2016-02-02,-0.022068511198947392
2016-02-03,0.038257408226447506
2016-02-04,-0.10850439882697718
2016-02-05,-0.04651162790697692
2016-02-15,-0.005962059620597388
2016-02-16,0.08649275362318712
2016-02-17,0.14135206321334182
2016-02-18,0.054758999389868425
2016-02-19,-0.034013605442178164
2016-02-22,0.04007786556738856
2016-02-23,-0.09866666666666338
2016-02-24,-0.009200572480060412
2016-02-25,0.013422818791950623
2016-02-26,0.04022478556640273
2016-02-29,0.06094592244826866
2016-03-01,0.004567219152852495
2016-03-02,-0.21008435879575998
2016-03-03,0.12025316455695928
2016-03-04,-0.01751061515247318
2016-03-07,-0.10585537918870991
2016-03-08,0.3497830633330195
2016-03-09,0.15415314340665837
2016-03-10,-0.04708243284964406
2016-03-11,0.0756933744221876
2016-03-14,-0.1502186070157618
2016-03-15,-0.534295186067139
2016-03-16,-0.13014184397163064
2016-03-17,-0.16407982261641002
2016-03-18,-0.09564393939393794
2016-03-21,0.19040293881299286
2016-03-22,0.40293058865283427
2016-03-23,0.19102564102564107
2016-03-24,0.2159090909090944
2016-03-25,0.006558641975307453
2016-03-28,0.00745882673200466
2016-03-29,-0.29990467577541813
2016-03-30,-0.16991452991453
2016-03-31,-0.1723933649289116
2016-04-01,-0.020084761378294482
2016-04-05,-0.017405063291145592
2016-04-06,0.0835856573705139
2016-04-07,0.04691609977324502
2016-04-08,-0.09768435527834281
2016-04-11,0.14174581637268324
2016-04-12,-0.08586556169428788
2016-04-13,0.1529479768786157
2016-04-14,0.14795918367346558
2016-04-15,0.13156420669373856
2016-04-18,0.017185554171856382
2016-04-19,-0.02957159677565311
2016-04-20,-0.07100107422374649
2016-04-21,0.038180272108844365
2016-04-22,0.5508800615562183
2016-04-25,-0.030821917808220925
2016-04-26,0.17847134650413143
2016-04-27,-0.07935502644596965
2016-04-28,-0.21414041994750546
2016-04-29,-0.7719344492772718
2016-05-03,-0.1962365591397846
2016-05-04,-0.11379176379176258
2016-05-05,0.047989163546453016
2016-05-06,0.1412299352788609
2016-05-09,0.2426760093426773
2016-05-10,0.163841563608061
2016-05-11,0.1315398886827456
2016-05-12,0.028509869335559154
2016-05-13,-0.11079838514537485
2016-05-16,0.039717978848411606
2016-05-17,-0.06961053697173403
2016-05-18,-0.2006730810717522
2016-05-19,-0.15083402835696585
2016-05-20,-0.0679325443273943
2016-05-23,0.03459149546106153
2016-05-24,0.0745097626219017
2016-05-25,0.05658948609529946
2016-05-26,0.18265221017514743
2016-05-27,0.1123396123396125
2016-05-30,-0.0911512068717318
2016-05-31,-0.15715914935486078
2016-06-01,0.03879147812971438
2016-06-02,0.007886089813799804
2016-06-03,-0.03811047889995289
2016-06-06,-0.12592421219044256
2016-06-07,0.1370358716173707
2016-06-08,-0.09104848836086318
2016-06-13,-0.31156113816969966
2016-06-14,0.2734708392603136
2016-06-15,0.2306578366445936
2016-06-16,0.1394681960375383
2016-06-17,0.12358106660955409
2016-06-20,0.21276595744680832
2016-06-21,-0.4542686177301556
2016-06-22,-0.1348349514563133
2016-06-23,-0.3140713706407152
2016-06-24,-0.05555454363308466
2016-06-27,0.22418879056047103
2016-06-28,0.2741237137900707
2016-06-29,0.10535379846296267
2016-06-30,0.16591591591591767
2016-07-01,0.12327400952188496
2016-07-04,-0.2622322688213409
2016-07-05,0.007414970616930375
2016-07-06,0.004049139223985074
2016-07-07,0.026027635352394565
2016-07-08,-0.10672188398182611
2016-07-11,0.01689544200709381
2016-07-12,-0.19755702029713268
2016-07-13,-0.10154905335628028
2016-07-14,-0.13475981335633258
2016-07-15,-0.022292438761499313
2016-07-18,-0.016033959832330122
2016-07-19,0.10949262270400371
2016-07-20,0.02896086510544109
2016-07-21,0.12219098093642486
2016-07-22,0.03495171936268124
2016-07-25,0.006763745135536257
2016-07-26,-0.0551171688187452
2016-07-27,-0.11138185983546739
2016-07-28,-0.10792769042462966
2016-07-29,-0.19541612893835458
2016-08-01,0.006321865408400261
2016-08-02,0.1416122004357293
2016-08-03,0.04560545168617852
2016-08-04,0.0947145877378422
2016-08-05,0.16079630862761127
2016-08-08,0.03362908448110312
2016-08-09,-0.17090140060711004
2016-08-10,0.19918565900090918
2016-08-11,-0.11880211681926772
2016-08-12,-0.0516403904759695
2016-08-15,0.1777464530045269
2016-08-16,0.06640404610975545
2016-08-17,-0.2729553138916583
2016-08-18,0.2634592141079446
2016-08-19,0.15572827854225071
2016-08-22,-0.36810106975167867
2016-08-23,-0.004817646121994227
2016-08-24,0.2061921154003768
2016-08-25,-0.267776469928816
2016-08-26,-0.20942214510907362
2016-08-29,0.22482191780821867
2016-08-30,-0.04458027396558044
2016-08-31,-0.07278911564625899
2016-09-01,0.05057915565547908
2016-09-02,0.09505604971365894
2016-09-05,0.004458149779735653
2016-09-06,0.12012621140410079
2016-09-07,0.051814058956917
2016-09-08,-0.04218498177095734
2016-09-09,-0.020114942528735552
2016-09-12,-0.004979888910172085
2016-09-13,-0.03799019607843093
2016-09-14,-0.0885487528344679
2016-09-19,0.14300802703844695
2016-09-20,0.04571524966261847
2016-09-21,-0.1886395511921452
2016-09-22,0.02161949685534564
2016-09-23,0.0810970542062993
2016-09-26,-0.08175642891800358
2016-09-27,0.02285724660046113
2016-09-28,0.11459360473306227
2016-09-29,-0.14155192928777893
2016-09-30,0.03880090497737488
2016-10-10,0.13782878033919282
2016-10-11,-0.06037863294369411
2016-10-12,0.1907408457626788
2016-10-13,0.14387521850208548
2016-10-14,-0.11071428571428603
2016-10-17,-0.16347975882859855
2016-10-18,0.05691030334728262
2016-10-19,-0.1868907174250676
2016-10-20,0.03365525314603417
2016-10-21,-0.0479220779220787
2016-10-24,0.039947089947091424
2016-10-25,0.012707078313250283
2016-10-26,0.049973371205396425
2016-10-27,-0.04812834224598997
2016-10-28,0.04687165775401249
2016-10-31,0.038622319156670505
2016-11-01,-0.05101446678908808
2016-11-02,0.1993856954804737
2016-11-03,-0.16919191919191884
2016-11-04,0.14787581699346225
2016-11-07,-0.017040137897070654
2016-11-08,0.027649441191492187
2016-11-09,-0.3898339384560462
2016-11-10,0.44570707070707105
2016-11-11,-0.003864734299516309
2016-11-14,0.3332545178179372
2016-11-15,0.06324383909720921
2016-11-16,0.16356924061628764
2016-11-17,-0.43045454545454587
2016-11-18,-0.19438330627217465
2016-11-21,-0.515659209900049
2016-11-22,-0.084265150054623
2016-11-23,0.07010518286563013
2016-11-24,0.2171428571428577
2016-11-25,0.08001103872423887
2016-11-28,0.1841742489607029
2016-11-29,-0.021011000835205754
2016-11-30,-0.07557909477159262
2016-12-01,-0.0901557193516955
2016-12-02,0.057453672157809485
2016-12-05,-0.16934171307553395
2016-12-06,0.007513628642181042
2016-12-07,-0.135347344132685
2016-12-08,-0.08127285207687554
2016-12-09,-0.0432855279003407
2016-12-12,0.2732793522267213
2016-12-13,-0.04409159056835077
2016-12-14,0.24847129008202737
2016-12-15,0.026250345399280776
2016-12-16,-0.09037558685446057
2016-12-19,-0.2132867132867164
2016-12-20,0.28288498456902417
2016-12-21,-0.20593767366306165
2016-12-22,0.08713272543059825
2016-12-23,0.04223744292237404
2016-12-26,0.16575924075924187
2016-12-27,-0.3909673070441516
2016-12-28,0.10595941102142839
2016-12-29,-0.07981583161748002
2016-12-30,0.10016762036876545
2017-01-03,-0.1355862265224802
2017-01-04,0.2038275733927908
2017-01-05,0.00010079459741197273
2017-01-06,-0.0052319381498254075
2017-01-09,-0.08950651256650022
2017-01-10,0.013917424472512013
2017-01-11,0.008000162028598112
2017-01-12,-0.03154663786733603
2017-01-13,0.31719241066232007
2017-01-16,0.06376811594202676
2017-01-17,0.07173280614623169
2017-01-18,-0.1012949736332694
2017-01-19,0.061231846740140594
2017-01-20,-0.4203329065300888
2017-01-23,-0.13633762517882492
2017-01-24,-0.05619865891512829
2017-01-25,0.14795739611800238
2017-01-26,-0.0888804580258007
2017-02-03,0.2595233892321266
2017-02-06,0.2521270988630354
2017-02-07,0.03064392417546382
2017-02-08,-0.03073096058170733
2017-02-09,0.06964441170561876
2017-02-10,-0.18593280715233618
2017-02-13,-0.2428728070175408
2017-02-14,0.0507370360621197
2017-02-15,-0.23566433566433373
2017-02-16,0.1268156012681555
2017-02-17,0.24727828356783277
2017-02-20,0.025568181818178062
2017-02-21,-0.002453041771798184
2017-02-22,0.318536931818179
2017-02-23,-0.1482869936478177
2017-02-24,-0.3307713507058171
2017-02-27,0.10123966942148815
2017-02-28,-0.14865040650406153
2017-03-01,-0.19053040919282233
2017-03-02,-0.08791387762413937
2017-03-03,0.1259805431257805
2017-03-06,0.07020301832555136
2017-03-07,0.07351724137930929
2017-03-08,0.08442390409078054
2017-03-09,0.040331284313259975
2017-03-10,0.09947643979057512
2017-03-13,-0.1919308203041382
2017-03-14,0.315563839701771
2017-03-15,-0.013734607767154697
2017-03-16,0.10009859907152685
2017-03-17,-0.05092246322612811
2017-03-20,0.2023954409349981
2017-03-21,-0.3771713862646894
2017-03-22,-0.14614737800556524
2017-03-23,0.042177881246705295
2017-03-24,-0.021219763738023048
2017-03-27,-0.21020220630037623
2017-03-28,-0.013498735912282761
2017-03-29,0.18055179215681397
2017-03-30,-0.20977225428587257
2017-03-31,0.05931500183326151
2017-04-05,0.04356666319424209
2017-04-06,0.131935409810975
2017-04-07,-0.051282051282051176
2017-04-10,0.19298947087831775
2017-04-11,-0.1673469387755087
2017-04-12,0.3072453130256633
2017-04-13,0.07442782483330107
2017-04-14,-0.046218487394958124
2017-04-17,-0.11509111480224253
2017-04-18,0.11273864384463318
2017-04-19,-0.2867426675230157
2017-04-20,-0.13505170551010753
2017-04-21,0.036268238638740555
2017-04-24,0.14455537599893523
2017-04-25,-0.01822275529743534
2017-04-26,0.03708030460366718
2017-04-27,-0.0035829531545567977
2017-04-28,-0.01917596483601617
2017-05-02,-0.08050251256281288
2017-05-03,0.01302712865968339
2017-05-04,-0.1482372536319033
2017-05-05,0.14012636107003684
2017-05-08,0.23965252938170797
2017-05-09,-0.18086956521739184
2017-05-10,0.030529310169664453
2017-05-11,0.14864049856762118
2017-05-12,-0.012407310095172971
2017-05-15,-0.3686658506731966
2017-05-16,0.22716790775882634
2017-05-17,0.005181347150257733
2017-05-18,0.09593395887812593
2017-05-19,-0.2005374849411529
2017-05-22,0.25140378358838655
2017-05-23,-0.08999502500588913
2017-05-24,0.00321947784093932
2017-05-25,-0.26610444063274696
2017-05-26,0.14292748665318827
2017-05-31,0.18146102602060954
2017-06-01,-0.00216538650106244
2017-06-02,-0.02912621359223381
2017-06-05,0.22261646351644676
2017-06-06,-0.12866699761246164
2017-06-07,-0.5770508561206211
2017-06-08,-0.020804597701151513
2017-06-09,-0.0699300699300697
2017-06-12,-0.0800785148712459
2017-06-13,0.07734148696491748
2017-06-14,0.3023255813953451
2017-06-15,0.21989501312336351
2017-06-16,0.2108696672455056
2017-06-19,0.05785050862449989
2017-06-20,0.02307692307692553
2017-06-21,-0.034090909090905945
2017-06-22,-0.09675775822140309
2017-06-23,-0.2611581765504085
2017-06-26,-0.14709535988308198
2017-06-27,-0.006993006993008877
2017-06-28,0.08338668373879685
2017-06-29,-0.31808132649032567
2017-06-30,0.42995309250930813
2017-07-03,0.7672066476414291
2017-07-04,0.03556443556443506
2017-07-05,-0.0850100603621752
2017-07-06,0.29099345430441603
2017-07-07,-0.4352247093527679
2017-07-10,-0.7406071991273792
2017-07-11,0.04005602240896469
2017-07-12,0.06782437745740677
2017-07-13,0.11950617283950665
2017-07-14,0.2661746067248217
2017-07-17,-0.14813153961136016
2017-07-18,-0.06862745098039268
2017-07-19,-0.014718787395294919
2017-07-20,-0.3569230769230774
2017-07-21,-0.34594756854112696
2017-07-24,0.5379690949227409
2017-07-25,0.0862944162436539
2017-07-26,0.11812271434376304
2017-07-27,0.2909148464704035
2017-07-28,0.23138256087981177
2017-07-31,-0.38827212522576926
2017-08-01,-0.20137378132301825
2017-08-02,-0.2745274716063858
2017-08-03,-0.02646747182974625
2017-08-04,-0.04437938546562645
2017-08-07,-0.012957453255707171
2017-08-08,0.22379177644172915
2017-08-09,0.11487678584085481
2017-08-10,-0.26588687081699625
2017-08-11,0.5702080344286049
2017-08-14,0.11751431898411993
2017-08-15,-0.1988763457885936
2017-08-16,0.04665918959646505
2017-08-17,0.17185253883607765
2017-08-18,-0.99589424028886
2017-08-21,-0.08543663112430927
2017-08-22,0.38326738270209093
2017-08-23,-0.06918918918919013
2017-08-24,0.07356520131850608
2017-08-25,0.4704362545659713
2017-08-28,0.10322580645161542
2017-08-29,-0.46080531162990035
2017-08-30,0.10636815920398221
2017-08-31,-0.1474933517187033
2017-09-01,0.051029313619799496
2017-09-04,-0.09626363425389153
2017-09-05,0.08373239770518155
2017-09-06,-0.11803482587064675
2017-09-07,0.23314221612862834
2017-09-08,0.06976744186046327
2017-09-11,0.057553956834537005
2017-09-12,0.13802351970291155
2017-09-13,0.3339743589743576
2017-09-14,-0.17174367412282554
2017-09-15,-0.256095111860868
2017-09-18,0.05813953488371716
2017-09-19,-0.059548559548559976
2017-09-20,-0.5353095339283189
2017-09-21,0.10477761944048565
2017-09-22,0.5046416234887777
2017-09-25,-0.07804003239615565
2017-09-26,0.02579907402242419
2017-09-27,0.2994695033121696
2017-09-28,-0.0411340427051354
2017-09-29,-0.42824074074074603
2017-10-09,-0.004022947463639948
2017-10-10,-0.06932417637105616
2017-10-11,0.006590757552443739
2017-10-12,-0.13694109882857633
2017-10-13,0.09284696784697127
2017-10-16,0.008379403525298677
2017-10-17,0.13323013415892618
2017-10-18,-0.1434791312180978
2017-10-19,0.1088246199480927
2017-10-20,-0.42407592407592565
2017-10-23,0.3264684111986784
2017-10-24,-0.19959514170040704
2017-10-25,0.14781201632193883
2017-10-26,0.1256581386725983
2017-10-27,0.4307095343680709
2017-10-30,-0.5680672268907576
2017-10-31,0.20000000000000662
2017-11-01,-0.07200123342584235
2017-11-02,-0.2107446276861567
2017-11-03,-0.1694353754561146
2017-11-06,0.32731829573934895
2017-11-07,-0.08461538461538869
2017-11-08,0.029473317056158875
2017-11-09,0.039059738423470845
2017-11-10,0.3481249165888129
2017-11-13,-0.06337271750805695
2017-11-14,-0.013513513513512548
2017-11-15,0.14933752526386257
2017-11-16,0.14124212248039486
2017-11-17,-0.35866593767085764
2017-11-20,0.2719851576994425
2017-11-21,0.07038555142820378
2017-11-22,-0.1978929909699576
2017-11-23,-0.17535807111651647
2017-11-24,0.09775171065493825
2017-11-27,-0.43776223776223533
2017-11-28,-0.1544330135244483
2017-11-29,-0.05423585019997679
2017-11-30,0.08969172827451366
2017-12-01,0.03721033868092455
2017-12-04,0.3532189632909033
2017-12-05,0.12165736115192796
2017-12-06,0.20047694753576956
2017-12-07,0.008724176271101804
2017-12-08,-0.024175094724680088
2017-12-11,-0.3178294053240688
2017-12-12,-0.04999208795751539
2017-12-13,-0.15185804658942065
2017-12-14,-0.023649549405429127
2017-12-15,-0.041908886037435054
2017-12-18,-0.04088888320300281
2017-12-19,0.10463585989565695
2017-12-20,0.06057423379423155
2017-12-21,-0.0647482014388499
2017-12-22,0.020948234155782057
2017-12-25,0.17234769995855673
2017-12-26,-0.06311515748030944
2017-12-27,-0.12998315553060136
2017-12-28,0.029965592743199196
2017-12-29,0.3293832293832296
2018-01-02,0.03350529459679832
2018-01-03,-0.14145281456953981
2018-01-04,0.13053613053613106
2018-01-05,0.10940947436728991
2018-01-08,-0.5007507507507529
2018-01-09,-0.04137931034482879
2018-01-10,0.168931262845399
2018-01-11,0.050964187327822645
2018-01-12,-0.0746268656716392
2018-01-15,0.32622739018088087
2018-01-16,-0.09589041095890512
2018-01-17,-0.05825496342737773
2018-01-18,-0.16611570247933802
2018-01-19,-0.008547008547007646
2018-01-22,-0.3473001871157455
2018-01-23,0.13984645491495054
2018-01-24,0.12041467304625558
2018-01-25,0.29999999999999793
2018-01-26,0.008547008547007646
2018-01-29,0.48535851122058105
2018-01-30,0.006043956043954156
2018-01-31,-0.14692982456140882
2018-02-01,-0.32422360248446846
2018-02-02,-0.007092198581559344
2018-02-05,-0.46269841269841117
2018-02-06,-0.11194690265486715
2018-02-07,0.1548742138364801
2018-02-08,0.10727444994209448
2018-02-09,-0.11359745659085532
2018-02-12,0.47717086834733485
2018-02-13,0.06958049044112846
2018-02-14,-0.2647226986849627
2018-02-22,0.2044491525423772
2018-02-23,0.09061446720248903
2018-02-26,-0.48586411308709454
2018-02-27,0.031201363670050927
2018-02-28,0.3945058057207604
2018-03-01,-0.23261278195489207
2018-03-02,0.896216920253394
2018-03-05,0.28171916396820895
2018-03-06,0.011946298543686854
2018-03-07,-0.25042559844352746
2018-03-08,0.030131508546652766
2018-03-09,-1.1361037094697795
2018-03-12,-0.12183544303797794
2018-03-13,-0.09425951086956366
2018-03-14,-0.07211051030753676
2018-03-15,0.12609238451934887
2018-03-16,0.14218419940853178
2018-03-19,0.10536093418259318
2018-03-20,-0.004425930747201337
2018-03-21,0.06696683819325544
2018-03-22,-0.22576079263977697
2018-03-23,0.6241806554756225
2018-03-26,0.11419034786869277
2018-03-27,0.17750974134653916
2018-03-28,0.012218711983932267
2018-03-29,0.11778426278918606
2018-03-30,-0.3761114208694573
2018-04-02,-0.2815576945569392
2018-04-03,-0.19389126401548568
2018-04-04,0.10341333948277005
2018-04-09,0.07645019382598627
2018-04-10,-0.3478555593924902
2018-04-11,0.03728303767854714
2018-04-12,0.0598412698412683
2018-04-13,-0.12091057797164431
2018-04-16,-0.13867568417741463
2018-04-17,0.30968970642884397
2018-04-18,0.1378186129223447
2018-04-19,-0.020555555555555716
2018-04-20,-0.05906593406593455
2018-04-23,0.09612794612794429
2018-04-24,-0.349982746721885
2018-04-25,-0.028745644599300374
2018-04-26,0.06593567251461882
2018-04-27,0.14995678478824415
2018-05-02,-0.11033546635640867
2018-05-03,0.31305488297013867
2018-05-04,-0.08052076466710557
2018-05-07,0.07142387804718094
2018-05-08,0.11383497900351858
2018-05-09,0.013723961234266766
2018-05-10,-0.01352353196819664
2018-05-11,0.0641536273115201
2018-05-14,-0.1593680975703472
2018-05-15,-0.35727227431263375
2018-05-16,0.4649798734905132
2018-05-17,0.010633484162895022
2018-05-18,-0.06690619537774307
2018-05-21,0.07393162393162626
2018-05-22,0.1441863589795287
2018-05-23,-0.5938669438669459
2018-05-24,0.06669704702880266
2018-05-25,-0.01069164537798966
2018-05-28,-0.1350311850311878
2018-05-29,0.08177278401997341
2018-05-30,0.1406146485093835
2018-05-31,-0.19945700064302835
2018-06-01,0.007083156254426015
2018-06-04,0.17169192313701015
2018-06-05,0.06400966183575002
2018-06-06,-0.024968644028424074
2018-06-07,0.03286063826988721
2018-06-08,0.6053100061387315
2018-06-11,-0.08493612819616078
2018-06-12,-0.2832015810276683
2018-06-13,0.19890249050231743
2018-06-14,0.0073985728435957965
2018-06-15,-0.8903794037940358
2018-06-19,0.22135231316726275
2018-06-20,0.27474747474747446
2018-06-21,-0.20335968379446495
2018-06-22,0.34575955265610425
2018-06-25,0.2722340721506074
2018-06-26,-0.22419354838709998
2018-06-27,0.045913682277319776
2018-06-28,0.0951298701298699
2018-06-29,-0.4253910638665616
2018-07-02,0.27477615601619143
2018-07-03,-0.005607776116213499
2018-07-04,-0.2389360561870664
2018-07-05,0.041622411046202165
2018-07-06,0.23508771929824654
2018-07-09,-0.3256784434203776
2018-07-10,-0.034255614998469276
2018-07-11,0.055295293216886324
2018-07-12,-0.0946358039033456
2018-07-13,-0.2955465587044569
2018-07-16,0.017936507936501922
2018-07-17,0.10801298345782472
2018-07-18,-0.02601560936561832
2018-07-19,-0.014843749999998865
2018-07-20,0.19613135402609494
2018-07-23,0.08418604651163755
2018-07-24,-0.10828352933616057
2018-07-25,-0.016118421052630928
2018-07-26,-0.003691275167784308
2018-07-27,0.016731982124437623
2018-07-30,0.04881794269598228
2018-07-31,0.05199101502837891
2018-08-01,0.3947311141879226
2018-08-02,0.018685902776221
2018-08-03,0.08324017047929136
2018-08-06,0.0479051017014798
2018-08-07,0.0649680492991044
2018-08-08,-0.3718144475212558
2018-08-09,0.07867349466230122
2018-08-10,-0.18531801376989476
2018-08-13,0.18181818181817383
2018-08-14,-0.0026315789473687
2018-08-15,-0.07661564625850686
2018-08-16,0.09199079245794514
2018-08-17,0.09656275436617105
2018-08-20,-0.42373398413666596
2018-08-21,-0.13300395256916825
2018-08-22,0.2043455313159796
2018-08-23,-0.05199357608326406
2018-08-24,-0.053829552298734665
2018-08-27,0.22352579537886252
2018-08-28,0.06876907712432899
2018-08-29,-0.1649290426988708
2018-08-30,-0.28445274022022454
2018-08-31,0.05154303100550729
2018-09-03,-0.3831986956199506
2018-09-04,0.1480376923462489
2018-09-05,0.13272193196851895
2018-09-06,0.20078740157480643
2018-09-07,0.115399189669745
2018-09-10,0.6143445331164541
2018-09-11,-0.17797952372871745
2018-09-12,-0.04548776032152061
2018-09-13,0.16317991631798795
2018-09-14,-0.25247967306627994
2018-09-17,-0.4716977083512175
2018-09-18,0.13777276594060978
2018-09-19,-0.02672420319479127
2018-09-20,-0.2968204693133808
2018-09-21,0.1488979029542306
2018-09-25,0.2509343412893954
2018-09-26,-0.2275673509793307
2018-09-27,0.07777114130705559
2018-09-28,0.10746254252418662
2018-10-08,0.10243651338366681
2018-10-09,-0.04956822107081323
2018-10-10,0.1800542411747862
2018-10-11,0.03726239443132507
2018-10-12,0.08262962337443015
2018-10-15,-0.19391775424772345
2018-10-16,-0.0741496598639467
2018-10-17,-0.01204039611726683
2018-10-18,-0.18304599263972615
2018-10-19,-0.13789957670412994
2018-10-22,0.237299289286657
2018-10-23,-0.1020408163265306
2018-10-24,-0.08306216103462566
2018-10-25,0.023524670145518997
2018-10-26,0.2637684057898524
2018-10-29,-0.27054463422494585
2018-10-30,0.41746854182087634
2018-10-31,-0.003825920612149876
2018-11-01,0.23868412902083647
2018-11-02,0.05211179244328831
2018-11-05,0.151543304029507
2018-11-06,-0.39292125811866296
2018-11-07,0.13910750928595716
2018-11-08,-0.024614996213075613
2018-11-09,-0.501098901098904
2018-11-12,-0.18278309227864023
2018-11-13,0.1946150800384644
2018-11-14,-0.14596347336798363
2018-11-15,-0.3573762838468715
2018-11-16,0.5329983249581243
2018-11-19,0.11349761349761356
2018-11-20,-0.08840199507708367
2018-11-21,0.19847700274139357
2018-11-22,0.11712749615975442
2018-11-23,-0.2742367966313768
2018-11-26,0.338582179219628
2018-11-27,0.1325787019043931
2018-11-28,-0.23823787579547842
2018-11-29,0.09318996415770554
2018-11-30,-0.14698706729855407
2018-12-03,-0.5091734926680848
2018-12-04,-0.2584178911185049
2018-12-05,0.21637912898055234
2018-12-06,-0.021989645382175137
2018-12-07,0.14563294637921395
2018-12-10,0.10702507698502396
2018-12-11,0.016108552240148816
2018-12-12,-0.1689398847764378
2018-12-13,-0.002400598520262854
2018-12-14,0.32175925925926185
2018-12-17,0.055629728526923994
2018-12-18,0.0828030209236086
2018-12-19,-0.06980428978022918
2018-12-20,-0.016072183843226756
2018-12-21,-0.6197289156626515
2018-12-24,0.4238095238095246
2018-12-25,0.0638691107407989
2018-12-26,0.09152438086448124
2018-12-27,0.20296242774566314
2018-12-28,0.34486332426480026
2019-01-02,-0.6020725388601045
2019-01-03,-0.03133822699040141
2019-01-04,0.20677361853832307
2019-01-07,-0.24583333333333163
2019-01-08,-0.08005865102639462
2019-01-09,0.11979405784744526
2019-01-10,0.06856247201074725
2019-01-11,-0.195951107715809
2019-01-14,0.21578366445916347
2019-01-15,0.048272195640620026
2019-01-16,0.19855755078010057
2019-01-17,-0.1141522988505736
2019-01-18,-0.04645354645355109
2019-01-21,-0.19127386053759593
2019-01-22,0.05665204678362339
2019-01-23,-0.21627906976744096
2019-01-24,0.039011437908496524
2019-01-25,0.1255367149406916
2019-01-28,-0.07867647058823558
2019-01-29,-0.04800724637681143
2019-01-30,0.06428571428571284
2019-01-31,0.08714596949890695
2019-02-01,0.030052523407169997
2019-02-11,0.4919303797468379
2019-02-12,-0.01916565081944937
2019-02-13,0.049798792756539416
2019-02-14,-0.10185185185184767
2019-02-15,-0.15155993431855594
2019-02-18,-0.6082374863458201
2019-02-19,-0.07015703477652636
2019-02-20,0.19915078707539338
2019-02-21,-0.014646464646465664
2019-02-22,0.011271850512357504
2019-02-25,0.40714043993231397
2019-02-26,0.04592819786874115
2019-02-27,-0.29061624649859913
2019-02-28,0.0875855327468232
2019-03-01,0.5197687138615416
2019-03-04,-0.10291316526610311
2019-03-05,0.12890173410404615
2019-03-06,0.08101731601731739
2019-03-07,0.0019401589527815802
2019-03-08,-0.5106582938186193
2019-03-11,-0.10457179261596379
2019-03-12,-0.012213740458014655
2019-03-13,-0.0913556618819794
2019-03-14,0.0028985507246379744
2019-03-15,-0.17459472476773275
2019-03-18,0.044805830156213464
2019-03-19,-0.25759758029670154
2019-03-20,0.20135566188197856
2019-03-21,-0.16224489795918373
2019-03-22,0.27933560692181175
2019-03-25,-0.033897448850720095
2019-03-26,0.0737661230146045
2019-03-27,-0.15738636363636566
2019-03-28,0.3540749633186604
2019-03-29,-0.06321839080459672
2019-04-01,0.08534850640113767
2019-04-02,0.2980653997603151
2019-04-03,0.03381635028112394
2019-04-04,-0.480229161635814
2019-04-08,-0.05270595309681261
2019-04-09,-0.033831969392487414
2019-04-10,-0.4595829230258365
2019-04-11,-0.05983379214158857
2019-04-12,0.34673242960966644
2019-04-15,0.10533753204418139
2019-04-16,-0.20113043662255198
2019-04-17,0.39030608383748977
2019-04-18,0.11664244186046765
2019-04-19,-0.07101990049750684
2019-04-22,-0.06702006815600307
2019-04-23,0.2220542231491156
2019-04-24,-0.16111215715809496
2019-04-25,0.07721259124087371
2019-04-26,-0.10224849777088847
2019-04-29,-0.14533373301358588
2019-04-30,0.02038969656753439
2019-05-06,0.177975093538837
2019-05-07,-0.11723827617238222
2019-05-08,0.051329622758196095
2019-05-09,0.5528256704980795
2019-05-10,0.049423124130594964
2019-05-13,-0.20366035326665327
2019-05-14,0.026484018264840856
2019-05-15,0.1057713407943809
2019-05-16,-0.435297541102864
2019-05-17,-0.19152091420595996
2019-05-20,0.10745211230648269
2019-05-21,0.08648233486943038
2019-05-22,0.02717566516849651
2019-05-23,0.034841151650534696
2019-05-24,0.15177027247511765
2019-05-27,0.12492362006925105
2019-05-28,-0.1969670035143343
2019-05-29,0.12181599248408924
2019-05-30,0.08766382200548621
2019-05-31,-0.07124966693311782
2019-06-03,-0.2341469210401243
2019-06-04,0.21339812194395932
2019-06-05,-0.44477746577235955
2019-06-06,-0.08883360810174366
2019-06-10,0.006259748648071642
2019-06-11,-0.010457178030834673
2019-06-12,-0.2751356755212782
2019-06-13,0.30756256183201114
2019-06-14,-0.17654220779220892
2019-06-17,0.15314101759152618
2019-06-18,0.09058797630483842
2019-06-19,0.2304143126177037
2019-06-20,-0.2623277454974481
2019-06-21,0.32159630037859055
2019-06-24,-0.11494282609820522
2019-06-25,-0.03688417190776005
2019-06-26,-0.1806973982511078
2019-06-27,0.25628719106979664
2019-06-28,-0.16837849907161717
2019-07-01,0.11226930963773074
2019-07-02,0.03556712209932846
2019-07-03,0.044228154297574346
2019-07-04,-0.09790209790209796
2019-07-05,-0.0387411015361544
2019-07-08,-0.3947368421052635
2019-07-09,-0.01033027789902468
2019-07-10,0.036610486891384963
2019-07-11,-0.06722689075630012
2019-07-12,0.0480657127715954
2019-07-15,0.38824884792626574
2019-07-16,-0.008609644852150721
2019-07-17,0.00833333333333401
2019-07-18,0.08335592301436429
2019-07-19,0.010617760617759636
2019-07-22,-0.1502970406973489
2019-07-23,-0.08534939600408205
2019-07-24,0.03539823008849554
2019-07-25,-0.05031706644609747
2019-07-26,0.08712600084281487
2019-07-29,-0.16079131340175642
2019-07-30,0.15592767867977447
2019-07-31,-0.09095378564405077
2019-08-01,0.02928607340372085
2019-08-02,0.07256201229347464
2019-08-05,0.3917236263445113
2019-08-06,-0.046457851587138554
2019-08-07,0.06925418569254155
2019-08-08,0.05557763645999022
2019-08-09,-0.2555552517713754
2019-08-12,-0.40282269139751786
2019-08-13,0.09351220737123254
2019-08-14,0.2477347576552459
2019-08-15,-0.11634294333228892
2019-08-16,0.10065456281742995
2019-08-19,0.15526473610039765
2019-08-20,-0.32463325097603357
2019-08-21,-0.5623593137181571
2019-08-22,0.12526991666323295
2019-08-23,0.0196174377224172
2019-08-26,0.4052170450019945
2019-08-27,0.3240282627041523
2019-08-28,0.2929259259259254
2019-08-29,-0.05960264900662096
2019-08-30,-0.008467741935483011
2019-09-02,-0.46489662353116584
2019-09-03,-0.21799253274332667
2019-09-04,0.07629268292682684
2019-09-05,0.12328767123287662
2019-09-06,0.134179124049305
2019-09-09,0.009781985083191932
2019-09-10,0.0349007956835014
2019-09-11,-0.06002822011690977
2019-09-12,-0.26673029418369665
2019-09-16,-0.3917998988602324
2019-09-17,-0.004761904761905439
2019-09-18,0.07600151786198178
2019-09-19,-0.09791963522370697
2019-09-20,0.1813214108296088
2019-09-23,0.3192819474033462
2019-09-24,0.0422374429223743
2019-09-25,0.2717282717282699
2019-09-26,0.05076628352489743
2019-09-27,-0.055219828341216685
2019-09-30,0.02254186346071166
2019-10-08,0.22487967419474295
2019-10-09,-0.37247227658186166
2019-10-10,0.013888888888893992
2019-10-11,0.022469245590634075
2019-10-14,-0.12905162064825781
2019-10-15,-0.3274008050603776
2019-10-16,0.024646189625345274
2019-10-17,0.018377483443705076
2019-10-18,0.0482051282051281
2019-10-21,0.23701885817617563
2019-10-22,0.23356411122368043
2019-10-23,0.023276849785922253
2019-10-24,0.07732958726336622
2019-10-25,-0.12880503144654334
2019-10-28,-0.29314130715576436
2019-10-29,-0.2537888978566879
2019-10-30,0.05910522172657995
2019-10-31,-0.004481905144161857
2019-11-01,0.12516113910699528
2019-11-04,-0.08057601738920794
2019-11-05,0.2501727431613984
2019-11-06,0.11218006085556154
2019-11-07,-0.19488013632314938
2019-11-08,-0.09666930676559633
2019-11-11,0.4732894407867314
2019-11-12,-0.01567876133875193
2019-11-13,-0.23397317376542234
2019-11-14,0.12865497076023946
2019-11-15,0.14867478102604811
2019-11-18,-0.2906464427591186
2019-11-19,-0.16759094942325098
2019-11-20,0.19756804037970682
2019-11-21,0.08247422680412209
2019-11-22,-0.16359967715899848
2019-11-25,-0.08127033710789898
2019-11-26,0.12441130298273383
2019-11-27,-0.13882594640321827
2019-11-28,-0.18303288602200143
2019-11-29,0.11159420289854852
2019-12-02,0.01105337458324368
2019-12-03,0.07379329531228215
2019-12-04,-0.031931895015057055
2019-12-05,0.16435452550474583
2019-12-06,-0.10636033600468414
2019-12-09,0.04805758237550942
2019-12-10,-0.24266157699570945
2019-12-11,0.15687001346020718
2019-12-12,-0.010815733836537604
2019-12-13,0.10069605224360043
2019-12-16,-0.00706521052122883
2019-12-17,0.1846056307541108
2019-12-18,-0.16499760646843664
2019-12-19,-0.16265755180516744
2019-12-20,-0.15996718621821204
2019-12-23,0.03229310685364479
2019-12-24,-0.08386028304728049
2019-12-25,0.015043626516899583
2019-12-26,0.12785923753665357
2019-12-27,0.1695134575569371
2019-12-30,0.17824395665462922
2019-12-31,0.026364692218355752
2020-01-02,0.09678211741586949
2020-01-03,-0.04635083226632336
2020-01-06,-0.06081780538302291
2020-01-07,-0.3470246195719443
2020-01-08,0.1881987577639742
2020-01-09,0.11175523349436069
2020-01-10,0.3333638192793104
2020-01-13,0.007246376811595057
2020-01-14,0.1954098122526064
2020-01-15,-0.22679765886287617
2020-01-16,-0.19150216206053636
2020-01-17,-0.5297937356760867
2020-01-20,-0.06206896551724349
2020-01-21,0.06811530582382194
2020-01-22,0.25955128205127964
2020-01-23,0.061811145076702136
2020-02-03,0.5743257064375682
2020-02-04,0.32117827725813236
2020-02-05,-0.17368072630981607
2020-02-06,-0.32777393310265074
2020-02-07,-0.054356810371078146
2020-02-10,-0.5801794508534045
2020-02-11,-0.5746173331312678
2020-02-12,0.09417704983922856
2020-02-13,0.35774848781003293
2020-02-14,0.10503548167590004
2020-02-17,0.2130108144320026
2020-02-18,0.4160997373667112
2020-02-19,-0.0772009408602159
2020-02-20,-0.35595940319222896
2020-02-21,-0.09398645957785343
2020-02-24,0.1374418604651163
2020-02-25,-0.10059171597633378
2020-02-26,0.0597158218125959
2020-02-27,0.1193181818181821
2020-02-28,0.4050391296048839
2020-03-02,0.26793103448275957
2020-03-03,8.582047424860926e-16
2020-03-04,0.04994824016563093
2020-03-05,0.020588235294117675
2020-03-06,-0.5370461947717553
2020-03-09,-0.6017241379310356
2020-03-10,-0.013157894736843288
2020-03-11,-0.0781228433402291
2020-03-12,-0.02513368983957308
2020-03-13,0.38344321187477837
2020-03-16,0.14263205475913832
2020-03-17,0.11799660441426105
2020-03-18,0.051419302514187026
2020-03-19,0.09319793681495994
2020-03-20,-0.32550067797957893
2020-03-23,0.17215858088193065
2020-03-24,-0.12980278282274926
2020-03-25,-0.0211027408100612
2020-03-26,-0.14453087894529998
2020-03-27,0.2142362648525452
2020-03-30,-0.15619233738759838
2020-03-31,0.021527647028491543
2020-04-01,0.2160435915525755
2020-04-02,0.061512199492695256
2020-04-03,-0.13032263265018065
2020-04-07,-0.0049771145759670635
2020-04-08,0.00038764562903646207
2020-04-09,-0.4412633132974819
2020-04-10,-0.07204005281689814
2020-04-13,0.009856662330203957
2020-04-14,0.013561750279247303
2020-04-15,-0.07695121951219994
2020-04-16,0.4055311793644505
2020-04-17,0.02982088414633851
2020-04-20,-0.06761647511607766
2020-04-21,0.028261545638314026
2020-04-22,0.042616822429909884
2020-04-23,-0.41170676797523953
2020-04-24,0.011585365853659328
2020-04-27,0.1570918532943859
2020-04-28,0.19692005242463959
2020-04-29,0.03233267251958675
2020-04-30,0.18776797594993114
2020-05-06,0.16184210526316067
2020-05-07,-0.225071225071226
2020-05-08,-0.19487577639751302
2020-05-11,0.15974663764718977
2020-05-12,0.04031768391907087
2020-05-13,-0.21303258145363882
2020-05-14,0.2460862924780408
2020-05-15,-0.1480149010002088
2020-05-18,-0.18278602023713303
2020-05-19,0.018336698288021244
2020-05-20,0.08748991121872912
2020-05-21,-0.08676495997234784
2020-05-22,0.24719217700309007
2020-05-25,-0.04333868378812063
2020-05-26,-0.07806644222829004
2020-05-27,0.06428196032058542
2020-05-28,0.005043031858670256
2020-05-29,-0.1360644175384994
2020-06-01,0.13884430176564644
2020-06-02,0.07599768652400189
2020-06-03,-0.1889834572045037
2020-06-04,0.030295411690760193
2020-06-05,0.05874704491725956
2020-06-08,-0.14476379663541722
2020-06-09,-0.0030885597226574836
2020-06-10,0.12516676773801574
2020-06-11,-0.06395348837209155
2020-06-12,0.02994740302432407
2020-06-15,0.1630623520126269
2020-06-16,-0.04954301922471334
2020-06-17,0.03171355498721978
2020-06-18,-0.13359980620155126
2020-06-19,-0.1275274984571801
2020-06-22,-0.1667953667953686
2020-06-23,0.17128482972136336
2020-06-24,-0.17251051893408234
2020-06-29,0.1954861111111099
2020-06-30,0.035286951224818446
2020-07-01,0.28408859987807256
2020-07-02,-0.2584558823529397
2020-07-03,0.14321665522763344
2020-07-06,-0.03745143745143472
2020-07-07,0.17479314420803777
2020-07-08,-0.40797646289636635
2020-07-09,0.1187500000000018
2020-07-10,0.16550310283688205
2020-07-13,0.3771129532718889
2020-07-14,-0.17068713450292797
2020-07-15,0.13931237844281014
2020-07-16,0.09729729729729343
2020-07-17,-0.2634313423645366
2020-07-20,-0.4432457452111342
2020-07-21,0.19548872180451657
2020-07-22,0.12565656565656566
2020-07-23,-0.002957674655787154
2020-07-24,0.18719211822660703
2020-07-27,0.078671034946238
2020-07-28,0.06403940886699308
2020-07-29,-0.08857142857142743
2020-07-30,-0.17603896904673727
2020-07-31,-0.07497852497239221
2020-08-03,-0.19600183823529554
2020-08-04,-0.4421906693711991
2020-08-05,0.1714285714285704
2020-08-06,0.03362242332830591
2020-08-07,-0.1920400948521796
2020-08-10,0.15707740465912068
2020-08-11,0.14144660576788837
2020-08-12,-0.3435422994749442
2020-08-13,0.22052418280539482
2020-08-14,0.2008837767983222
2020-08-17,-0.03096652865404301
2020-08-18,0.09384751187917036
2020-08-19,0.27644273237537687
2020-08-20,-0.285123316066501
2020-08-21,-0.02144041696280531
2020-08-24,0.0894222122302179
2020-08-25,0.1353383458646626
2020-08-26,-0.03602247641982798
2020-08-27,0.04898178882210562
2020-08-28,-0.029478458049885588
2020-08-31,0.09197198275861904
2020-09-01,-0.08046029708417315
2020-09-02,-0.13800099529150542
2020-09-03,0.2303609341825924
2020-09-04,0.18942961800104302
2020-09-07,-0.11234289397357286
2020-09-08,-0.1787312597896621
2020-09-09,0.1925067336500939
2020-09-10,-0.15231259968102398
2020-09-11,-0.08620153431474038
2020-09-14,0.10684953675608044
2020-09-15,0.17385321100917372
2020-09-16,0.0046602612047635245
2020-09-17,-0.014354066985645054
2020-09-18,-0.06962264150943302
2020-09-21,-0.27259994907054186
2020-09-22,0.034291187739466836
2020-09-23,-0.060031840950569425
2020-09-24,0.06462585034013671
2020-09-25,-0.189329073482429
2020-09-28,0.15859728506787718
2020-09-29,-0.13752312690296514
2020-09-30,-0.23164034228788086
2020-10-09,-0.06462585034013803
2020-10-12,0.5623638993530764
2020-10-13,0.0670329670329659
2020-10-14,0.026741872938334892
2020-10-15,0.21658060814687527
2020-10-16,-0.03322259136212488
2020-10-19,-0.5442375750115421
2020-10-20,0.030740312319259985
2020-10-21,-0.017305554212791775
2020-10-22,0.010541621228642162
2020-10-23,-0.014747888342668908
2020-10-26,0.05817949332694064
2020-10-27,-0.344354475933425
2020-10-28,0.18904701708600005
2020-10-29,-0.005082852355237533
2020-10-30,-0.04681625015302585
2020-11-02,0.15061487885060443
2020-11-03,0.22019124989422093
2020-11-04,-0.27087953735156034
2020-11-05,0.34429492570787334
2020-11-06,0.1408118344603314
2020-11-09,0.010408376963348703
2020-11-10,0.18339081099121324
2020-11-11,0.26344865352402913
2020-11-12,-0.562295612756998
2020-11-13,-0.05296954904695594
2020-11-16,-0.12744055944055938
2020-11-17,-0.3283906269579394
2020-11-18,-0.27056387565237194
2020-11-19,0.3264874964070111
2020-11-20,0.11905206776283296
2020-11-23,0.03927926911798113
2020-11-24,0.26273195955145434
2020-11-25,0.08141110561073041
2020-11-26,-0.2906214585612263
2020-11-27,-0.2457522584022495
2020-11-30,0.044637050279312945
2020-12-01,-0.0645689856472218
2020-12-02,0.20819500231916638
2020-12-03,0.13167991584244534
2020-12-04,0.12065762209684908
2020-12-07,-0.13851084767603358
2020-12-08,-0.18187602922463475
2020-12-09,-0.3476141901847432
2020-12-10,0.10690072639225273
2020-12-11,0.19719753930280182
2020-12-14,0.17514619883041296
2020-12-15,0.19068477528381225
2020-12-16,0.3357514450867082
2020-12-17,-0.1119151590767335
2020-12-18,-0.13488317205569755
2020-12-21,0.23803418803418352
2020-12-22,0.18643221273077779
2020-12-23,-0.1343333333333364
2020-12-24,0.09744097890334347
2020-12-25,-0.08627316706797417
2020-12-28,-0.40911972369772664
2020-12-29,-0.39447217180883065
2020-12-30,0.1776894977168942
2020-12-31,0.04691551405564327
2021-01-04,0.060141689096543244
2021-01-05,0.07974772430053925
2021-01-06,0.18169876100910387
2021-01-07,-0.34102792010875027
2021-01-08,-0.23226973371065446
2021-01-11,0.13951598811812038
2021-01-12,0.02439579646180399
2021-01-13,0.22848764139087
2021-01-14,0.15971400924631612
2021-01-15,0.1584031584031594
2021-01-18,-0.23637257869249617
2021-01-19,0.013059819452737636
2021-01-20,-0.23252045068683735
2021-01-21,-0.030571665285831287
2021-01-22,0.015951919566375865
2021-01-25,0.15547889610389787
2021-01-26,-0.0009263946542473244
2021-01-27,-0.18793639060642464
2021-01-28,0.03864276189064959
2021-01-29,-0.11483153457502474
2021-02-01,-0.15005965163445517
2021-02-02,0.00214818321694726
2021-02-03,0.08739109644160728
2021-02-04,0.09769152792283542
2021-02-05,-0.0029436758557378276
2021-02-08,0.03626472563022681
2021-02-09,0.07863638286173477
2021-02-10,0.13904750146609562
2021-02-18,-0.19919231260375364
2021-02-19,0.13489814342347728
2021-02-22,0.02133844631370596
2021-02-23,0.023127966676355444
2021-02-24,-0.12788784396612796
2021-02-25,0.09160936666985679
2021-02-26,0.07588285639861694
2021-03-01,0.015142802376843595
2021-03-02,-0.12366796856164765
2021-03-03,0.15673013427250615
2021-03-04,-0.024089856643185394
2021-03-05,-0.2878621378621372
2021-03-08,0.10166833500166852
2021-03-09,-0.08029708520179303
2021-03-10,-0.032366771159875206
2021-03-11,0.13830586363837233
2021-03-12,0.0697618281300277
2021-03-15,-0.10169856657552179
2021-03-16,0.029162026726056667
2021-03-17,-0.15648604269293664
2021-03-18,-0.2444379391100685
2021-03-19,0.11348577533034199
2021-03-22,-0.11751775119152127
2021-03-23,0.1364833981105426
2021-03-24,0.12610336817653559
2021-03-25,0.10708955223880291
2021-03-26,-0.015197568389058752
2021-03-29,0.09833759590793008
2021-03-30,-0.14652229050824175
2021-03-31,0.09801337529504658
2021-04-01,0.3233859520839646
2021-04-02,-0.09303729946254805
2021-04-06,-0.006420878210439842
2021-04-07,0.11235321810357597
2021-04-08,-0.2307004645066416
2021-04-09,-0.571281106290447
2021-04-12,0.24575539944006666
2021-04-13,-0.027220097921883412
2021-04-14,-0.0783513524319351
2021-04-15,0.0787723358946825
2021-04-16,0.28600762216969633
2021-04-19,-0.27196133129153316
2021-04-20,0.11693891624699826
2021-04-21,0.04062500000000288
2021-04-22,0.19811383044281966
2021-04-23,-0.05208607817303196
2021-04-26,0.09778462876228126
2021-04-27,-0.13072223527652607
2021-04-28,0.11041009463722064
2021-04-29,-0.279176904176903
2021-04-30,0.09278149386845053
2021-05-06,-0.0029126037954311547
2021-05-07,0.22081281224532934
2021-05-10,-0.18276151582585304
2021-05-11,0.25012661433274286
2021-05-12,0.03223981900452368
2021-05-13,0.09855987427688645
2021-05-14,-0.14653688574268203
2021-05-17,0.08835142118863032
2021-05-18,-0.2486949751058285
2021-05-19,-0.19513282031216117
2021-05-20,-0.3125615899905875
2021-05-21,-0.15500289184500018
2021-05-24,0.009362318840580901
2021-05-25,0.0980704487910746
2021-05-26,0.08049018906611677
2021-05-27,0.22691629358296075
2021-05-28,0.24321556579621267
2021-05-31,-0.13611150450833506
2021-06-01,0.09472035620445529
2021-06-02,-0.03951157280845858
2021-06-03,-0.021978021978019836
2021-06-04,-0.057037123300078735
2021-06-07,0.31836164241515885
2021-06-08,-0.10064338717633788
2021-06-09,0.1370403409654079
2021-06-10,-0.07880434782608971
2021-06-11,-0.17606466247084668
2021-06-15,-0.22802062001271073
2021-06-16,-0.018137137854188228
2021-06-17,0.010619207465110664
2021-06-18,0.3545518561317367
2021-06-21,0.10149336283185754
2021-06-22,-0.10593592275619856
2021-06-23,0.025886752136753087
2021-06-24,-0.15517842482314725
2021-06-25,-0.4998277758641783
2021-06-28,0.25538793103448
2021-06-29,0.08409056489474412
2021-06-30,0.07848416289592763
2021-07-01,0.4754323772693119
2021-07-02,0.21917830677421551
2021-07-05,-0.3004926108374336
2021-07-06,0.06358685446009538
2021-07-07,0.061760866226384936
2021-07-08,-0.7680076628352522
2021-07-09,0.015771526001703878
2021-07-12,0.1157812031004413
2021-07-13,0.009701149425282902
2021-07-14,-0.2851279722661251
2021-07-15,0.47222222222222543
2021-07-16,-0.07158385093167285
2021-07-19,0.025212259972475268
2021-07-20,0.054679802955669904
2021-07-21,0.2953485301883463
2021-07-22,0.010276172125879945
2021-07-23,0.0942194403534555
2021-07-26,-0.07461384561410264
2021-07-27,-0.14616768621806742
2021-07-28,-0.26952518696204353
2021-07-29,-0.2448440733604509
2021-07-30,0.0333962538115326
2021-08-02,-0.04283021818391327
2021-08-03,0.04651611827381463
2021-08-04,0.11723301660682747
2021-08-05,0.10195141377936881
2021-08-06,-0.14382448537378367
2021-08-09,0.12820210592487752
2021-08-10,-0.00082286537151092
2021-08-11,0.0328608673786753
2021-08-12,0.2500714273378657
2021-08-13,0.22239481781641496
2021-08-16,-0.15731366919898362
2021-08-17,0.09467445090794692
2021-08-18,0.0038173035456621346
2021-08-19,-0.3267092870680466
2021-08-20,-0.2219423291286311
2021-08-23,0.04051556991680757
2021-08-24,-0.176259818256636
2021-08-25,-0.03724977765890345
2021-08-26,0.13918801219367144
2021-08-27,0.008370229812354829
2021-08-30,0.12601665850073723
2021-08-31,0.14244480573030602
2021-09-01,0.014705882352940559
2021-09-02,-0.1359600303566906
2021-09-03,0.045628448310578815
2021-09-06,-0.17273798997937045
2021-09-07,-0.03769592943560329
2021-09-08,0.07916666666666715
2021-09-09,0.11808127740331056
2021-09-10,0.0526605893576447
2021-09-13,0.12475264199401986
2021-09-14,-0.026071205867504006
2021-09-15,-0.23024580335731698
2021-09-16,-0.09519992147110566
2021-09-17,-0.01649004910829687
2021-09-22,-0.05915255915255827
2021-09-23,-0.04223998957841758
2021-09-24,0.3079418817886917
2021-09-27,0.1610169491525387
2021-09-28,0.12637919087468524
2021-09-29,-0.015020139593515516
2021-09-30,0.10246102559074605
2021-10-08,-0.08883553421368684
2021-10-11,-0.1367537514843971
2021-10-12,-0.2036229715133448
2021-10-13,0.1911140906874659
2021-10-14,0.022462288386799034
2021-10-15,-0.16977139693086676
2021-10-18,0.08984189804794615
2021-10-19,0.05422838031533829
2021-10-20,-0.2632892969099852
2021-10-21,-0.20586055029869632
2021-10-22,0.2042032024399535
2021-10-25,-0.038353725292046566
2021-10-26,-0.0166091557395918
2021-10-27,0.13253155655148474
2021-10-28,0.28582648306194003
2021-10-29,-0.2063551202895453
2021-11-01,0.18106513657669437
2021-11-02,0.0014610941216454745
2021-11-03,-0.038487669404148814
2021-11-04,-0.20549096677953052
2021-11-05,0.3310147479638991
2021-11-08,-0.30356713908239236
2021-11-09,0.09343034904565861
2021-11-10,0.08019011022347991
2021-11-11,0.06877401695004198
2021-11-12,-0.37739186811151243
2021-11-15,0.15093887122275262
2021-11-16,-0.1063486948114719
2021-11-17,-0.11305981835264736
2021-11-18,0.0019396188227374517
2021-11-19,0.25465032842082214
2021-11-22,-0.013861657909183887
2021-11-23,0.13618557277967508
2021-11-24,0.056718076241370805
2021-11-25,0.0006067291781566859
2021-11-26,-0.13111507229154434
2021-11-29,-0.059501474135618994
2021-11-30,-0.10453305423536914
2021-12-01,-0.06292943014864742
2021-12-02,0.0013843111404086492
2021-12-03,0.014689775143355177
2021-12-06,-0.044157062449746404
2021-12-07,-0.13760267430754672
2021-12-08,0.04697294206035105
2021-12-09,0.11563845050215363
2021-12-10,0.038833023652086934
2021-12-13,0.08813277177978432
2021-12-14,0.15615507813393734
2021-12-15,0.20324422453575486
2021-12-16,-0.25838912800892744
2021-12-17,-0.09387748263819395
2021-12-20,0.04175362982395931
2021-12-21,-0.06200207266945306
2021-12-22,-0.27477246819602497
2021-12-23,0.17924469413233288
2021-12-24,0.08852122318576332
2021-12-27,-0.027038030462689638
2021-12-28,0.1213452763224569
2021-12-29,0.015207780725019729
2021-12-30,-0.103483659124722
2021-12-31,-0.050414078674950624
2022-01-04,0.016099572069722092
2022-01-05,-0.08299527336335336
2022-01-06,0.18089088527044775
2022-01-07,-0.0007610350076115713
2022-01-10,0.12241111278271197
2022-01-11,-0.10953145664084679
2022-01-12,0.07932347559467742
2022-01-13,-0.23217293655249777
2022-01-14,0.16425120772946739
2022-01-17,-0.13590926566705203
2022-01-18,0.017928889272908116
2022-01-19,-0.054000397061741645
2022-01-20,0.22609890109890113
2022-01-21,-0.0990493499231086
2022-01-24,-0.01484118063361383
2022-01-25,0.11883128862650921
2022-01-26,-0.12277300840025894
2022-01-27,0.11785714285714376
2022-01-28,-0.0125532789949904
2022-02-07,0.1943510798313868
2022-02-08,0.06739431739431892
2022-02-09,0.17418934568616076
2022-02-10,-0.324520255863541
2022-02-11,0.2057371654234345
2022-02-14,-0.1899674155376427
2022-02-15,-0.20688007644529463
2022-02-16,-0.018718079673135594
2022-02-17,0.11311620926636001
2022-02-18,-0.37793567391131555
2022-02-21,0.11687979539642016
2022-02-22,0.18444417900939766
2022-02-23,0.11150464093795706
2022-02-24,0.2436206105210622
2022-02-25,0.4742126280892109
2022-02-28,-0.030719833129726863
2022-03-01,-0.02262067201091718
2022-03-02,-0.15460148636019727
2022-03-03,-0.34947300778583107
2022-03-04,-0.46465524129114744
2022-03-07,0.08206271554437744
2022-03-08,0.07069759508783978
2022-03-09,0.012572500852951803
2022-03-10,0.05077517922494671
2022-03-11,0.14850869481313178
2022-03-14,-0.21387305063625736
2022-03-15,-0.3197115384615391
2022-03-16,-0.03107588856868397
2022-03-17,0.06568761384335053
2022-03-18,0.031264154687728286
2022-03-21,0.1252395156351856
2022-03-22,0.1931877889869692
2022-03-23,-0.11325035256606808
2022-03-24,-0.015582655826556878
2022-03-25,0.03246199592109655
2022-03-28,-0.07412998072790042
2022-03-29,-0.15567246771823695
2022-03-30,0.27400224988052846
2022-03-31,-0.10941433388064972
2022-04-01,0.18840718494890707
2022-04-06,0.03137249884025564
2022-04-07,0.16928573586127288
2022-04-08,-0.25027525968210623
2022-04-11,0.11446059123977487
2022-04-12,-0.5047395405655183
2022-04-13,0.08151035943009069
2022-04-14,0.020450466099241518
2022-04-15,0.1375146738219013
2022-04-18,0.08564670733225385
2022-04-19,0.31547212254028
2022-04-20,-0.1279986529585398
2022-04-21,-0.22499214863055633
2022-04-22,-0.01162600172788656
2022-04-25,-0.007184961642599075
2022-04-26,-0.06899941943746722
2022-04-27,0.10091897695989502
2022-04-28,0.29014379560544534
2022-04-29,-0.09215889593667694
2022-05-05,-0.30879037332214804
2022-05-06,0.174558833031176
2022-05-09,0.0024195728575287442
2022-05-10,-0.13543458274177472
2022-05-11,0.03250083324697544
2022-05-12,0.25972903936692504
2022-05-13,-0.20307933213991086
2022-05-16,-0.08773322194374819
2022-05-17,-0.14100458351758743
2022-05-18,0.09570661523657911
2022-05-19,-0.05322073841319784
2022-05-20,-0.03660681611597026
2022-05-23,0.042149866190900505
2022-05-24,0.3907772930793699
2022-05-25,-0.050161503116327014
2022-05-26,-0.024549457300840398
2022-05-27,0.07223596372243937
2022-05-30,-0.005361466620546235
2022-05-31,-0.4264429227180361
2022-06-01,0.11873914122610955
2022-06-02,0.04236435972544095
2022-06-06,-0.08171352074966558
2022-06-07,0.06931738212526271
2022-06-08,0.38789259170462576
2022-06-09,-0.21942560536689149
2022-06-10,0.07618408758774384
2022-06-13,0.34483660130718924
2022-06-14,-0.12043405520959008
2022-06-15,-0.33967901523119376
2022-06-16,0.08895983174024726
2022-06-17,-0.11665980872579476
2022-06-20,-0.3173399480274032
2022-06-21,0.09371816292432379
2022-06-22,0.2566002957605313
2022-06-23,0.325378822248437
2022-06-24,0.06742929932090852
2022-06-27,0.04167077027455827
2022-06-28,-0.03800750638406181
2022-06-29,-0.20306599596194586
2022-06-30,-0.6134530636953257
2022-07-01,-0.07970061220684888
2022-07-04,0.11267192328000303
2022-07-05,0.08078349897052403
2022-07-06,0.33440461413093725
2022-07-07,0.4380251523228581
2022-07-08,0.0186352619743474
2022-07-11,-0.02051641855489658
2022-07-12,-0.1412111366428616
2022-07-13,-0.336444065952263
2022-07-14,-0.2049992757671697
2022-07-15,0.018961922668610718
2022-07-18,-0.14016597564902064
2022-07-19,0.21071858691288492
2022-07-20,0.05240133678795351
2022-07-21,-0.03145275534778244
2022-07-22,0.027169708278341573
2022-07-25,0.022901816882883994
2022-07-26,-0.19271578556164526
2022-07-27,-0.03993724634221118
2022-07-28,0.1794935262757038
2022-07-29,-0.041437632135305956
2022-08-01,0.0560338230792786
2022-08-02,-0.012011254878627045
2022-08-03,0.1004215224398704
2022-08-04,-0.15370221232649556
2022-08-05,0.12815624273424775
2022-08-08,-0.1474761051373953
2022-08-09,-0.05585677558312577
2022-08-10,-0.09714897824653868
2022-08-11,0.1301670719272093
2022-08-12,-0.29766673224473855
2022-08-15,0.2550097751710656
2022-08-16,0.18416235062509761
2022-08-17,0.03497818125145931
2022-08-18,-0.07219628704809412
2022-08-19,0.35435897435897706
2022-08-22,-0.17556277056277084
2022-08-23,0.19473755623049732
2022-08-24,0.09809776512543741
2022-08-25,0.02484575118043797
2022-08-26,-0.2695749440715907
2022-08-29,0.05075169219807678
2022-08-30,-0.42502225835172175
2022-08-31,-0.04180595890360797
2022-09-01,-0.11289779083716453
2022-09-02,0.11271219897355007
2022-09-05,0.018198839470900046
2022-09-06,0.18138015516537268
2022-09-07,0.019991204252550583
2022-09-08,0.2132155896476689
2022-09-09,-0.028825660699063168
2022-09-13,0.007844086455280272
2022-09-14,-0.11524524966857962
2022-09-15,-0.05932105868814501
2022-09-16,-0.28212128034823
2022-09-19,0.04116196053264853
2022-09-20,-0.03635109053271455
2022-09-21,0.14403855910704944
2022-09-22,0.07825248955990996
2022-09-23,0.21691358024691137
2022-09-26,0.018999019104117606
2022-09-27,0.06782394961210493
2022-09-28,0.0014145340675973533
2022-09-29,-0.09062622693364922
2022-09-30,0.10139446036294342
2022-10-10,0.01593271979143568
2022-10-11,-0.047248027170112145
2022-10-12,-0.0943740029704602
2022-10-13,-0.031172839506170568
2022-10-14,-0.1573593726436441
2022-10-17,0.07749268350170552
2022-10-18,0.020973905448191586
2022-10-19,0.021928025560207582
2022-10-20,0.07343799693526296
2022-10-21,-0.0043128654970751076
2022-10-24,-0.3839818932167206
2022-10-25,-0.03801820020222464
2022-10-26,0.048280120591335074
2022-10-27,0.03782600184163473
2022-10-28,-0.13169862340216457
2022-10-31,0.4583213590062891
2022-11-01,0.3361867225027725
2022-11-02,0.0629652435686911
2022-11-03,-0.09309996015081373
2022-11-04,0.24423312995840923
2022-11-07,-0.2894284541583291
2022-11-08,-0.4875636816810232
2022-11-09,-0.18688423645320312
2022-11-10,0.054493318184277495
2022-11-11,-0.15423871076044898
2022-11-14,0.22825161729656107
2022-11-15,0.07905668367244022
2022-11-16,0.07119976311610263
2022-11-17,-0.06429974826548861
2022-11-18,0.013040340043305489
2022-11-21,-0.3538811188811185
2022-11-22,0.09405940594059382
2022-11-23,0.10871775320879164
2022-11-24,0.07129193347026001
2022-11-25,0.05321394240815995
2022-11-28,0.3653233963268553
2022-11-29,0.0985074626865664
2022-11-30,-0.12487360970677278
2022-12-01,-0.020762056044314844
2022-12-02,-0.031850648047832206
2022-12-05,-0.2458747524851469
2022-12-06,-0.1428112601549209
2022-12-07,0.016988194644397818
2022-12-08,0.12869124922696332
2022-12-09,-0.06107707911820476
2022-12-12,0.17507676590956206
2022-12-13,-0.03107435216463124
2022-12-14,0.13248491342149682
2022-12-15,-0.2525962725278712
2022-12-16,0.03752140607799659
2022-12-19,-0.05980013502599532
2022-12-20,0.0545448162996512
2022-12-21,-0.12727144294101078
2022-12-22,0.0905140483338478
2022-12-23,0.09043226623259133
2022-12-26,0.046428571428571694
2022-12-27,0.05737818383167431
2022-12-28,-0.026800327332243783
2022-12-29,0.12714097496706045
2022-12-30,0.10168940870695145
2023-01-03,-0.214037433155082
2023-01-04,0.050411671240789324
2023-01-05,0.010934065934067976
2023-01-06,-0.08497437280820143
2023-01-09,-0.27526494045668043
2023-01-10,0.07527904389333621
2023-01-11,-0.1837307152875168
2023-01-12,0.16809523809523746
2023-01-13,-0.01996980582018823
2023-01-16,0.06756316988421127
2023-01-17,0.05999899076550466
2023-01-18,0.2665855143031058
2023-01-19,-0.08579109062980192
2023-01-20,0.04798570500324882
2023-01-30,0.07427630530620839
2023-01-31,-0.02548036758563101
2023-02-01,-0.2631848147306226
2023-02-02,-0.15811810095380874
2023-02-03,0.010993202940769761
2023-02-06,-0.0065586048253348465
2023-02-07,0.1670489533610233
2023-02-08,-0.002899797949560759
2023-02-09,0.1713760546174844
2023-02-10,-0.10987888515978622
2023-02-13,0.08982974910394374
2023-02-14,-0.2730293130653143
2023-02-15,0.25263692828910156
2023-02-16,-0.16219282889191539
2023-02-17,-0.015766689450897486
2023-02-20,-0.11561704834605799
2023-02-21,0.1159151064811415
2023-02-22,-0.2429778095919834
2023-02-23,0.1210149642160036
2023-02-24,0.12307463574189394
2023-02-27,-0.11050083783280522
2023-02-28,0.20449020449020808
2023-03-01,0.08661417322834887
2023-03-02,-0.07974137931034267
2023-03-03,-0.07153954802259614
2023-03-06,-0.011095990788232965
2023-03-07,-0.3039970663733059
2023-03-08,-0.061797752808992114
2023-03-09,0.09244011976047842
2023-03-10,0.1628875968992245
2023-03-13,0.39458567183888793
2023-03-14,0.15539724704177577
2023-03-15,0.06179775280899037
2023-03-16,0.00143242925912946
2023-03-17,-0.11851180475727321
2023-03-20,-0.24281186977816016
2023-03-21,-0.06967360114777335
2023-03-22,0.24714828897338312
2023-03-23,0.041798182687708636
2023-03-24,0.05297269270653272
2023-03-27,-0.08787552793051194
2023-03-28,0.024516806722687166
2023-03-29,-0.37971313047194144
2023-03-30,-0.21270561542824754
2023-03-31,-0.14926289926289862
2023-04-03,0.49772036474163994
2023-04-04,0.005630252100841275
2023-04-06,0.09421675890268769
2023-04-07,0.2438293622485377
2023-04-10,0.011636636636636263
2023-04-11,-0.703198294243069
2023-04-12,0.04820866618252138
2023-04-13,0.1109566303419442
2023-04-14,-0.12138350390522912
2023-04-17,0.16826801089149304
2023-04-18,0.28637407330750514
2023-04-19,-0.07446028985162624
2023-04-20,0.08418587734103519
2023-04-21,0.03817336272702016
2023-04-24,0.033919796384808604
2023-04-25,-0.022163874302530688
2023-04-26,0.10287701066600752
2023-04-27,-0.3234610917537758
2023-04-28,0.13479801559177856
2023-05-04,-0.18108941881150079
2023-05-05,0.1360851158645288
2023-05-08,-0.08556069508688417
2023-05-09,0.22676282051282165
2023-05-10,-0.21710684273709516
2023-05-11,-0.06034959619427
2023-05-12,-0.10127820529542307
2023-05-15,0.07536854805263253
2023-05-16,-0.10238471106008637
2023-05-17,0.03525046382189144
2023-05-18,0.2553623188405817
2023-05-19,-0.11276233692569446
2023-05-22,-0.10175736961451241
2023-05-23,0.16960951212109437
2023-05-24,0.08950343773873386
2023-05-25,-0.21746312684365976
2023-05-26,0.05741971207087478
2023-05-29,0.08249135034849386
2023-05-30,-0.26614448431892773
2023-05-31,-0.19467695274831423
2023-06-01,0.18714866143485284
2023-06-02,0.17743125419181766
2023-06-05,0.1031941031941033
2023-06-06,0.2180526514674403
2023-06-07,0.10336976320582951
2023-06-08,-0.20614811962520857
2023-06-09,-0.2832501736878667
2023-06-12,-0.42534222534222565
2023-06-13,-0.09361761126430876
2023-06-14,0.060624493106245916
2023-06-15,0.16400086536381275
2023-06-16,0.22558708992211413
2023-06-19,0.3625142229371836
2023-06-20,0.08681188753732416
2023-06-21,0.09702341454166014
2023-06-26,-0.10638885504244162
2023-06-27,-0.06268752344043024
2023-06-28,-0.0961662190891804
2023-06-29,-0.11926180582283623
2023-06-30,-0.20112320112319992
2023-07-03,0.518956394818463
2023-07-04,0.0076795631482410795
2023-07-05,-0.028012845030917433
2023-07-06,0.12569145408912802
2023-07-07,0.10447566261519896
2023-07-10,-0.789023290631008
2023-07-11,-0.12136543286813072
2023-07-12,0.1810010605191335
2023-07-13,-0.08549021473657553
2023-07-14,-0.059948649268587006
2023-07-17,0.3892073255976512
2023-07-18,0.19071549842347757
2023-07-19,-0.17004009561261418
2023-07-20,0.032177443190708935
2023-07-21,0.08611303108653665
2023-07-24,-0.06164006604292785
2023-07-25,-0.10139422630650735
2023-07-26,0.023344264057627302
2023-07-27,0.0010083975172559129
2023-07-28,-0.0818007662835252
2023-07-31,0.006429576049829466
2023-08-01,-0.0427893094559753
2023-08-02,-0.01619882680883277
2023-08-03,-0.04054527312570261
2023-08-04,-0.040395960897128075
2023-08-07,-0.11374362534001381
2023-08-08,-0.002928430102343532
2023-08-09,0.1877455771906414
2023-08-10,-0.05418521762248838
2023-08-11,0.1648053194107763
2023-08-14,0.09205795576702012
2023-08-15,0.006105465550295779
2023-08-16,-0.21388410786001033
2023-08-17,0.12905138339921068
2023-08-18,-0.12863490967249436
2023-08-21,0.05730805887959428
2023-08-22,0.3593476193843951
2023-08-23,0.022245913290688108
2023-08-24,-0.15960999285129782
2023-08-25,0.14353569743518993
2023-08-28,-0.09458928577215357
2023-08-29,-0.5291358293393665
2023-08-30,-0.03531502686929758
2023-08-31,0.14746432554573918
2023-09-01,-0.26070166290740904
2023-09-04,0.2132673763474265
2023-09-05,0.25338844951958744
2023-09-06,0.08568816119765647
2023-09-07,-0.08734178409069417
2023-09-08,0.3383084809818714
2023-09-11,-0.35241819304383426
2023-09-12,-0.011781357978433882
2023-09-13,0.04070841889117058
2023-09-14,0.0675196202829077
2023-09-15,-0.34431590532975376
2023-09-18,0.20601925850843936
2023-09-19,-0.11447875058476517
2023-09-20,-0.1279204004579903
2023-09-21,0.0005822953799823026
2023-09-22,0.09492013265041363
2023-09-25,-0.09015262759756035
2023-09-26,0.1283808150018042
2023-09-27,0.16373482420641372
2023-09-28,0.01890306729016485
2023-10-09,0.07027721681659686
2023-10-10,0.056998556998556583
2023-10-11,-0.07152825440402669
2023-10-12,-0.271126366868669
2023-10-13,-0.12265765380337117
2023-10-16,-0.018249944897508513
2023-10-17,-0.09270040304523153
2023-10-18,0.023655913978491802
2023-10-19,0.25765383869448416
2023-10-20,0.02224743564189472
2023-10-23,0.03640191487874788
2023-10-24,0.1393042416844688
2023-10-25,0.028011204481795608
2023-10-26,-0.1479958185526032
2023-10-27,-0.014643545279384225
2023-10-30,-0.07701484623541877
2023-10-31,0.0702792782438789
2023-11-01,-0.11760658020433715
2023-11-02,0.13613598027767043
2023-11-03,0.13156342182890873
2023-11-06,0.07117909189449503
2023-11-07,-0.14224454790492522
2023-11-08,0.048386584513752356
2023-11-09,-0.13922772547414397
2023-11-10,0.17363535492950322
2023-11-13,-0.11905885571628746
2023-11-14,-0.038197292863002066
2023-11-15,0.056668432257227404
2023-11-16,0.02967122294025322
2023-11-17,-0.35706226209031855
2023-11-20,0.0755362537096645
2023-11-21,-0.02301500903361802
2023-11-22,0.14009591450711975
2023-11-23,0.07503269301008134
2023-11-24,-0.03223907877065682
2023-11-27,0.25132901735850455
2023-11-28,0.165124214694719
2023-11-29,-0.3150150150150147
2023-11-30,-0.0384512325830665
2023-12-01,0.36230769230769155
2023-12-04,-0.349263860133426
2023-12-05,-0.12384995841905072
2023-12-06,0.2153600805774718
2023-12-07,0.029137507092869507
2023-12-08,-0.4081196581196564
2023-12-11,0.12439491162895465
2023-12-12,0.02126211050013006
2023-12-13,-0.07375776397515557
2023-12-14,-0.03235294117647005
2023-12-15,0.2329448329448318
2023-12-18,0.04901082493467668
2023-12-19,0.004298826536540441
2023-12-20,0.011145733461168728
2023-12-21,0.047297297297298306
2023-12-22,0.15718475073313715
2023-12-25,-0.12991939307728728
2023-12-26,0.04231480055444516
2023-12-27,0.13665491222083356
2023-12-28,-0.11729729729729862
2023-12-29,-0.2526881720430098
2024-01-02,0.1559845559845558
2024-01-03,-0.08433292533659795
2024-01-04,-0.28314684544324387
2024-01-05,0.1423684210526316
2024-01-08,-0.02368230094333408
2024-01-09,-0.20277114190157675
2024-01-10,0.04768740031897897
2024-01-11,0.2715239533054067
2024-01-12,-0.14745374528471306
2024-01-15,0.053301790686618014
2024-01-16,0.12271440621328572
2024-01-17,0.013050881312683971
2024-01-18,-0.10810399363445956
2024-01-19,0.054271385165601684
2024-01-22,-0.006828093753635939
2024-01-23,-0.041514123731174336
2024-01-24,-0.06745859481130778
2024-01-25,-0.11153820295564632
2024-01-26,0.04042178220373443
2024-01-29,0.1132714658796646
2024-01-30,0.11174943084803599
2024-01-31,0.1408216453482408
2024-02-01,0.17055235513385342
2024-02-02,-0.05557906615883714
2024-02-05,-0.11050516647531394
2024-02-06,-0.1801399613899602
2024-02-07,0.024610101588209143
2024-02-08,-0.07704326923076957
2024-02-19,0.04384523876961548
2024-02-20,-0.0171991604477634
2024-02-21,0.1947820836709706
2024-02-22,-0.2808067664281063
2024-02-23,-0.12521502293578077
2024-02-26,-0.0025830104570294813
2024-02-27,0.07709703947368647
2024-02-28,-0.1623298512187365
2024-02-29,0.18840821432294524
2024-03-01,0.30789091091392273
2024-03-04,-0.023895656453793254
2024-03-05,-0.04527313544524875
2024-03-06,0.008992939427718658
2024-03-07,-0.03166828045793795
2024-03-08,-0.20644233534656403
2024-03-11,0.19795247724974652
2024-03-12,0.21250573306833626
2024-03-13,0.17477104433626345
2024-03-14,0.1247852233676961
2024-03-15,0.06302548824892631
2024-03-18,-0.1762990455991528
2024-03-19,-0.27257574271987284
2024-03-20,-0.15487340239815528
2024-03-21,0.002729885057471265
2024-03-22,-0.04702286486804519
2024-03-25,0.09188792837295642
2024-03-26,0.006773020362984369
2024-03-27,0.021097436846487985
2024-03-28,-0.11645069185152429
2024-03-29,-0.03908605543367938
2024-04-01,-0.20037888573150725
2024-04-02,0.06612507458634671
2024-04-03,0.09770673587867264
2024-04-08,-0.12190802062933159
2024-04-09,0.0062582426212526646
2024-04-10,-0.039620844491048315
2024-04-11,0.05046423604322701
2024-04-12,-0.10420176908857057
2024-04-15,0.18000585007710587
2024-04-16,0.3030337664295947
2024-04-17,0.5546571173027537
2024-04-18,-0.05742398060506104
2024-04-19,0.08400480456433554
2024-04-22,-0.07115675464702133
2024-04-23,-0.22378130058078383
2024-04-24,-0.6415142954422057
2024-04-25,0.048803290949889604
2024-04-26,-0.11212925006028329
2024-04-29,0.08241372977846322
2024-04-30,-0.2252056958200026
2024-05-06,0.18911864308101442
2024-05-07,0.14721254355400648
2024-05-08,0.039244201704208545
2024-05-09,-0.12973073438189997
2024-05-10,0.25074834421476844
2024-05-13,0.021449243252971897
2024-05-14,-0.3138359201773847
2024-05-15,0.021366231002602622
2024-05-16,0.09493006993007266
2024-05-17,-0.09297634329726787
2024-05-20,0.11839872666937223
2024-05-21,0.19244755244755218
2024-05-22,0.18059850827724067
2024-05-23,0.011697247706419396
2024-05-24,0.07198359594215334
2024-05-27,-0.09989541635111439
2024-05-28,-0.10725274725274697
2024-05-29,-0.2416688362405611
2024-05-30,-0.13510994611911925
2024-05-31,-0.13398977938426776
2024-06-03,0.08878650284900277
2024-06-04,0.038520041109969996
2024-06-05,-0.07354855506378624
2024-06-06,0.17341269841269846
2024-06-07,0.17223496014848555
2024-06-11,-0.22673172382671353
2024-06-12,-0.03902424279064145
2024-06-13,0.34188852710208884
2024-06-14,-0.08954545454545527
2024-06-17,0.051817843759833254
2024-06-18,0.13423684677753417
2024-06-19,0.006614526998919144
2024-06-20,-0.40045718091950927
2024-06-21,0.01878274268104877
2024-06-24,-0.30267644448596376
2024-06-25,0.06809583858764162
2024-06-26,0.10240589276318718
2024-06-27,0.24354889097156954
2024-06-28,-0.06458211572180199
2024-07-01,0.18638950180002467
2024-07-02,-0.07517482517482536
2024-07-03,-0.016718983058392166
2024-07-04,0.10845014016820462
2024-07-05,0.10579937304075505
2024-07-08,-0.027290253955591648
2024-07-09,0.12802750754780193
2024-07-10,0.016830957976011078
2024-07-11,-0.27202986262643136
2024-07-12,-0.055944055944058615
2024-07-15,0.15592512930813632
2024-07-16,-0.15786940478100345
2024-07-17,0.1286445342736736
2024-07-18,0.15535579379833306
2024-07-19,0.08861451048951215
2024-07-22,-0.22235025008108372
2024-07-23,0.0856946197086148
2024-07-24,-0.4295331251027445
2024-07-25,-0.05296604415798438
2024-07-26,-0.12494774247491644
2024-07-29,0.3582252733282479
2024-07-30,-0.0752742100787192
2024-07-31,0.26646471203433236
2024-08-01,-0.004435814137547665
2024-08-02,0.004805935752226813
2024-08-05,-0.5076023391812869
2024-08-06,0.05977540849157853
2024-08-07,0.06816424660290656
2024-08-08,-0.10417390487816398
2024-08-09,-0.009412671721575706
2024-08-12,0.2393760531483437
2024-08-13,0.15121940651341043
2024-08-14,-0.13705438331153696
2024-08-15,0.16290468580256579
2024-08-16,0.11497462894593583
2024-08-19,-0.03061515719777404
2024-08-20,-0.4392272863459645
2024-08-21,-0.03820251186873344
2024-08-22,-0.00025708358552138655
2024-08-23,-0.13594334054691953
2024-08-26,0.11296211075318083
2024-08-27,0.2523217127151736
2024-08-28,0.037878638186880344
2024-08-29,-0.09928015738173718
2024-08-30,0.057472816910922105
2024-09-02,-0.18376447400837484
2024-09-03,0.6570133026029038
2024-09-04,0.22038499884960697
2024-09-05,0.281771849924094
2024-09-06,0.14576649462965366
2024-09-09,0.3046372819100088
2024-09-10,-0.7420617867545267
2024-09-11,-0.18343460185481164
2024-09-12,-0.32458202716823487
2024-09-13,-0.17268212567942798
2024-09-18,-0.39863401782814145
2024-09-19,0.06975833390927762
2024-09-20,-0.032138017304286524
2024-09-23,0.040255708951985894
2024-09-24,0.017598579941676067
2024-09-25,0.2862296238031945
2024-09-26,0.1375732076998847
2024-09-27,0.07153501187915637
2024-09-30,0.13060833691206067
2024-10-08,0.2297218762972202
2024-10-09,-0.058394504046679105
2024-10-10,-0.2574750315336736
2024-10-11,-0.09745709836857072
2024-10-14,-0.0807125307125311
2024-10-15,-0.40639269406392764
2024-10-16,-0.1750216450216424
2024-10-17,0.28323343162372383
2024-10-18,0.1316011305598254
2024-10-21,0.3224802371541503
2024-10-22,0.17410911829779144
2024-10-23,0.20705811138014313
2024-10-24,-0.22818175857320772
2024-10-25,-0.11107178968655221
2024-10-28,-0.6467329685497389
2024-10-29,0.04031763722485531
2024-10-30,-0.15991525423728803
2024-10-31,0.10009792188010058
2024-11-01,-0.005797101449276511
2024-11-04,0.35921643689161425
2024-11-05,-0.02827366111499146
2024-11-06,-0.014868913857677607
2024-11-07,0.323739022483793
2024-11-08,0.18189768751987784
2024-11-11,0.08284141755771521
2024-11-12,0.10657156199353676
2024-11-13,0.10259618658495111
2024-11-14,-0.551128944634536
2024-11-15,-0.05630786615149061
2024-11-18,-0.20220845557028033
2024-11-19,-0.2071960297766757
2024-11-20,0.06247339616904825
2024-11-21,0.24794665248665276
2024-11-22,-0.15188286750586816
2024-11-25,0.026242516434931557
2024-11-26,0.11538461538461585
2024-11-27,-0.1411865843892801
2024-11-28,-0.046871411823004805
2024-11-29,-0.20635294841052326
2024-12-02,-0.04645577220774949
2024-12-03,0.07097634805808031
2024-12-04,0.36912832916712485
2024-12-05,0.016590118678022656
2024-12-06,0.2966250809541686
2024-12-09,0.18385083951530956
2024-12-10,-0.1520574291391624
2024-12-11,-0.48982308594307233
2024-12-12,-0.06968550081151853
2024-12-13,0.056568690552813536
2024-12-16,0.08846909805634523
2024-12-17,0.15800415800416082
2024-12-18,0.31512605042016434
2024-12-19,0.14011916583912898
2024-12-20,0.14486353147131528
2024-12-23,-0.25853361728019564
2024-12-24,-0.1855492750061471
2024-12-25,-0.12061383693261911
2024-12-26,-0.12584973775628672
2024-12-27,-0.4893022255671456
2024-12-30,-0.004100717247221955
2024-12-31,0.19002154692027812
