date,FCT_Demark_Atr_Dfive
2012-12-28,
2012-12-31,
2013-01-04,
2013-01-07,
2013-01-08,
2013-01-09,
2013-01-10,
2013-01-11,
2013-01-14,
2013-01-15,0.10526315789473675
2013-01-16,0.2212389380530974
2013-01-17,0.422680412371134
2013-01-18,0.38679245283018876
2013-01-21,0.6212121212121213
2013-01-22,0.25233644859813104
2013-01-23,0.13559322033898313
2013-01-24,0.26086956521739135
2013-01-25,0.23529411764705885
2013-01-28,0.31333333333333335
2013-01-29,0.5
2013-01-30,0.5783132530120482
2013-01-31,0.10619469026548692
2013-02-01,0.3589743589743591
2013-02-04,0.4
2013-02-05,0.5508982035928144
2013-02-06,0.6094674556213018
2013-02-07,1.0
2013-02-08,0.7596153846153846
2013-02-18,0.5882352941176471
2013-02-19,0.3605216010047807
2013-02-20,0.1866109583496975
2013-02-21,0.4908651983429189
2013-02-22,0.7679518782072152
2013-02-25,0.9038249507366057
2013-02-26,0.8150486861038586
2013-02-27,0.9142197404785669
2013-02-28,0.7762873563959866
2013-03-01,0.4432756391127058
2013-03-04,0.21367521367521541
2013-03-05,0.1811594202898552
2013-03-06,0.01739130434782435
2013-03-07,0.015037593984960894
2013-03-08,0.016666666666664977
2013-03-11,0.23008849557521865
2013-03-12,0.44791666666666446
2013-03-13,0.44210526315789445
2013-03-14,0.7692307692307693
2013-03-15,1.0
2013-03-18,1.0
2013-03-19,0.8309859154929553
2013-03-20,0.5979381443298931
2013-03-21,0.3260869565217352
2013-03-22,0.28735632183908205
2013-03-25,0.0593220338983081
2013-03-26,0.06194690265487072
2013-03-27,0.10227272727273447
2013-03-28,0.3333333333333454
2013-03-29,0.2727272727272826
2013-04-01,0.854166666666678
2013-04-02,1.0
2013-04-03,1.0
2013-04-08,1.0
2013-04-09,0.7499999999999929
2013-04-10,0.40983606557376
2013-04-11,0.29508196721311075
2013-04-12,0.1730769230769236
2013-04-15,0.0338983050847492
2013-04-16,0.5
2013-04-17,0.7341772151898716
2013-04-18,0.8227848101265801
2013-04-19,0.7590361445783088
2013-04-22,0.9142857142857114
2013-04-23,0.41379310344827724
2013-04-24,0.41379310344828174
2013-04-25,0.3818181818181794
2013-04-26,0.5172413793103469
2013-05-02,0.46774193548387416
2013-05-03,0.8750000000000043
2013-05-06,0.32203389830507834
2013-05-07,0.24193548387096317
2013-05-08,0.08955223880596158
2013-05-09,0.07894736842104436
2013-05-10,0.0
2013-05-13,0.1449275362318806
2013-05-14,0.14925373134328154
2013-05-15,0.338461538461539
2013-05-16,0.5000000000000075
2013-05-17,0.7837837837837939
2013-05-20,0.4634146341463533
2013-05-21,0.5750000000000082
2013-05-22,0.22448979591837556
2013-05-23,0.09302325581395461
2013-05-24,0.4193548387096784
2013-05-27,0.6333333333333342
2013-05-28,0.5151515151515204
2013-05-29,0.8358208955223929
2013-05-30,0.8507462686567222
2013-05-31,0.7245300988823226
2013-06-03,0.7849692782017359
2013-06-04,0.9499890865437033
2013-06-05,0.9613611092080891
2013-06-06,0.9619932301089062
2013-06-07,1.0
2013-06-13,1.0
2013-06-14,1.0
2013-06-17,0.7610700422775478
2013-06-18,0.7818181818181792
2013-06-19,0.4385964912280645
2013-06-20,0.31578947368420457
2013-06-21,0.1093749999999977
2013-06-24,0.09722222222222075
2013-06-25,0.0
2013-06-26,8.680294856619892e-15
2013-06-27,1.0460868160542033e-14
2013-06-28,1.0460868160541932e-14
2013-07-01,1.0199346456528338e-14
2013-07-02,0.39682539682540013
2013-07-03,0.4242424242424211
2013-07-04,0.5593220338983043
2013-07-05,0.4925373134328346
2013-07-08,0.790322580645161
2013-07-09,0.45283018867924585
2013-07-10,0.36842105263158403
2013-07-11,0.4098360655737656
2013-07-12,0.6101694915254186
2013-07-15,0.3636363636363516
2013-07-16,0.34482758620688464
2013-07-17,0.4259259259259139
2013-07-18,0.2692307692307642
2013-07-19,0.3214285714285747
2013-07-22,0.5272727272727313
2013-07-23,0.883333333333337
2013-07-24,0.8813559322033924
2013-07-25,0.8813559322033924
2013-07-26,0.8833333333333354
2013-07-29,0.6774193548387113
2013-07-30,0.281249999999994
2013-07-31,0.2698412698412712
2013-08-01,0.2931034482758633
2013-08-02,0.013333333333335492
2013-08-05,0.2738095238095262
2013-08-06,0.36507936507937006
2013-08-07,0.4117647058823571
2013-08-08,0.5529411764705894
2013-08-09,0.8103448275862057
2013-08-12,0.43859649122806776
2013-08-13,0.6493506493506485
2013-08-14,0.6447368421052634
2013-08-15,0.6896551724137934
2013-08-16,0.8173913043478259
2013-08-19,1.0
2013-08-20,1.0
2013-08-21,0.9537037037037003
2013-08-22,0.6636363636363644
2013-08-23,0.34821428571428686
2013-08-26,0.2327586206896576
2013-08-27,0.0
2013-08-28,0.1571428571428595
2013-08-29,0.4304635761589415
2013-08-30,0.6376811594202921
2013-09-02,0.7806451612903221
2013-09-03,1.0
2013-09-04,0.8546511627906961
2013-09-05,0.6265060240963835
2013-09-06,0.5192307692307645
2013-09-09,0.3902439024390209
2013-09-10,0.0
2013-09-11,0.009433962264152197
2013-09-12,0.011904761904763505
2013-09-13,0.13580246913580843
2013-09-16,0.11956521739130946
2013-09-17,0.3953488372093051
2013-09-18,0.3478260869565242
2013-09-23,0.7580645161290336
2013-09-24,0.7580645161290319
2013-09-25,0.7833333333333375
2013-09-26,0.6612903225806489
2013-09-27,0.8247422680412378
2013-09-30,0.7792207792207801
2013-10-08,0.7792207792207814
2013-10-09,0.7792207792207814
2013-10-10,0.912621359223303
2013-10-11,0.5913978494623712
2013-10-14,0.38938053097345526
2013-10-15,0.44354838709677485
2013-10-16,0.516129032258064
2013-10-17,0.2678571428571395
2013-10-18,0.3124999999999928
2013-10-21,0.5333333333333224
2013-10-22,0.17117117117116762
2013-10-23,0.10679611650484726
2013-10-24,0.13580246913579366
2013-10-25,0.38709677419354815
2013-10-28,0.2407407407407403
2013-10-29,0.6428571428571412
2013-10-30,0.6027397260274043
2013-10-31,0.5301204819277204
2013-11-01,0.2134831460674198
2013-11-04,0.5833333333333416
2013-11-05,0.40740740740741227
2013-11-06,0.41904761904762294
2013-11-07,0.5677966101694923
2013-11-08,0.8130841121495319
2013-11-11,0.4299999999999962
2013-11-12,0.5308641975308622
2013-11-13,0.4673913043478206
2013-11-14,0.23206147626946932
2013-11-15,0.0
2013-11-18,0.0
2013-11-19,0.0
2013-11-20,0.17121333921115878
2013-11-21,0.19678702889587427
2013-11-22,0.3565235248482653
2013-11-25,0.5446730364889744
2013-11-26,0.7179852388968058
2013-11-27,0.5909090909091008
2013-11-28,0.9285714285713952
2013-11-29,0.6470588235293868
2013-12-02,0.3888888888888701
2013-12-03,0.04347826086956826
2013-12-04,0.3529411764705818
2013-12-05,0.333333333333337
2013-12-06,0.5476190476190531
2013-12-09,0.7307692307692383
2013-12-10,0.9302325581395458
2013-12-11,0.5185185185185281
2013-12-12,0.6461538461538501
2013-12-13,0.5636363636363712
2013-12-16,0.4285714285714397
2013-12-17,0.47826086956522346
2013-12-18,0.9803921568627506
2013-12-19,0.7826086956521738
2013-12-20,0.7058823529411674
2013-12-23,0.5312499999999909
2013-12-24,0.5454545454545383
2013-12-25,0.538461538461536
2013-12-26,0.6865671641791042
2013-12-27,0.8760330578512399
2013-12-30,1.0
2013-12-31,1.0
2014-01-02,0.7784810126582271
2014-01-03,0.7697368421052607
2014-01-06,0.39041095890410693
2014-01-07,0.17592592592591713
2014-01-08,0.05504587155962457
2014-01-09,0.11688311688310944
2014-01-10,0.045977011494253275
2014-01-13,0.2368421052631621
2014-01-14,0.16326530612245724
2014-01-15,0.2285714285714503
2014-01-16,0.1250000000000158
2014-01-17,0.5555555555555625
2014-01-20,0.46511627906977204
2014-01-21,0.4878048780487888
2014-01-22,0.7162162162162228
2014-01-23,0.7162162162162111
2014-01-24,0.46478873239436796
2014-01-27,0.5205479452054791
2014-01-28,0.6153846153846158
2014-01-29,0.10294117647058783
2014-01-30,0.35365853658536517
2014-02-07,0.6777623103943194
2014-02-10,0.6479195582198833
2014-02-11,0.5275628058323855
2014-02-12,0.7494604700432373
2014-02-13,0.6856352166322776
2014-02-14,0.11408537209540863
2014-02-17,0.2605258498583641
2014-02-18,0.45830000296270546
2014-02-19,0.3563829273242086
2014-02-20,0.32530120481927804
2014-02-21,0.7083333333333296
2014-02-24,0.5714285714285605
2014-02-25,0.3181818181818153
2014-02-26,0.8235294117647001
2014-02-27,0.6086956521739137
2014-02-28,0.4468085106382977
2014-03-03,0.2957746478873256
2014-03-04,0.2763157894736869
2014-03-05,0.0
2014-03-06,0.0
2014-03-07,0.3518518518518468
2014-03-10,0.7619047619047579
2014-03-11,0.9107142857142774
2014-03-12,0.879310344827588
2014-03-13,0.9259259259259306
2014-03-14,0.8750000000000094
2014-03-17,0.8688524590164033
2014-03-18,0.5862068965517363
2014-03-19,0.6666666666666737
2014-03-20,0.3243243243243254
2014-03-21,0.23999999999999944
2014-03-24,0.04999999999999404
2014-03-25,0.46341463414633216
2014-03-26,0.33333333333332843
2014-03-27,0.33999999999999664
2014-03-28,0.44736842105262326
2014-03-31,0.3333333333333259
2014-04-01,0.46874999999999845
2014-04-02,0.6333333333333298
2014-04-03,0.6909090909090875
2014-04-04,0.7741935483870981
2014-04-08,0.9814814814814842
2014-04-09,0.4509803921568736
2014-04-10,0.3260869565217484
2014-04-11,0.3750000000000069
2014-04-14,0.2051282051282119
2014-04-15,0.06666666666666542
2014-04-16,0.07894736842105064
2014-04-17,0.08571428571428431
2014-04-18,0.13513513513513586
2014-04-21,0.12820512820512991
2014-04-22,0.539999999999995
2014-04-23,0.9249999999999992
2014-04-24,0.9361702127659572
2014-04-25,0.7090909090909037
2014-04-28,0.8522727272727246
2014-04-29,0.5955056179775279
2014-04-30,0.4479166666666679
2014-05-05,0.3711340206185568
2014-05-06,0.4482758620689661
2014-05-07,0.03225806451612884
2014-05-08,0.2717391304347838
2014-05-09,0.5238095238095262
2014-05-12,0.544554455445546
2014-05-13,0.5929203539823032
2014-05-14,0.9591836734693856
2014-05-15,0.7912087912087907
2014-05-16,0.5121951219512176
2014-05-19,0.6086956521739126
2014-05-20,0.525641025641022
2014-05-21,0.18181818181818155
2014-05-22,0.4947368421052639
2014-05-23,0.6025641025641052
2014-05-26,0.4459459459459486
2014-05-27,0.7058823529411793
2014-05-28,0.886178861788619
2014-05-29,0.7102803738317728
2014-05-30,0.7711864406779614
2014-06-03,0.8440366972477024
2014-06-04,0.22656250000000272
2014-06-05,0.33999999999999986
2014-06-06,0.44594594594594833
2014-06-09,0.5393258426966312
2014-06-10,0.5469613259668499
2014-06-11,1.0
2014-06-12,0.8799999999999999
2014-06-13,0.6710526315789467
2014-06-16,0.07894736842104347
2014-06-17,0.4117647058823552
2014-06-18,0.4852941176470607
2014-06-19,0.40000000000000085
2014-06-20,0.4313725490196075
2014-06-23,0.6111111111111109
2014-06-24,0.21111111111111017
2014-06-25,0.16470588235294376
2014-06-26,0.2592592592592632
2014-06-27,0.23728813559322381
2014-06-30,0.391891891891889
2014-07-01,0.7192982456140344
2014-07-02,0.5094339622641494
2014-07-03,0.539999999999998
2014-07-04,0.8028169014084512
2014-07-07,0.7741935483870978
2014-07-08,0.47999999999999776
2014-07-09,0.6881720430107511
2014-07-10,0.7706422018348595
2014-07-11,0.593406593406591
2014-07-14,0.5161290322580622
2014-07-15,0.7222222222222233
2014-07-16,0.26086956521739413
2014-07-17,0.320000000000003
2014-07-18,0.32653061224490015
2014-07-21,0.26446280991735815
2014-07-22,0.23529411764705993
2014-07-23,0.6228070175438599
2014-07-24,0.34677419354838623
2014-07-25,0.38923969439534895
2014-07-28,0.5659132186078281
2014-07-29,0.6184573919409029
2014-07-30,0.23494991154703584
2014-07-31,0.5026766301865379
2014-08-01,0.6036403349108055
2014-08-04,0.58694992412746
2014-08-05,0.3909752881142128
2014-08-06,0.5084252907843799
2014-08-07,0.4210526315789532
2014-08-08,0.10256410256410325
2014-08-11,0.0
2014-08-12,0.0
2014-08-13,0.5531914893616936
2014-08-14,0.8085106382978678
2014-08-15,0.8735632183908039
2014-08-18,0.9423076923076941
2014-08-19,0.9158878504672905
2014-08-20,0.6101694915254257
2014-08-21,0.21359223300971028
2014-08-22,0.20560747663551548
2014-08-25,0.0
2014-08-26,0.0
2014-08-27,0.175675675675675
2014-08-28,0.21666666666666648
2014-08-29,0.5256410256410257
2014-09-01,0.4659090909090935
2014-09-02,0.5604395604395614
2014-09-03,0.5833333333333354
2014-09-04,0.8303571428571441
2014-09-05,0.5963302752293546
2014-09-09,0.761904761904757
2014-09-10,0.7933884297520624
2014-09-11,0.58646616541353
2014-09-12,0.5132743362831845
2014-09-15,0.6774193548387111
2014-09-16,0.564705882352943
2014-09-17,0.30136986301370167
2014-09-18,0.5116279069767468
2014-09-19,0.10416666666667136
2014-09-22,0.527472527472527
2014-09-23,0.675675675675675
2014-09-24,0.6578947368421059
2014-09-25,0.6666666666666676
2014-09-26,0.8396226415094342
2014-09-29,0.4767441860465135
2014-09-30,0.17283950617284233
2014-10-08,0.42528735632184544
2014-10-09,0.39534883720930875
2014-10-10,0.28048780487805447
2014-10-13,0.5974025974026002
2014-10-14,0.8783783783783797
2014-10-15,0.5316455696202506
2014-10-16,0.6354166666666624
2014-10-17,0.55454545454545
2014-10-20,0.2794117647058803
2014-10-21,0.1450381679389289
2014-10-22,0.22935779816513382
2014-10-23,0.05882352941176284
2014-10-24,0.06976744186046314
2014-10-27,0.2051282051281978
2014-10-28,0.5526315789473647
2014-10-29,0.679245283018867
2014-10-30,0.8958333333333343
2014-10-31,1.0
2014-11-03,1.0
2014-11-04,1.0
2014-11-05,0.8630136986301359
2014-11-06,0.7671232876712312
2014-11-07,0.5957446808510655
2014-11-10,0.3870967741935471
2014-11-11,0.052631578947364484
2014-11-12,0.058823529411760916
2014-11-13,0.059895534015296605
2014-11-14,0.14896217911516418
2014-11-17,0.0805100937865075
2014-11-18,0.5171888267183447
2014-11-19,0.7488617420943994
2014-11-20,0.8694449661106645
2014-11-21,0.6757357937274217
2014-11-24,0.7673664077805196
2014-11-25,0.3723955866285171
2014-11-26,0.09589041095890348
2014-11-27,0.10810810810810954
2014-11-28,0.3205128205128218
2014-12-01,0.36904761904761624
2014-12-02,0.6034482758620693
2014-12-03,1.0
2014-12-04,0.9574468085106396
2014-12-05,0.583333333333342
2014-12-08,0.42553191489362785
2014-12-09,0.4000000000000076
2014-12-10,0.5344827586206923
2014-12-11,0.5833333333333353
2014-12-12,0.6730769230769156
2014-12-15,0.8461538461538404
2014-12-16,0.863013698630132
2014-12-17,0.4927536231884023
2014-12-18,0.3947368421052642
2014-12-19,0.4109589041095885
2014-12-22,0.10526315789473664
2014-12-23,0.0
2014-12-24,0.0
2014-12-25,0.0
2014-12-26,0.11224489795918798
2014-12-29,0.5544554455445566
2014-12-30,0.6813186813186858
2014-12-31,0.8599999999999994
2015-01-05,1.0
2015-01-06,1.0
2015-01-07,0.6707317073170722
2015-01-08,0.5697674418604604
2015-01-09,0.32894736842105055
2015-01-12,0.16438356164383386
2015-01-13,0.20779220779220786
2015-01-14,0.6091954022988495
2015-01-15,0.7647058823529415
2015-01-16,0.90566037735849
2015-01-19,1.0
2015-01-20,0.8399999999999992
2015-01-21,0.7797619047619034
2015-01-22,0.6625000000000002
2015-01-23,0.5677419354838706
2015-01-26,0.0
2015-01-27,0.08108108108108053
2015-01-28,0.06617647058823489
2015-01-29,0.06766917293233028
2015-01-30,0.062499999999999716
2015-02-02,0.1707317073170739
2015-02-03,0.09333333333333362
2015-02-04,0.4794520547945221
2015-02-05,0.6190476190476207
2015-02-06,0.9512195121951149
2015-02-09,0.6938775510204053
2015-02-10,0.5
2015-02-11,0.053333333333332136
2015-02-12,0.0
2015-02-13,0.3361344537815158
2015-02-16,0.3944954128440378
2015-02-17,0.5377358490566025
2015-02-25,0.8684210526315747
2015-02-26,1.0
2015-02-27,0.8448275862068922
2015-03-02,0.881578947368418
2015-03-03,0.9090909090909065
2015-03-04,0.9009165403910354
2015-03-05,0.8767837541163533
2015-03-06,0.8558086655277722
2015-03-09,0.8372075831804486
2015-03-10,0.21744186046512487
2015-03-11,0.5975411668682483
2015-03-12,0.5871656217273689
2015-03-13,0.7022942336184779
2015-03-16,0.6111123809697958
2015-03-17,0.8733333333333326
2015-03-18,0.35761589403973465
2015-03-19,0.3741935483870969
2015-03-20,0.14197530864197452
2015-03-23,0.2156862745098045
2015-03-24,0.13669064748201457
2015-03-25,0.3015873015873012
2015-03-26,0.22950819672131179
2015-03-27,0.5600000000000077
2015-03-30,0.09999999999999573
2015-03-31,0.0
2015-04-01,0.49999999999999667
2015-04-02,0.5104166666666645
2015-04-03,0.532608695652169
2015-04-07,0.7205882352941165
2015-04-08,0.9365079365079391
2015-04-09,0.45454545454546397
2015-04-10,0.45454545454546397
2015-04-13,0.6969696969697105
2015-04-14,0.6052631578947443
2015-04-15,0.30952380952381914
2015-04-16,0.19117647058824058
2015-04-17,0.1428571428571462
2015-04-20,0.012658227848098783
2015-04-21,0.052631578947370805
2015-04-22,0.12121212121211712
2015-04-23,0.18181818181817658
2015-04-24,0.7446808510638291
2015-04-27,0.6938775510204075
2015-04-28,0.7413793103448251
2015-04-29,0.7916666666666665
2015-04-30,0.9565217391304338
2015-05-04,0.5820895522388047
2015-05-05,0.747474747474748
2015-05-06,0.6391752577319576
2015-05-07,0.5432098765432093
2015-05-08,0.5595238095238092
2015-05-11,0.8064516129032234
2015-05-12,0.3191489361702088
2015-05-13,0.5111111111111089
2015-05-14,0.5744680851063786
2015-05-15,0.23809523809523664
2015-05-18,0.23809523809523664
2015-05-19,0.23437500000000042
2015-05-20,0.4367816091954055
2015-05-21,0.32692307692308026
2015-05-22,0.5172413793103486
2015-05-25,0.6283185840707994
2015-05-26,0.747368421052632
2015-05-27,0.48192771084337327
2015-05-28,0.6562499999999987
2015-05-29,0.525423728813557
2015-06-01,0.037037037037035175
2015-06-02,0.35526315789473517
2015-06-03,0.32926829268292507
2015-06-04,0.3749999999999987
2015-06-05,0.40243902439024265
2015-06-08,0.5409836065573793
2015-06-09,0.10526315789473674
2015-06-10,0.2586206896551748
2015-06-11,0.09859154929577708
2015-06-12,0.4336283185840714
2015-06-15,0.5307692307692295
2015-06-16,0.8037383177570092
2015-06-17,0.8695652173913041
2015-06-18,1.0
2015-06-19,0.8111888111888107
2015-06-23,0.6666666666666667
2015-06-24,0.5563380281690163
2015-06-25,0.12244897959183842
2015-06-26,0.10416666666666642
2015-06-29,0.1639344262295079
2015-06-30,0.3671874999999993
2015-07-01,0.6780487804878043
2015-07-02,1.0
2015-07-03,1.0
2015-07-06,1.0
2015-07-07,1.0
2015-07-08,0.8870967741935478
2015-07-09,0.9612188365650968
2015-07-10,0.857894736842105
2015-07-13,0.8548387096774192
2015-07-14,0.792048929663609
2015-07-15,0.7731343283582094
2015-07-16,0.059859154929577996
2015-07-17,0.30792682926829357
2015-07-20,0.2537764350453179
2015-07-21,0.22888283378746643
2015-07-22,0.23268698060941884
2015-07-23,0.39436619718309995
2015-07-24,0.0
2015-07-27,0.0
2015-07-28,0.0
2015-07-29,0.0
2015-07-30,0.0
2015-07-31,0.0
2015-08-03,0.11577117811531591
2015-08-04,0.12089646464646311
2015-08-05,0.0892669851998589
2015-08-06,0.35294117647058854
2015-08-07,0.5636363636363666
2015-08-10,0.5636363636363694
2015-08-11,0.753086419753089
2015-08-12,1.0
2015-08-13,1.0
2015-08-14,0.8579545454545457
2015-08-17,0.727722772277227
2015-08-18,0.5707317073170715
2015-08-19,0.5487179487179465
2015-08-20,0.030927835051545564
2015-08-21,0.057803468208091534
2015-08-24,0.3282828282828282
2015-08-25,0.5348837209302335
2015-08-26,0.5260663507109021
2015-08-27,1.0
2015-08-28,1.0
2015-08-31,0.7535211267605633
2015-09-01,0.41911764705882293
2015-09-02,0.3900709219858142
2015-09-07,0.3484848484848488
2015-09-08,0.06896551724138023
2015-09-09,0.08620689655172516
2015-09-10,0.11904761904762037
2015-09-11,0.11235955056179948
2015-09-14,0.0
2015-09-15,0.1343283582089539
2015-09-16,0.11999999999999936
2015-09-17,0.13432835820895453
2015-09-18,0.1607142857142834
2015-09-21,0.32142857142857617
2015-09-22,9.882199477152939e-15
2015-09-23,1.3176265969536998e-14
2015-09-24,1.4374108330404048e-14
2015-09-25,0.12500000000001266
2015-09-28,0.09677419354838807
2015-09-29,0.7272727272727281
2015-09-30,0.7843137254902014
2015-10-08,0.8571428571428588
2015-10-09,0.7727272727272686
2015-10-12,0.83606557377049
2015-10-13,0.27450980392156493
2015-10-14,0.3396226415094295
2015-10-15,0.06557377049180299
2015-10-16,0.12068965517241968
2015-10-19,0.09859154929577972
2015-10-20,0.31481481481482626
2015-10-21,0.4032258064516214
2015-10-22,0.7115384615384712
2015-10-23,0.7321428571428629
2015-10-26,1.0
2015-10-27,0.8499999999999883
2015-10-28,0.43999999999999223
2015-10-29,0.212765957446793
2015-10-30,0.0588235294117543
2015-11-02,0.0
2015-11-03,0.0
2015-11-04,0.24489795918367394
2015-11-05,0.30000000000000243
2015-11-06,0.3750000000000036
2015-11-09,0.7021276595744718
2015-11-10,0.9411764705882403
2015-11-11,0.8372093023255882
2015-11-12,0.8771929824561456
2015-11-13,0.932203389830509
2015-11-16,0.9166666666666663
2015-11-17,0.591836734693868
2015-11-18,0.7647058823529344
2015-11-19,0.8095238095238035
2015-11-20,0.8117647058823484
2015-11-23,0.8584070796460151
2015-11-24,1.0
2015-11-25,0.927007299270074
2015-11-26,0.9122807017543874
2015-11-27,0.8990825688073417
2015-11-30,0.566037735849059
2015-12-01,0.0791303978083801
2015-12-02,0.15782741129609495
2015-12-03,0.06353648701336889
2015-12-04,0.07123889067352003
2015-12-07,0.07995433241196986
2015-12-08,0.36075605711518366
2015-12-09,0.2652159371508668
2015-12-10,0.27437700150918215
2015-12-11,0.42117626332325
2015-12-14,0.526315789473682
2015-12-15,0.2941176470588207
2015-12-16,0.3124999999999984
2015-12-17,0.666666666666665
2015-12-18,0.4727272727272686
2015-12-21,0.6617647058823474
2015-12-22,0.5625000000000002
2015-12-23,0.5625000000000002
2015-12-24,0.22619047619047503
2015-12-25,0.18627450980392163
2015-12-28,0.0
2015-12-29,0.09722222222222521
2015-12-30,0.1000000000000022
2015-12-31,0.16666666666667168
2016-01-04,0.7884615384615418
2016-01-05,0.8039215686274516
2016-01-06,0.7083333333333288
2016-01-07,0.8196721311475442
2016-01-08,0.8636363636363613
2016-01-11,0.38333333333333053
2016-01-12,0.4754098360655671
2016-01-13,0.6543209876543188
2016-01-14,0.5606060606060539
2016-01-15,0.4411764705882347
2016-01-18,0.8924731182795725
2016-01-19,0.7549019607843145
2016-01-20,0.5247524752475258
2016-01-21,0.46902654867256827
2016-01-22,0.5565217391304343
2016-01-25,0.09401709401709282
2016-01-26,0.11650485436893243
2016-01-27,0.13483146067415774
2016-01-28,0.20987654320987525
2016-01-29,0.1578947368421055
2016-02-01,0.6250000000000067
2016-02-02,0.5600000000000034
2016-02-03,0.7
2016-02-04,0.3750000000000067
2016-02-05,0.16666666666667532
2016-02-15,0.11764705882353063
2016-02-16,0.4583333333333327
2016-02-17,0.7428571428571418
2016-02-18,0.9285714285714161
2016-02-19,0.7878787878787722
2016-02-22,0.8205128205128074
2016-02-23,0.6764705882352865
2016-02-24,0.6764705882352925
2016-02-25,0.7187500000000082
2016-02-26,0.8571428571428704
2016-02-29,0.8974358974359062
2016-03-01,0.8974358974358987
2016-03-02,0.46511627906977315
2016-03-03,0.6290322580645168
2016-03-04,0.6031746031746027
2016-03-07,0.45652173913043836
2016-03-08,0.7900000000000008
2016-03-09,0.9782608695652173
2016-03-10,0.978021978021978
2016-03-11,1.0
2016-03-14,0.7272727272727267
2016-03-15,0.3407407407407413
2016-03-16,0.2500000000000006
2016-03-17,0.12318840579710091
2016-03-18,0.0
2016-03-21,0.08421052631578675
2016-03-22,0.5194805194805102
2016-03-23,0.7439024390243842
2016-03-24,0.946236559139786
2016-03-25,0.9361702127659566
2016-03-28,0.9399999999999998
2016-03-29,0.6595744680851133
2016-03-30,0.4712643678161004
2016-03-31,0.20000000000000936
2016-04-01,0.19178082191781676
2016-04-05,0.11940298507461942
2016-04-06,0.17777777777776424
2016-04-07,0.23529411764704444
2016-04-08,0.15384615384614447
2016-04-11,0.4067796610169461
2016-04-12,0.2711864406779683
2016-04-13,0.5000000000000061
2016-04-14,0.643564356435645
2016-04-15,0.8552631578947348
2016-04-18,0.8705882352941161
2016-04-19,0.778947368421054
2016-04-20,0.7558139534883732
2016-04-21,0.7920792079207934
2016-04-22,0.927710843373495
2016-04-25,0.9307692307692316
2016-04-26,1.0
2016-04-27,0.9685314685314691
2016-04-28,0.8838951310861434
2016-04-29,0.3695652173913034
2016-05-03,0.20762711864406685
2016-05-04,0.0
2016-05-05,0.05235602094240709
2016-05-06,0.21287128712871142
2016-05-09,0.5054945054945064
2016-05-10,0.9558823529411787
2016-05-11,1.0
2016-05-12,1.0
2016-05-13,0.9411764705882358
2016-05-16,0.9504132231404959
2016-05-17,0.8648648648648634
2016-05-18,0.48000000000000004
2016-05-19,0.19298245614034815
2016-05-20,0.15714285714285492
2016-05-23,0.20270270270270221
2016-05-24,0.32298136645962705
2016-05-25,0.3909774436090212
2016-05-26,0.6846153846153842
2016-05-27,0.919642857142856
2016-05-30,0.8488372093023213
2016-05-31,0.46363636363636224
2016-06-01,0.5370370370370369
2016-06-02,0.5535714285714268
2016-06-03,0.4752475247524731
2016-06-06,0.3037974683544304
2016-06-07,0.4920634920634935
2016-06-08,0.36912751677852323
2016-06-13,0.07446808510638472
2016-06-14,0.35227272727272796
2016-06-15,0.539748953974897
2016-06-16,0.6296296296296302
2016-06-17,0.7250859106529226
2016-06-20,1.0
2016-06-21,0.5814977973568312
2016-06-22,0.4637681159420302
2016-06-23,0.1263157894736854
2016-06-24,0.0
2016-06-27,0.31147540983606464
2016-06-28,0.6054054054054032
2016-06-29,0.7135678391959784
2016-06-30,0.9872611464968175
2016-07-01,1.0
2016-07-04,0.8670886075949354
2016-07-05,0.8779069767441847
2016-07-06,0.8852459016393429
2016-07-07,0.89655172413793
2016-07-08,0.8618421052631572
2016-07-11,0.9034482758620708
2016-07-12,0.5000000000000022
2016-07-13,0.2877697841726679
2016-07-14,0.04605263157894888
2016-07-15,0.0
2016-07-18,0.0
2016-07-19,0.032608695652168534
2016-07-20,0.03999999999999273
2016-07-21,0.4693877551020266
2016-07-22,0.636363636363626
2016-07-25,0.6730769230769186
2016-07-26,0.4324324324324348
2016-07-27,0.2500000000000018
2016-07-28,0.08759124087591331
2016-07-29,0.0
2016-08-01,0.0
2016-08-02,0.1570680628272255
2016-08-03,0.18750000000000042
2016-08-04,0.27857142857142747
2016-08-05,0.5212390045861197
2016-08-08,0.602642621856637
2016-08-09,0.18334580229646188
2016-08-10,0.6368574079160838
2016-08-11,0.4136441546758977
2016-08-12,0.35873377330775336
2016-08-15,0.5518520974392593
2016-08-16,0.6316199267489876
2016-08-17,0.3454415500217863
2016-08-18,0.5930232558139537
2016-08-19,0.7228260869565207
2016-08-22,0.4060913705583755
2016-08-23,0.4040404040404037
2016-08-24,0.5823529411764709
2016-08-25,0.33112582781456806
2016-08-26,0.12418300653594791
2016-08-29,0.3061224489795923
2016-08-30,0.27522935779816615
2016-08-31,0.1195652173913054
2016-09-01,0.15068493150685117
2016-09-02,0.24444444444444763
2016-09-05,0.24444444444444763
2016-09-06,0.5813953488372107
2016-09-07,0.6923076923076958
2016-09-08,0.5624999999999986
2016-09-09,0.5217391304347817
2016-09-12,0.5147058823529376
2016-09-13,0.44067796610169163
2016-09-14,0.25423728813558855
2016-09-19,0.5714285714285696
2016-09-20,0.7249999999999984
2016-09-21,0.2878787878787901
2016-09-22,0.32857142857142974
2016-09-23,0.4626865671641817
2016-09-26,0.3000000000000003
2016-09-27,0.35384615384615326
2016-09-28,0.6388888888888872
2016-09-29,0.28571428571428753
2016-09-30,0.3749999999999986
2016-10-10,0.6081081081081103
2016-10-11,0.5131578947368429
2016-10-12,0.7169811320754699
2016-10-13,0.916666666666665
2016-10-14,0.802197802197801
2016-10-17,0.6049382716049349
2016-10-18,0.6962025316455687
2016-10-19,0.3673469387755158
2016-10-20,0.45614035087719607
2016-10-21,0.37142857142857333
2016-10-24,0.4406779661016992
2016-10-25,0.467741935483869
2016-10-26,0.5737704918032761
2016-10-27,0.46938775510203545
2016-10-28,0.638888888888892
2016-10-31,0.7500000000000039
2016-11-01,0.6000000000000063
2016-11-02,0.8409090909090938
2016-11-03,0.5280000000000018
2016-11-04,0.6643835616438354
2016-11-07,0.6549295774647879
2016-11-08,0.6830985915492955
2016-11-09,0.2794117647058807
2016-11-10,0.6918604651162764
2016-11-11,0.7022471910112335
2016-11-14,0.8267973856209134
2016-11-15,0.8445747800586493
2016-11-16,0.9931034482758637
2016-11-17,0.747292418772564
2016-11-18,0.6028368794326251
2016-11-21,0.17180616740088028
2016-11-22,0.0
2016-11-23,0.11267605633802819
2016-11-24,0.33149171270718275
2016-11-25,0.422535211267606
2016-11-28,0.9152360825637637
2016-11-29,0.8082701000143163
2016-11-30,0.6810405004037673
2016-12-01,0.2434788254581311
2016-12-02,0.623669715982556
2016-12-05,0.20723557906739437
2016-12-06,0.21649973258131894
2016-12-07,0.1475519840941099
2016-12-08,0.1203833392994864
2016-12-09,0.012903225806452109
2016-12-12,0.2941176470588278
2016-12-13,0.2651515151515198
2016-12-14,0.5945945945946
2016-12-15,0.6346153846153885
2016-12-16,0.5000000000000024
2016-12-19,0.2520325203252026
2016-12-20,0.550632911392402
2016-12-21,0.3522012578616327
2016-12-22,0.43421052631578705
2016-12-23,0.47826086956521435
2016-12-26,0.6589147286821685
2016-12-27,0.23199999999999926
2016-12-28,0.31914893617021006
2016-12-29,0.21052631578946943
2016-12-30,0.3505154639175222
2017-01-03,0.1578947368421028
2017-01-04,0.4399999999999971
2017-01-05,0.44000000000000367
2017-01-06,0.431372549019614
2017-01-09,0.18181818181819034
2017-01-10,0.20512820512821275
2017-01-11,0.22500000000000803
2017-01-12,0.17777777777777815
2017-01-13,0.722222222222221
2017-01-16,0.804347826086952
2017-01-17,0.9294117647058796
2017-01-18,0.7473684210526281
2017-01-19,0.8163265306122441
2017-01-20,0.2771084337349427
2017-01-23,0.14285714285714837
2017-01-24,0.08910891089109277
2017-01-25,0.2600000000000044
2017-01-26,0.16504854368932131
2017-02-03,0.46987951807228995
2017-02-06,0.7849462365591379
2017-02-07,0.8390804597701151
2017-02-08,0.8333333333333333
2017-02-09,0.9736842105263186
2017-02-10,0.6842105263157904
2017-02-13,0.2727272727272743
2017-02-14,0.3783783783783782
2017-02-15,0.13461538461538305
2017-02-16,0.2968750000000005
2017-02-17,0.5277777777777781
2017-02-20,0.5507246376811562
2017-02-21,0.5507246376811551
2017-02-22,0.8604651162790652
2017-02-23,0.8058252427184399
2017-02-24,0.40178571428570925
2017-02-27,0.5196078431372513
2017-02-28,0.36134453781512516
2017-03-01,0.0833333333333318
2017-03-02,0.07017543859649024
2017-03-03,0.1081081081081071
2017-03-06,0.22352941176471453
2017-03-07,0.29230769230770287
2017-03-08,0.4237288135593286
2017-03-09,0.49999999999999684
2017-03-10,0.6727272727272673
2017-03-13,0.33333333333332194
2017-03-14,0.7070707070706991
2017-03-15,0.7010309278350451
2017-03-16,0.8144329896907176
2017-03-17,0.795454545454541
2017-03-20,1.0
2017-03-21,0.6326588172833915
2017-03-22,0.4155612113222967
2017-03-23,0.46055346455913854
2017-03-24,0.43665567335856886
2017-03-27,0.18587461827235605
2017-03-28,0.19212828926204903
2017-03-29,0.3746369192008605
2017-03-30,0.11811465764327274
2017-03-31,0.20791281965447975
2017-04-05,0.24358974358974067
2017-04-06,0.3965517241379267
2017-04-07,0.27083333333333026
2017-04-10,0.7222222222222174
2017-04-11,0.3400000000000022
2017-04-12,0.7261904761904803
2017-04-13,0.7722772277227746
2017-04-14,0.6964285714285732
2017-04-17,0.5963302752293611
2017-04-18,0.7471264367816116
2017-04-19,0.4199999999999997
2017-04-20,0.0
2017-04-21,0.0
2017-04-24,0.5263157894736894
2017-04-25,0.4761904761904791
2017-04-26,0.5833333333333327
2017-04-27,0.5675675675675661
2017-04-28,0.5121951219512123
2017-05-02,0.19999999999999238
2017-05-03,0.22727272727271947
2017-05-04,0.08000000000000183
2017-05-05,0.3620689655172437
2017-05-08,0.6630434782608716
2017-05-09,0.4560000000000014
2017-05-10,0.4803149606299232
2017-05-11,0.6262626262626263
2017-05-12,0.6262626262626252
2017-05-15,0.23655913978494258
2017-05-16,0.49999999999999317
2017-05-17,0.5072463768115855
2017-05-18,0.6136363636363612
2017-05-19,0.3854166666666669
2017-05-22,0.6875000000000031
2017-05-23,0.5890410958904174
2017-05-24,0.594594594594603
2017-05-25,0.26966292134831776
2017-05-26,0.4202898550724642
2017-05-31,0.6039603960396022
2017-06-01,0.5980392156862727
2017-06-02,0.572916666666664
2017-06-05,0.9189189189189203
2017-06-06,0.6774193548387091
2017-06-07,0.12037037037036857
2017-06-08,0.11926605504586936
2017-06-09,0.10924369747898958
2017-06-12,0.0
2017-06-13,0.0
2017-06-14,0.0
2017-06-15,0.5789473684210541
2017-06-16,0.8775510204081611
2017-06-19,0.9423076923076855
2017-06-20,0.999999999999994
2017-06-21,0.890909090909094
2017-06-22,0.8695652173913067
2017-06-23,0.40425531914893625
2017-06-26,0.22033898305084912
2017-06-27,0.2166666666666641
2017-06-28,0.32786885245901615
2017-06-29,0.08333333333333547
2017-06-30,0.432989690721651
2017-07-03,0.7897727272727274
2017-07-04,0.8021978021978022
2017-07-05,0.7554347826086946
2017-07-06,0.9437499999999986
2017-07-07,0.7388535031847111
2017-07-10,0.24050632911392075
2017-07-11,0.3023255813953471
2017-07-12,0.39285714285714274
2017-07-13,0.5363636363636357
2017-07-14,0.8347826086956519
2017-07-17,0.5783132530120488
2017-07-18,0.5394736842105271
2017-07-19,0.5302013422818789
2017-07-20,0.26451612903225846
2017-07-21,0.025477707006368155
2017-07-24,0.3759398496240606
2017-07-25,0.44666666666666627
2017-07-26,0.5257142857142856
2017-07-27,0.75
2017-07-28,1.0
2017-07-31,0.7722772277227745
2017-08-01,0.5398230088495601
2017-08-02,0.27826086956522006
2017-08-03,0.20704171285373324
2017-08-04,0.14462329940676558
2017-08-07,0.14964059917022154
2017-08-08,0.3888719744253284
2017-08-09,0.550262080850144
2017-08-10,0.23229915002236617
2017-08-11,0.6363819063585823
2017-08-14,0.7282907179879582
2017-08-15,0.5893932999283373
2017-08-16,0.6209150326797387
2017-08-17,0.7851239669421498
2017-08-18,0.07407407407407399
2017-08-21,0.03623188405797077
2017-08-22,0.25999999999999934
2017-08-23,0.22368421052631512
2017-08-24,0.26923076923076894
2017-08-25,0.7540983606557335
2017-08-28,0.8813559322033876
2017-08-29,0.3461538461538452
2017-08-30,0.4905660377358497
2017-08-31,0.31034482758620846
2017-09-01,0.37500000000000655
2017-09-04,0.2727272727272758
2017-09-05,0.36000000000000215
2017-09-06,0.20408163265306473
2017-09-07,0.4999999999999973
2017-09-08,0.5737704918032737
2017-09-11,0.6603773584905663
2017-09-12,0.8600000000000033
2017-09-13,1.0
2017-09-14,0.9210526315789487
2017-09-15,0.6538461538461547
2017-09-18,0.6931818181818166
2017-09-19,0.6543209876543192
2017-09-20,0.11764705882352593
2017-09-21,0.2247191011235921
2017-09-22,0.616
2017-09-25,0.5630252100840359
2017-09-26,0.5819672131147562
2017-09-27,0.9518072289156657
2017-09-28,0.9500000000000032
2017-09-29,0.6333333333333289
2017-10-09,0.6129032258064427
2017-10-10,0.40540540540540004
2017-10-11,0.421052631578941
2017-10-12,0.17307692307692152
2017-10-13,0.35714285714285915
2017-10-16,0.3703703703703714
2017-10-17,0.599999999999998
2017-10-18,0.38028169014084323
2017-10-19,0.5490196078431364
2017-10-20,0.15740740740740808
2017-10-23,0.38028169014084556
2017-10-24,0.2638888888888895
2017-10-25,0.34351145038168096
2017-10-26,0.4228187919463088
2017-10-27,0.8043478260869535
2017-10-30,0.3699999999999996
2017-10-31,0.5161290322580683
2017-11-01,0.46067415730337347
2017-11-02,0.27160493827160903
2017-11-03,0.13253012048193347
2017-11-06,0.41304347826087895
2017-11-07,0.22857142857143195
2017-11-08,0.27272727272728253
2017-11-09,0.3333333333333443
2017-11-10,0.8837209302325592
2017-11-13,0.8611111111111119
2017-11-14,0.8157894736842144
2017-11-15,0.8833333333333347
2017-11-16,0.9722222222222239
2017-11-17,0.6406249999999968
2017-11-20,0.7889908256880719
2017-11-21,0.8235294117647035
2017-11-22,0.7142857142857134
2017-11-23,0.5576923076923073
2017-11-24,0.674418604651166
2017-11-27,0.16901408450704217
2017-11-28,0.0
2017-11-29,0.0
2017-11-30,0.030303030303028382
2017-12-01,0.07575757575757128
2017-12-04,0.5161290322580586
2017-12-05,0.7199999999999989
2017-12-06,1.0
2017-12-07,1.0
2017-12-08,0.9924374636416532
2017-12-11,0.5227903289734479
2017-12-12,0.4405962512913847
2017-12-13,0.10982819996904782
2017-12-14,0.0
2017-12-15,0.0
2017-12-18,0.0
2017-12-19,0.20135949724252403
2017-12-20,0.2727272727272684
2017-12-21,0.22641509433961832
2017-12-22,0.24489795918366938
2017-12-25,0.5199999999999915
2017-12-26,0.29411764705883564
2017-12-27,0.10000000000000721
2017-12-28,0.12000000000000981
2017-12-29,0.6607142857142899
2018-01-02,0.6885245901639399
2018-01-03,0.5128205128205151
2018-01-04,0.6461538461538487
2018-01-05,0.7323943661971821
2018-01-08,0.2769230769230747
2018-01-09,0.20338983050847
2018-01-10,0.37777777777777244
2018-01-11,0.4509803921568565
2018-01-12,0.3170731707317043
2018-01-15,1.0
2018-01-16,0.6818181818181798
2018-01-17,0.6097560975609729
2018-01-18,0.36956521739130443
2018-01-19,0.36170212765957543
2018-01-22,0.0
2018-01-23,0.08888888888889175
2018-01-24,0.2641509433962333
2018-01-25,0.5737704918032819
2018-01-26,0.5833333333333355
2018-01-29,1.0
2018-01-30,1.0
2018-01-31,0.8999999999999952
2018-02-01,0.6086956521739129
2018-02-02,0.600000000000001
2018-02-05,0.12698412698412687
2018-02-06,0.0
2018-02-07,0.17910447761194256
2018-02-08,0.24489795918367402
2018-02-09,0.19354838709677394
2018-02-12,0.6406249999999938
2018-02-13,0.724137931034477
2018-02-14,0.4545454545454513
2018-02-22,0.6
2018-02-23,0.6799999999999997
2018-02-26,0.3055555555555577
2018-02-27,0.3333333333333346
2018-02-28,0.6296296296296294
2018-03-01,0.4545454545454517
2018-03-02,0.8139534883720906
2018-03-05,0.9636363636363611
2018-03-06,0.9655172413793077
2018-03-07,0.9466666666666632
2018-03-08,0.9594594594594621
2018-03-09,0.2935779816513762
2018-03-12,0.13265306122448686
2018-03-13,0.0
2018-03-14,0.0
2018-03-15,0.15126050420167966
2018-03-16,0.25352112676055977
2018-03-19,0.38356164383561436
2018-03-20,0.38356164383561436
2018-03-21,0.4590163934426228
2018-03-22,0.16393442622950682
2018-03-23,0.7383177570093437
2018-03-26,0.7910447761194014
2018-03-27,0.8732198157929003
2018-03-28,0.8838674335798383
2018-03-29,0.9992819735469943
2018-03-30,0.999033934951621
2018-04-02,0.6712086498653533
2018-04-03,0.40534573248885236
2018-04-04,0.5493193895819771
2018-04-09,0.6237842197656263
2018-04-10,0.29173908006024846
2018-04-11,0.3225806451612902
2018-04-12,0.3623188405797088
2018-04-13,0.20000000000000173
2018-04-16,0.0
2018-04-17,0.3333333333333513
2018-04-18,0.6470588235294216
2018-04-19,0.589285714285723
2018-04-20,0.47142857142857786
2018-04-23,0.6307692307692335
2018-04-24,0.22222222222221627
2018-04-25,0.15151515151514935
2018-04-26,0.21999999999999584
2018-04-27,0.3684210526315728
2018-05-02,0.2673267326732629
2018-05-03,0.714285714285709
2018-05-04,0.5714285714285671
2018-05-07,0.6612903225806452
2018-05-08,0.7558139534883723
2018-05-09,0.7558139534883749
2018-05-10,0.7529411764705918
2018-05-11,0.8333333333333345
2018-05-14,0.6666666666666652
2018-05-15,0.17105263157894537
2018-05-16,0.6423357664233559
2018-05-17,0.6524822695035437
2018-05-18,0.5890410958904087
2018-05-21,0.6549295774647879
2018-05-22,0.8378378378378388
2018-05-23,0.2117647058823551
2018-05-24,0.3092783505154689
2018-05-25,0.3061224489795987
2018-05-28,0.20000000000000256
2018-05-29,0.28571428571428675
2018-05-30,0.4249999999999993
2018-05-31,0.14666666666666386
2018-06-01,0.1549295774647852
2018-06-04,0.3793103448275796
2018-06-05,0.47826086956521285
2018-06-06,0.4459459459459488
2018-06-07,0.49253731343284457
2018-06-08,0.8375000000000058
2018-06-11,0.7935483870967798
2018-06-12,0.5674157303370817
2018-06-13,0.677083333333334
2018-06-14,0.6701030927835036
2018-06-15,0.16666666666666535
2018-06-19,0.3084577114427863
2018-06-20,0.47191011235955027
2018-06-21,0.3313253012048204
2018-06-22,0.5399061032863854
2018-06-25,0.7823129251700679
2018-06-26,0.6833333333333318
2018-06-27,0.7205882352941168
2018-06-28,0.8306451612903208
2018-06-29,0.4257425742574265
2018-07-02,0.6928571428571438
2018-07-03,0.6783216783216806
2018-07-04,0.4573643410852721
2018-07-05,0.5
2018-07-06,0.7518796992481204
2018-07-09,0.4070796460177018
2018-07-10,0.3770491803278701
2018-07-11,0.4380952380952402
2018-07-12,0.30612244897959473
2018-07-13,0.0
2018-07-16,0.0
2018-07-17,0.08988764044943762
2018-07-18,0.0869565217391302
2018-07-19,0.08695652173913047
2018-07-20,0.19565217391304907
2018-07-23,0.310344827586231
2018-07-24,0.03125000000001148
2018-07-25,0.03030303030304138
2018-07-26,0.03125000000001148
2018-07-27,0.09313691265796366
2018-07-30,0.23827414858803675
2018-07-31,0.31033121991001145
2018-08-01,0.8543359397965798
2018-08-02,0.8685314685314677
2018-08-03,0.8951902642638633
2018-08-06,0.9092237216788426
2018-08-07,0.9353240142994681
2018-08-08,0.7406760576326553
2018-08-09,0.8472222222222258
2018-08-10,0.5774647887323991
2018-08-13,0.7321428571428573
2018-08-14,0.7368421052631577
2018-08-15,0.6043165467625838
2018-08-16,0.664634146341461
2018-08-17,0.7599999999999959
2018-08-20,0.3999999999999969
2018-08-21,0.28169014084506994
2018-08-22,0.47200000000000325
2018-08-23,0.40540540540540976
2018-08-24,0.3448275862069021
2018-08-27,0.6555555555555604
2018-08-28,0.8082191780821918
2018-08-29,0.519480519480519
2018-08-30,0.1775700934579427
2018-08-31,0.2200000000000007
2018-09-03,0.020689655172415618
2018-09-04,0.13750000000000112
2018-09-05,0.2068965517241393
2018-09-06,0.3191489361702176
2018-09-07,0.4336283185840729
2018-09-10,1.0
2018-09-11,0.8888888888888898
2018-09-12,0.8804347826086966
2018-09-13,0.9160305343511451
2018-09-14,0.6853146853146854
2018-09-17,0.31746031746031356
2018-09-18,0.44029850746268295
2018-09-19,0.4202898550724605
2018-09-20,0.14843749999999972
2018-09-21,0.24242424242423952
2018-09-25,0.5405405405405422
2018-09-26,0.25301204819277173
2018-09-27,0.3522727272727309
2018-09-28,0.48437500000000194
2018-10-08,0.6024096385542188
2018-10-09,0.5540540540540556
2018-10-10,0.9107142857142859
2018-10-11,0.9253731343283574
2018-10-12,1.0
2018-10-15,0.7536231884057948
2018-10-16,0.6249999999999963
2018-10-17,0.61428571428571
2018-10-18,0.30985915492957594
2018-10-19,0.10666666666666665
2018-10-22,0.462365591397852
2018-10-23,0.36752136752136966
2018-10-24,0.29411764705882626
2018-10-25,0.3181818181818217
2018-10-26,0.5440000000000014
2018-10-29,0.2972972972972958
2018-10-30,0.6615384615384636
2018-10-31,0.6466165413533825
2018-11-01,0.7874999999999971
2018-11-02,0.8219895287958098
2018-11-05,0.9308510638297853
2018-11-06,0.6892655367231613
2018-11-07,0.7801047120418839
2018-11-08,0.7910447761194025
2018-11-09,0.39419087136929315
2018-11-12,0.29615384615384566
2018-11-13,0.40506329113924017
2018-11-14,0.30530973451327426
2018-11-15,0.08296943231441066
2018-11-16,0.40449438202247284
2018-11-19,0.4965517241379324
2018-11-20,0.41085271317829486
2018-11-21,0.5918367346938767
2018-11-22,0.7249999999999998
2018-11-23,0.49275362318840654
2018-11-26,0.7876712328767127
2018-11-27,0.8469945355191273
2018-11-28,0.650537634408604
2018-11-29,0.7562500000000018
2018-11-30,0.5764955002646907
2018-12-03,0.22016852405545054
2018-12-04,0.0
2018-12-05,0.14539409247899282
2018-12-06,0.14108496110847005
2018-12-07,0.20246213480726252
2018-12-10,0.29407778125325595
2018-12-11,0.32573045386303023
2018-12-12,0.0
2018-12-13,0.0
2018-12-14,0.4807692307692344
2018-12-17,0.5434782608695682
2018-12-18,0.6578947368421055
2018-12-19,0.5494505494505505
2018-12-20,0.5319148936170214
2018-12-21,0.0
2018-12-24,0.3382352941176475
2018-12-25,0.3787878787878806
2018-12-26,0.44247787610619593
2018-12-27,0.5757575757575759
2018-12-28,0.9431818181818172
2019-01-02,0.4567901234567884
2019-01-03,0.4230769230769206
2019-01-04,0.5999999999999976
2019-01-07,0.38202247191011024
2019-01-08,0.30337078651685073
2019-01-09,0.42857142857142433
2019-01-10,0.5070422535211221
2019-01-11,0.19148936170212677
2019-01-14,0.5576923076923109
2019-01-15,0.6521739130434877
2019-01-16,0.9433962264151027
2019-01-17,0.7592592592592701
2019-01-18,0.6507936507936517
2019-01-21,0.39622641509433976
2019-01-22,0.48387096774193133
2019-01-23,0.16949152542372622
2019-01-24,0.19607843137254577
2019-01-25,0.3958333333333347
2019-01-28,0.31666666666666743
2019-01-29,0.2115384615384632
2019-01-30,0.2750000000000003
2019-01-31,0.4374999999999931
2019-02-01,0.4807692307692229
2019-02-11,0.9418604651162777
2019-02-12,0.9294117647058813
2019-02-13,0.9879518072289158
2019-02-14,0.911392405063294
2019-02-15,0.7468354430379766
2019-02-18,0.04109589041095783
2019-02-19,0.036144578313252095
2019-02-20,0.26605504587156104
2019-02-21,0.26363636363636445
2019-02-22,0.2761904761904774
2019-02-25,0.6666666666666666
2019-02-26,0.7222222222222201
2019-02-27,0.41071428571428104
2019-02-28,0.5357142857142818
2019-03-01,0.854838709677418
2019-03-04,0.8407079646017692
2019-03-05,0.9022556390977441
2019-03-06,1.0
2019-03-07,1.0
2019-03-08,0.8095238095238053
2019-03-11,0.5909090909090885
2019-03-12,0.5781249999999984
2019-03-13,0.4090909090909065
2019-03-14,0.40909090909090684
2019-03-15,0.2666666666666673
2019-03-18,0.29508196721311564
2019-03-19,0.09629629629629693
2019-03-20,0.25384615384615544
2019-03-21,0.14388489208633176
2019-03-22,0.3406593406593404
2019-03-25,0.31958762886597886
2019-03-26,0.39743589743589747
2019-03-27,0.16923076923076688
2019-03-28,0.5999999999999978
2019-03-29,0.5362318840579694
2019-04-01,0.652173913043476
2019-04-02,0.923913043478258
2019-04-03,0.9729384759493216
2019-04-04,0.4505368357080187
2019-04-08,0.4137995193425877
2019-04-09,0.37847079517993437
2019-04-10,0.012386058556597487
2019-04-11,0.01171403962101719
2019-04-12,0.18550211583771561
2019-04-15,0.28500060628106855
2019-04-16,0.19850712508481852
2019-04-17,0.49295774647886503
2019-04-18,0.6029411764705827
2019-04-19,0.5499999999999982
2019-04-22,0.47272727272726944
2019-04-23,0.9374999999999952
2019-04-24,0.7142857142857242
2019-04-25,0.8125000000000043
2019-04-26,0.5675675675675663
2019-04-29,0.3620689655172431
2019-04-30,0.3833333333333367
2019-05-06,0.5600000000000015
2019-05-07,0.44067796610169696
2019-05-08,0.5098039215686329
2019-05-09,0.9764705882352958
2019-05-10,0.9797979797979812
2019-05-13,0.8478260869565204
2019-05-14,0.8571428571428561
2019-05-15,0.8965517241379288
2019-05-16,0.6811594202898523
2019-05-17,0.38571428571428257
2019-05-20,0.5507246376811575
2019-05-21,0.6477272727272697
2019-05-22,0.6804123711340175
2019-05-23,0.7415730337078642
2019-05-24,0.9761904761904779
2019-05-27,0.9838709677419367
2019-05-28,0.774193548387102
2019-05-29,0.8352941176470635
2019-05-30,0.8693467336683455
2019-05-31,0.8351063829787293
2019-06-03,0.6625000000000073
2019-06-04,0.8502673796791475
2019-06-05,0.4158415841584161
2019-06-06,0.3045977011494239
2019-06-10,0.30994152046783396
2019-06-11,0.30994152046783285
2019-06-12,0.0
2019-06-13,0.2843137254901931
2019-06-14,0.18589743589743393
2019-06-17,0.34554973821989365
2019-06-18,0.41714285714285815
2019-06-19,0.6369426751592364
2019-06-20,0.39664804469274184
2019-06-21,0.6792452830188739
2019-06-24,0.6136363636363713
2019-06-25,0.5736434108527178
2019-06-26,0.3615384615384648
2019-06-27,0.7009345794392503
2019-06-28,0.4749999999999946
2019-07-01,0.6315789473684161
2019-07-02,0.6779661016949118
2019-07-03,0.7547169811320728
2019-07-04,0.6666666666666615
2019-07-05,0.5652173913043472
2019-07-08,0.06299212598425175
2019-07-09,0.024590163934427003
2019-07-10,0.02777777777777859
2019-07-11,0.024193548387097627
2019-07-12,0.02857142857142959
2019-07-15,0.5892857142857164
2019-07-16,0.5740740740740744
2019-07-17,0.5961538461538487
2019-07-18,0.8750000000000004
2019-07-19,0.9210526315789435
2019-07-22,0.4545454545454419
2019-07-23,0.13333333333332448
2019-07-24,0.31578947368420435
2019-07-25,0.19047619047618994
2019-07-26,0.4464285714285703
2019-07-29,0.2631578947368403
2019-07-30,0.44444444444444553
2019-07-31,0.3404255319148951
2019-08-01,0.3678160919540249
2019-08-02,0.4500000000000027
2019-08-05,0.8807339449541296
2019-08-06,0.8725490196078431
2019-08-07,0.9893617021276604
2019-08-08,1.0
2019-08-09,0.6994443495941245
2019-08-12,0.24202895177806552
2019-08-13,0.3550728225031988
2019-08-14,0.5630451844878613
2019-08-15,0.4708360709414567
2019-08-16,0.5587119019131094
2019-08-19,0.7477667040891554
2019-08-20,0.4237871812786673
2019-08-21,0.0
2019-08-22,0.06474820143884752
2019-08-23,0.07913669064747926
2019-08-26,0.3749999999999998
2019-08-27,0.6036585365853665
2019-08-28,0.9801980198019816
2019-08-29,0.978260869565219
2019-08-30,0.9780219780219797
2019-09-02,0.5384615384615351
2019-09-03,0.02127659574467975
2019-09-04,0.2542372881355871
2019-09-05,0.4883720930232519
2019-09-06,0.6302521008403336
2019-09-09,0.6302521008403366
2019-09-10,0.6637168141592915
2019-09-11,0.6237623762376245
2019-09-12,0.3302752293577983
2019-09-16,0.015625000000000604
2019-09-17,0.016806722689076254
2019-09-18,0.03809523809523701
2019-09-19,0.01724137931034327
2019-09-20,0.08139534883720914
2019-09-23,0.38095238095238626
2019-09-24,0.4571428571428642
2019-09-25,0.7397260273972652
2019-09-26,0.8059701492537239
2019-09-27,0.7538461538461457
2019-09-30,0.7746478873239354
2019-10-08,0.8989898989898932
2019-10-09,0.6282051282051242
2019-10-10,0.6447368421052674
2019-10-11,0.6756756756756815
2019-10-14,0.5223880597014995
2019-10-15,0.0166666666666702
2019-10-16,0.01960784313725914
2019-10-17,0.02127659574468519
2019-10-18,0.14814814814815244
2019-10-21,0.506493506493506
2019-10-22,0.8358208955223865
2019-10-23,0.8615384615384539
2019-10-24,0.8974358974358946
2019-10-25,0.7209302325581327
2019-10-28,0.41891891891891975
2019-10-29,0.16279069767442497
2019-10-30,0.20987654320988136
2019-10-31,0.16883116883116478
2019-11-01,0.3043478260869524
2019-11-04,0.2624999999999927
2019-11-05,0.5238095238095152
2019-11-06,0.6249999999999973
2019-11-07,0.43478260869564717
2019-11-08,0.351648351648351
2019-11-11,0.7184466019417448
2019-11-12,0.7211538461538447
2019-11-13,0.5288461538461541
2019-11-14,0.6707317073170799
2019-11-15,0.7849462365591436
2019-11-18,0.6153846153846239
2019-11-19,0.32758620689655554
2019-11-20,0.6545454545454541
2019-11-21,0.7323943661971808
2019-11-22,0.5151515151515158
2019-11-25,0.4125000000000025
2019-11-26,0.5757575757575822
2019-11-27,0.3684210526315807
2019-11-28,0.08474576271186643
2019-11-29,0.24074074074073912
2019-12-02,0.2599999999999963
2019-12-03,0.39344262295081367
2019-12-04,0.3636363636363609
2019-12-05,0.5881322679335181
2019-12-06,0.4380185206824002
2019-12-09,0.5078621810884291
2019-12-10,0.1765272706741457
2019-12-11,0.38082994127334413
2019-12-12,0.35266504779462476
2019-12-13,0.506402833886561
2019-12-16,0.49518162222911505
2019-12-17,0.8932305998899233
2019-12-18,0.549999999999999
2019-12-19,0.2857142857142898
2019-12-20,0.1206896551724179
2019-12-23,0.14545454545454894
2019-12-24,0.018867924528300207
2019-12-25,0.021276595744678984
2019-12-26,0.09374999999999137
2019-12-27,0.4090909090908971
2019-12-30,0.6976744186046459
2019-12-31,0.7500000000000058
2020-01-02,0.9444444444444494
2020-01-03,0.8421052631579016
2020-01-06,0.787878787878798
2020-01-07,0.12121212121212845
2020-01-08,0.47058823529412036
2020-01-09,0.5909090909090898
2020-01-10,0.7889908256880721
2020-01-13,0.796296296296295
2020-01-14,1.0
2020-01-15,0.8690476190476196
2020-01-16,0.7200000000000008
2020-01-17,0.10000000000000368
2020-01-20,0.08860759493670858
2020-01-21,0.16279069767441837
2020-01-22,0.42452830188679047
2020-01-23,0.4795918367346911
2020-02-03,0.9249999999999989
2020-02-04,1.0
2020-02-05,0.8797814207650274
2020-02-06,0.6951871657754012
2020-02-07,0.6530612244897965
2020-02-10,0.34042553191489366
2020-02-11,0.0
2020-02-12,0.018292682926829482
2020-02-13,0.21249999999999963
2020-02-14,0.27672955974842584
2020-02-17,0.415094339622638
2020-02-18,0.9531249999999994
2020-02-19,0.8169014084507034
2020-02-20,0.44262295081967223
2020-02-21,0.30357142857143454
2020-02-24,0.49295774647887786
2020-02-25,0.33333333333333504
2020-02-26,0.4222222222222245
2020-02-27,0.7916666666666795
2020-02-28,1.0
2020-03-02,1.0
2020-03-03,1.0
2020-03-04,1.0
2020-03-05,1.0
2020-03-06,0.66860465116279
2020-03-09,0.17361111111111058
2020-03-10,0.17006802721088218
2020-03-11,0.05223880597014957
2020-03-12,0.0
2020-03-13,0.40336134453781775
2020-03-16,0.6315789473684287
2020-03-17,0.7474747474747545
2020-03-18,0.8039215686274496
2020-03-19,0.8492063492063499
2020-03-20,0.533256029132035
2020-03-23,0.7265113642220268
2020-03-24,0.601731488618597
2020-03-25,0.5782556364625753
2020-03-26,0.34643514678212306
2020-03-27,0.7143347532337863
2020-03-30,0.441553963677435
2020-03-31,0.48436552394242854
2020-04-01,0.7338537038533003
2020-04-02,0.8434782608695618
2020-04-03,0.7204301075268792
2020-04-07,0.6907216494845372
2020-04-08,0.6907216494845436
2020-04-09,0.01941747572815007
2020-04-10,0.0
2020-04-13,0.0
2020-04-14,0.0
2020-04-15,0.0
2020-04-16,0.44318181818182095
2020-04-17,0.48749999999999805
2020-04-20,0.40624999999999983
2020-04-21,0.43820224719101025
2020-04-22,0.4936708860759521
2020-04-23,0.0
2020-04-24,0.0
2020-04-27,0.1621621621621642
2020-04-28,0.4200000000000003
2020-04-29,0.45161290322580505
2020-04-30,0.7777777777777795
2020-05-06,0.8947368421052657
2020-05-07,0.5833333333333361
2020-05-08,0.3768115942029057
2020-05-11,0.562500000000006
2020-05-12,0.6111111111111149
2020-05-13,0.36249999999999755
2020-05-14,0.7164179104477552
2020-05-15,0.484848484848475
2020-05-18,0.2631578947368306
2020-05-19,0.29113924050631734
2020-05-20,0.38461538461537664
2020-05-21,0.16666666666667776
2020-05-22,0.821428571428579
2020-05-25,0.6216216216216357
2020-05-26,0.4418604651162975
2020-05-27,0.5555555555555646
2020-05-28,0.5636363636363668
2020-05-29,0.3199999999999977
2020-06-01,0.5833333333333269
2020-06-02,0.7619047619047552
2020-06-03,0.3725490196078403
2020-06-04,0.4285714285714262
2020-06-05,0.5319148936170239
2020-06-08,0.26530612244898527
2020-06-09,0.25000000000001216
2020-06-10,0.5
2020-06-11,0.26086956521739
2020-06-12,0.3928571428571373
2020-06-15,0.8965517241379325
2020-06-16,0.7187499999999852
2020-06-17,0.7631578947368385
2020-06-18,0.45312499999999983
2020-06-19,0.31506849315068874
2020-06-22,0.11428571428571911
2020-06-23,0.3253012048192793
2020-06-24,0.1999999999999993
2020-06-29,0.3472222222222204
2020-06-30,0.38461538461538286
2020-07-01,0.6500000000000008
2020-07-02,0.41249999999999926
2020-07-03,0.5645161290322555
2020-07-06,0.5263157894736838
2020-07-07,0.7121212121212124
2020-07-08,0.2777777777777806
2020-07-09,0.37735849056604526
2020-07-10,0.5540540540540626
2020-07-13,0.7480916030534387
2020-07-14,0.6480000000000001
2020-07-15,0.771428571428567
2020-07-16,0.8048780487804829
2020-07-17,0.6495726495726402
2020-07-20,0.2571428571428487
2020-07-21,0.5119047619047568
2020-07-22,0.6626506024096319
2020-07-23,0.6705882352941113
2020-07-24,0.8804347826086957
2020-07-27,1.0
2020-07-28,1.0
2020-07-29,0.9196428571428598
2020-07-30,0.709401709401713
2020-07-31,0.6633663366336656
2020-08-03,0.4217687074829932
2020-08-04,0.05369127516778406
2020-08-05,0.2048192771084317
2020-08-06,0.22516556291390513
2020-08-07,0.14824365921100605
2020-08-10,0.20376384293075667
2020-08-11,0.29940239943401425
2020-08-12,0.0
2020-08-13,0.2015211594403676
2020-08-14,0.3463885097038453
2020-08-17,0.3285224566992986
2020-08-18,0.40906255475731257
2020-08-19,0.8321710973740484
2020-08-20,0.39473684210525845
2020-08-21,0.3428571428571376
2020-08-24,0.5151515151515111
2020-08-25,0.68627450980392
2020-08-26,0.659574468085104
2020-08-27,0.75609756097561
2020-08-28,0.7073170731707353
2020-08-31,0.7818181818181842
2020-09-01,0.7391304347826113
2020-09-02,0.4912280701754384
2020-09-03,0.7397260273972618
2020-09-04,0.8349514563106782
2020-09-07,0.8068181818181805
2020-09-08,0.5849056603773577
2020-09-09,0.7476635514018691
2020-09-10,0.6785714285714268
2020-09-11,0.6197183098591538
2020-09-14,0.7187500000000002
2020-09-15,1.0
2020-09-16,1.0
2020-09-17,1.0
2020-09-18,1.0
2020-09-21,0.505494505494501
2020-09-22,0.5499999999999992
2020-09-23,0.4642857142857139
2020-09-24,0.5631067961165039
2020-09-25,0.34666666666666746
2020-09-28,0.5092592592592633
2020-09-29,0.3300000000000018
2020-09-30,0.1605839416058417
2020-10-09,0.025423728813561967
2020-10-12,0.5694444444444415
2020-10-13,0.6196319018404871
2020-10-14,0.6433121019108269
2020-10-15,0.9310344827586216
2020-10-16,0.8571428571428599
2020-10-19,0.3186813186813205
2020-10-20,0.3541666666666689
2020-10-21,0.34000000000000097
2020-10-22,0.35294117647058576
2020-10-23,0.3428571428571422
2020-10-26,0.4235294117647066
2020-10-27,0.07964601769911223
2020-10-28,0.2755905511810997
2020-10-29,0.2580645161290342
2020-10-30,0.24427480916030578
2020-11-02,0.36440677966101825
2020-11-03,0.6515151515151513
2020-11-04,0.2615384615384693
2020-11-05,0.6129032258064511
2020-11-06,0.7565217391304356
2020-11-09,0.768595041322314
2020-11-10,0.8466257668711666
2020-11-11,1.0
2020-11-12,0.6338797814207672
2020-11-13,0.6034482758620701
2020-11-16,0.5057471264367827
2020-11-17,0.25
2020-11-18,0.0
2020-11-19,0.2268907563025186
2020-11-20,0.36619718309859156
2020-11-23,0.40000000000000174
2020-11-24,0.6875000000000014
2020-11-25,0.8041183815985229
2020-11-26,0.4645879921872819
2020-11-27,0.22440378324611154
2020-11-30,0.2664335520355758
2020-12-01,0.1274500200001629
2020-12-02,0.3887562278069825
2020-12-03,0.5611456838194722
2020-12-04,0.8468053213415792
2020-12-07,0.5375861004354232
2020-12-08,0.3368421052631553
2020-12-09,0.0
2020-12-10,0.1165048543689333
2020-12-11,0.31249999999999967
2020-12-14,0.4513274336283209
2020-12-15,0.6451612903225831
2020-12-16,1.0
2020-12-17,0.9277108433734924
2020-12-18,0.9090909090909083
2020-12-21,0.9519999999999987
2020-12-22,0.9679144385026728
2020-12-23,0.9629629629629617
2020-12-24,1.0
2020-12-25,0.919786096256682
2020-12-28,0.6374999999999975
2020-12-29,0.2137931034482747
2020-12-30,0.41836734693877425
2020-12-31,0.45714285714285463
2021-01-04,0.5147058823529405
2021-01-05,0.606936416184969
2021-01-06,0.9039999999999957
2021-01-07,0.4461538461538432
2021-01-08,0.13385826771653378
2021-01-11,0.3373493975903607
2021-01-12,0.3589743589743602
2021-01-13,0.5708154506437807
2021-01-14,0.7727272727272755
2021-01-15,0.9872611464968177
2021-01-18,0.7535211267605637
2021-01-19,0.7692307692307678
2021-01-20,0.49230769230768745
2021-01-21,0.402777777777778
2021-01-22,0.448717948717944
2021-01-25,0.8765432098765462
2021-01-26,0.8765432098765462
2021-01-27,0.4102564102564134
2021-01-28,0.4605263157894759
2021-01-29,0.30201342281879445
2021-02-01,0.06474820143885039
2021-02-02,0.0647482014388464
2021-02-03,0.1034482758620644
2021-02-04,0.3389830508474531
2021-02-05,0.34188034188033933
2021-02-08,0.39215686274509604
2021-02-09,0.5156249999999992
2021-02-10,0.7288135593220368
2021-02-18,0.4298245614035098
2021-02-19,0.6333333333333319
2021-02-22,0.6725663716814146
2021-02-23,0.7040000000000003
2021-02-24,0.5037037037037041
2021-02-25,0.6730769230769255
2021-02-26,0.750000000000003
2021-03-01,0.776119402985076
2021-03-02,0.6363636363636372
2021-03-03,0.9433962264150942
2021-03-04,0.867256637168139
2021-03-05,0.3333333333333302
2021-03-08,0.5063291139240492
2021-03-09,0.4123711340206179
2021-03-10,0.359550561797751
2021-03-11,0.5227272727272723
2021-03-12,0.6117021276595725
2021-03-15,0.503401360544218
2021-03-16,0.5522388059701472
2021-03-17,0.3375796178343974
2021-03-18,0.013071895424841336
2021-03-19,0.1304347826087027
2021-03-22,0.09142857142857293
2021-03-23,0.22619047619047652
2021-03-24,0.3435114503816758
2021-03-25,0.4999999999999901
2021-03-26,0.4705882352941048
2021-03-29,0.7843137254901855
2021-03-30,0.33333333333332266
2021-03-31,0.5714285714285706
2021-04-01,0.8369565217391323
2021-04-02,0.7150000000000042
2021-04-06,0.7009803921568658
2021-04-07,0.8151304329686173
2021-04-08,0.5911763158586979
2021-04-09,0.07783055207572781
2021-04-12,0.29992506556762843
2021-04-13,0.2907426891313436
2021-04-14,0.2264485038010275
2021-04-15,0.27109510871463105
2021-04-16,0.5995353675450712
2021-04-19,0.08420229156926784
2021-04-20,0.3378378378378312
2021-04-21,0.40983606557376956
2021-04-22,0.7399999999999957
2021-04-23,0.6476190476190476
2021-04-26,0.867469879518077
2021-04-27,0.6235294117647141
2021-04-28,0.7333333333333368
2021-04-29,0.35135135135135476
2021-04-30,0.48739495798319704
2021-05-06,0.48305084745762966
2021-05-07,0.7333333333333333
2021-05-10,0.5244755244755255
2021-05-11,0.8157894736842112
2021-05-12,0.8362573099415206
2021-05-13,0.8703703703703699
2021-05-14,0.8343195266272191
2021-05-17,1.0
2021-05-18,0.6369426751592345
2021-05-19,0.3757575757575738
2021-05-20,0.07000000000000232
2021-05-21,0.033333333333333014
2021-05-24,0.029288702928871268
2021-05-25,0.03763440860215176
2021-05-26,0.04794520547945388
2021-05-27,0.1884057971014528
2021-05-28,0.8039215686274614
2021-05-31,0.4358974358974359
2021-06-01,0.5833333333333334
2021-06-02,0.5185185185185156
2021-06-03,0.4901960784313726
2021-06-04,0.39534883720930397
2021-06-07,0.839285714285715
2021-06-08,0.7422680412371168
2021-06-09,0.933333333333336
2021-06-10,0.7313432835820896
2021-06-11,0.5149700598802404
2021-06-15,0.23008849557522182
2021-06-16,0.22222222222222174
2021-06-17,0.20869565217390837
2021-06-18,0.6331360946745554
2021-06-21,0.7867647058823509
2021-06-22,0.6045197740112987
2021-06-23,0.6294117647058828
2021-06-24,0.4940476190476209
2021-06-25,0.0
2021-06-28,0.270833333333331
2021-06-29,0.3312101910827994
2021-06-30,0.40935672514619603
2021-07-01,0.7041198501872652
2021-07-02,0.930693069306931
2021-07-05,0.7513812154696178
2021-07-06,0.8135593220339036
2021-07-07,0.8413461538461582
2021-07-08,0.23170731707317205
2021-07-09,0.24291497975708543
2021-07-12,0.3127753303964723
2021-07-13,0.31578947368420274
2021-07-14,0.10176991150441637
2021-07-15,0.5204081632653004
2021-07-16,0.428571428571427
2021-07-19,0.4576271186440724
2021-07-20,0.5187969924812129
2021-07-21,0.8671875000000075
2021-07-22,0.8802816901408513
2021-07-23,1.0
2021-07-26,0.968
2021-07-27,0.7759999999999948
2021-07-28,0.41666666666666
2021-07-29,0.09999999999999316
2021-07-30,0.13970588235294223
2021-08-02,0.12837837837837943
2021-08-03,0.14843750000000172
2021-08-04,0.22891566265060534
2021-08-05,0.3877551020408155
2021-08-06,0.0
2021-08-09,0.35185185185184276
2021-08-10,0.35185185185184276
2021-08-11,0.4363636363636293
2021-08-12,0.7751191177915298
2021-08-13,0.9711778709004704
2021-08-16,0.7660668960969783
2021-08-17,0.8210486129777472
2021-08-18,0.8246076896643908
2021-08-19,0.5510993835686001
2021-08-20,0.2758069654399919
2021-08-23,0.31896485129393615
2021-08-24,0.07335229467326751
2021-08-25,0.0
2021-08-26,0.13253012048192608
2021-08-27,0.14473684210526136
2021-08-30,0.3882352941176497
2021-08-31,0.6666666666666664
2021-09-01,0.7076923076923057
2021-09-02,0.42682926829268236
2021-09-03,0.507246376811592
2021-09-06,0.18571428571428183
2021-09-07,0.03389830508474459
2021-09-08,0.26923076923076844
2021-09-09,0.48214285714285293
2021-09-10,0.6034482758620696
2021-09-13,1.0
2021-09-14,0.8958333333333423
2021-09-15,0.3380281690140804
2021-09-16,0.2195121951219505
2021-09-17,0.16883116883116706
2021-09-22,0.041666666666669086
2021-09-23,0.037500000000001796
2021-09-24,0.5000000000000041
2021-09-27,0.7567567567567526
2021-09-28,0.8317757009345754
2021-09-29,0.7876106194690288
2021-09-30,0.90178571428572
2021-10-08,0.8900000000000061
2021-10-11,0.7234042553191572
2021-10-12,0.415584415584424
2021-10-13,0.6880733944954145
2021-10-14,0.7118644067796625
2021-10-15,0.4812030075187965
2021-10-18,0.5877862595419845
2021-10-19,0.6695652173913067
2021-10-20,0.3177570093457978
2021-10-21,0.1031746031746059
2021-10-22,0.3275862068965537
2021-10-25,0.2499999999999971
2021-10-26,0.24074074074073698
2021-10-27,0.4050632911392345
2021-10-28,0.9102564102564092
2021-10-29,0.5411764705882324
2021-11-01,0.711111111111111
2021-11-02,0.7058823529411778
2021-11-03,0.6666666666666694
2021-11-04,0.4434782608695695
2021-11-05,0.7866666666666716
2021-11-08,0.4718309859154958
2021-11-09,0.5705128205128218
2021-11-10,0.6416184971098274
2021-11-11,0.7261146496815272
2021-11-12,0.3241379310344785
2021-11-15,0.5089285714285661
2021-11-16,0.34313725490195585
2021-11-17,0.136842105263152
2021-11-18,0.13684210526315727
2021-11-19,0.619718309859153
2021-11-22,0.5970149253731319
2021-11-23,0.8295454545454523
2021-11-24,1.0
2021-11-25,1.0
2021-11-26,0.8214285714285684
2021-11-29,0.6153846153846174
2021-11-30,0.2058823529411779
2021-12-01,0.07999999999999712
2021-12-02,0.07999999999999712
2021-12-03,0.09090909090908843
2021-12-06,0.07017543859648864
2021-12-07,0.040816326530610514
2021-12-08,0.0493827160493807
2021-12-09,0.2974296205630364
2021-12-10,0.35569747416762554
2021-12-13,0.4774604673117767
2021-12-14,0.9573693787366789
2021-12-15,1.0
2021-12-16,0.602464958917353
2021-12-17,0.4828656568164857
2021-12-20,0.5267045454545451
2021-12-21,0.46403626683535304
2021-12-22,0.10924369747899484
2021-12-23,0.3058823529411786
2021-12-24,0.4571428571428672
2021-12-27,0.38709677419355476
2021-12-28,0.6617647058823539
2021-12-29,0.6923076923076862
2021-12-30,0.47058823529411614
2021-12-31,0.371428571428565
2022-01-04,0.40540540540540093
2022-01-05,0.16071428571428692
2022-01-06,0.6029411764705893
2022-01-07,0.5942028985507225
2022-01-10,0.7727272727272755
2022-01-11,0.5728155339805847
2022-01-12,0.6583333333333337
2022-01-13,0.3790322580645175
2022-01-14,0.5620437956204378
2022-01-17,0.4065040650406488
2022-01-18,0.4310344827586194
2022-01-19,0.34000000000000036
2022-01-20,0.6842105263157915
2022-01-21,0.5588235294117677
2022-01-24,0.5205479452054785
2022-01-25,0.7567567567567531
2022-01-26,0.4999999999999972
2022-01-27,0.620437956204378
2022-01-28,0.6074074074074047
2022-02-07,0.7865853658536568
2022-02-08,0.8214285714285704
2022-02-09,0.9947643979057573
2022-02-10,0.732558139534881
2022-02-11,0.8249027237354083
2022-02-14,0.6962025316455704
2022-02-15,0.5111111111111122
2022-02-16,0.49308755760368816
2022-02-17,0.6388888888888903
2022-02-18,0.1638418079096041
2022-02-21,0.3085714285714291
2022-02-22,0.5414364640883988
2022-02-23,0.6437768240343346
2022-02-24,0.7719780219780221
2022-02-25,1.0
2022-02-28,1.0
2022-03-01,1.0
2022-03-02,1.0
2022-03-03,0.7803030303030293
2022-03-04,0.3148688046647214
2022-03-07,0.41249999999999876
2022-03-08,0.48123620309050724
2022-03-09,0.4946236559139786
2022-03-10,0.5542168674698803
2022-03-11,0.812720848056539
2022-03-14,0.5000000000000019
2022-03-15,0.053691275167786
2022-03-16,0.0
2022-03-17,0.06934306569342892
2022-03-18,0.10820895522387652
2022-03-21,0.24489795918366875
2022-03-22,0.8717948717948711
2022-03-23,0.41463414634145856
2022-03-24,0.37254901960784126
2022-03-25,0.4482758620689664
2022-03-28,0.31382978723404326
2022-03-29,0.15416985462892255
2022-03-30,0.5113430531223099
2022-03-31,0.3877612443417123
2022-04-01,0.5522696858712491
2022-04-06,0.5824852356721018
2022-04-07,0.7696317489216895
2022-04-08,0.5237038998874398
2022-04-11,0.6678738871621986
2022-04-12,0.13034788794417704
2022-04-13,0.2194357366771179
2022-04-14,0.2267080745341633
2022-04-15,0.34210526315789613
2022-04-18,0.4391025641025646
2022-04-19,1.0
2022-04-20,0.7701149425287341
2022-04-21,0.42738589211618183
2022-04-22,0.41025641025641074
2022-04-25,0.38938053097345227
2022-04-26,0.2843601895734604
2022-04-27,0.421875000000002
2022-04-28,0.9216867469879525
2022-04-29,0.7099999999999985
2022-05-05,0.33453237410071796
2022-05-06,0.48809523809523586
2022-05-09,0.48961424332343956
2022-05-10,0.3444444444444433
2022-05-11,0.37804878048780466
2022-05-12,0.8194444444444492
2022-05-13,0.4607843137254961
2022-05-16,0.2380952380952435
2022-05-17,0.14204545454545714
2022-05-18,0.27777777777777934
2022-05-19,0.15822784810126542
2022-05-20,0.14792899408284005
2022-05-23,0.17123287671232837
2022-05-24,0.7337278106508877
2022-05-25,0.6959459459459466
2022-05-26,0.6397515527950302
2022-05-27,0.7984496124030993
2022-05-30,0.7803030303030296
2022-05-31,0.03252032520325394
2022-06-01,0.2958579881656801
2022-06-02,0.3481012658227851
2022-06-06,0.283505154639175
2022-06-07,0.3708920187793414
2022-06-08,0.7904761904761894
2022-06-09,0.5576923076923069
2022-06-10,0.622950819672131
2022-06-13,0.8527607361963195
2022-06-14,0.7448680351906174
2022-06-15,0.497023809523811
2022-06-16,0.5758620689655173
2022-06-17,0.4772727272727272
2022-06-20,0.0
2022-06-21,0.1006711409395971
2022-06-22,0.58064516129032
2022-06-23,0.8299319727891165
2022-06-24,0.8856209150326799
2022-06-27,0.9280821917808213
2022-06-28,0.9110320284697495
2022-06-29,0.7021189306387111
2022-06-30,0.08967853080102615
2022-07-01,0.0
2022-07-04,0.11983878374482536
2022-07-05,0.21392900707615609
2022-07-06,0.4914690153056411
2022-07-07,0.9393301831862773
2022-07-08,0.9460814000566138
2022-07-11,0.9475370044628111
2022-07-12,0.7992831541218651
2022-07-13,0.520179372197311
2022-07-14,0.21468926553672527
2022-07-15,0.23030303030303248
2022-07-18,0.0
2022-07-19,0.354166666666665
2022-07-20,0.4276729559748404
2022-07-21,0.390804597701148
2022-07-22,0.4316939890710369
2022-07-25,0.46470588235293864
2022-07-26,0.08870967741935391
2022-07-27,0.07971014492753567
2022-07-28,0.37007874015747905
2022-07-29,0.2903225806451608
2022-08-01,0.37373737373737526
2022-08-02,0.35922330097087474
2022-08-03,0.5853658536585372
2022-08-04,0.16438356164383613
2022-08-05,0.5092592592592597
2022-08-08,0.3176470588235299
2022-08-09,0.288770053475936
2022-08-10,0.21608040201005074
2022-08-11,0.3281249999999997
2022-08-12,0.09523809523809418
2022-08-15,0.2784090909090898
2022-08-16,0.4509803921568611
2022-08-17,0.489361702127656
2022-08-18,0.3983739837398344
2022-08-19,0.8839285714285682
2022-08-22,0.6603773584905643
2022-08-23,0.7906976744186037
2022-08-24,0.8663101604278081
2022-08-25,0.8808290155440424
2022-08-26,0.6349206349206353
2022-08-29,0.6976744186046522
2022-08-30,0.22666666666666802
2022-08-31,0.1145038167938962
2022-09-01,0.04516129032258183
2022-09-02,0.08928571428571691
2022-09-05,0.10280373831775606
2022-09-06,0.34693877551019836
2022-09-07,0.418181818181806
2022-09-08,1.0
2022-09-09,0.8939393939393894
2022-09-13,0.898550724637677
2022-09-14,0.57142857142857
2022-09-15,0.472527472527474
2022-09-16,0.03809523809523575
2022-09-19,0.09615384615384268
2022-09-20,0.056074766355138854
2022-09-21,0.22352941176470184
2022-09-22,0.37499999999999883
2022-09-23,0.8813559322033908
2022-09-26,0.8939393939393961
2022-09-27,1.0
2022-09-28,1.0
2022-09-29,0.8450704225352073
2022-09-30,0.899082568807337
2022-10-10,0.9075630252100811
2022-10-11,0.8785046728971964
2022-10-12,0.7064220183486255
2022-10-13,0.6260162601626073
2022-10-14,0.32857142857143223
2022-10-17,0.5204081632653116
2022-10-18,0.5631067961165075
2022-10-19,0.6170212765957441
2022-10-20,0.8513513513513458
2022-10-21,0.8289473684210514
2022-10-24,0.09090909090908791
2022-10-25,0.037878787878786103
2022-10-26,0.10000000000000059
2022-10-27,0.17021276595744947
2022-10-28,0.12972972972973132
2022-10-31,0.611510791366905
2022-11-01,0.8065843621399172
2022-11-02,0.8297101449275356
2022-11-03,0.75531914893617
2022-11-04,0.9230769230769235
2022-11-07,0.7574626865671644
2022-11-08,0.3801652892561988
2022-11-09,0.21161825726141043
2022-11-10,0.24663677130044828
2022-11-11,0.021052631578947992
2022-11-14,0.28140703517587984
2022-11-15,0.36842105263157904
2022-11-16,0.45901639344262674
2022-11-17,0.3795620437956222
2022-11-18,0.396946564885496
2022-11-21,0.0
2022-11-22,0.0
2022-11-23,0.1764705882352919
2022-11-24,0.24761904761904652
2022-11-25,0.316326530612246
2022-11-28,1.0
2022-11-29,1.0
2022-11-30,0.8476190476190503
2022-12-01,0.8316831683168336
2022-12-02,0.7821782178217822
2022-12-05,0.38823529411764773
2022-12-06,0.0
2022-12-07,0.0
2022-12-08,0.39361702127659476
2022-12-09,0.32475622048314223
2022-12-12,0.5771140229510848
2022-12-13,0.5245986535473847
2022-12-14,0.6589708979471617
2022-12-15,0.3903853983617036
2022-12-16,0.42876274328081554
2022-12-19,0.33920301042068857
2022-12-20,0.40269442977236625
2022-12-21,0.10923536964745956
2022-12-22,0.19512195121951723
2022-12-23,0.5000000000000051
2022-12-26,0.614035087719303
2022-12-27,0.7419354838709775
2022-12-28,0.6478873239436657
2022-12-29,0.8295454545454523
2022-12-30,0.8790322580645138
2023-01-03,0.5677419354838685
2023-01-04,0.6104651162790656
2023-01-05,0.6176470588235279
2023-01-06,0.5517241379310316
2023-01-09,0.22058823529411387
2023-01-10,0.2912621359223266
2023-01-11,0.019607843137253396
2023-01-12,0.2868852459016377
2023-01-13,0.2661290322580637
2023-01-16,0.33673469387755073
2023-01-17,0.41249999999999987
2023-01-18,0.7959183673469401
2023-01-19,0.746835443037975
2023-01-20,0.8139534883720939
2023-01-30,0.9871794871794881
2023-01-31,0.8850574712643675
2023-02-01,0.4383561643835548
2023-02-02,0.19354838709677116
2023-02-03,0.2021276595744679
2023-02-06,0.17582417582417814
2023-02-07,0.4583333333333336
2023-02-08,0.4583333333333354
2023-02-09,0.6990291262135949
2023-02-10,0.5405405405405407
2023-02-13,0.6277372262773728
2023-02-14,0.3333333333333364
2023-02-15,0.5882352941176486
2023-02-16,0.43195266272189464
2023-02-17,0.4244186046511657
2023-02-20,0.2965517241379322
2023-02-21,0.4018691588785038
2023-02-22,0.0
2023-02-23,0.07017543859648455
2023-02-24,0.31818181818179964
2023-02-27,0.1971830985915384
2023-02-28,0.5094339622641479
2023-03-01,0.6428571428571431
2023-03-02,0.520833333333336
2023-03-03,0.430107526881727
2023-03-06,0.425531914893624
2023-03-07,5.7054147590407945e-15
2023-03-08,0.0
2023-03-09,0.06410256410256404
2023-03-10,0.2978723404255322
2023-03-13,0.6929824561403483
2023-03-14,0.8888888888888855
2023-03-15,1.0
2023-03-16,1.0
2023-03-17,1.0
2023-03-20,1.0
2023-03-21,0.6538461538461662
2023-03-22,0.9010989010989049
2023-03-23,0.9158878504672929
2023-03-24,0.9291338582677192
2023-03-27,0.763513513513516
2023-03-28,0.7957746478873235
2023-03-29,0.3902439024390251
2023-03-30,0.17021276595744694
2023-03-31,0.0
2023-04-03,0.4766355140186916
2023-04-04,0.4811320754716989
2023-04-06,0.5698324022346367
2023-04-07,0.7953216374269011
2023-04-10,0.7771428571428572
2023-04-11,0.20606060606060608
2023-04-12,0.25714285714285645
2023-04-13,0.3515942536790469
2023-04-14,0.19485700072295795
2023-04-17,0.3664491739266557
2023-04-18,0.9272746226565187
2023-04-19,0.7837176342017338
2023-04-20,0.8493314723469053
2023-04-21,0.9044708698505864
2023-04-24,0.920868739266287
2023-04-25,0.8847920842480357
2023-04-26,0.9689922480620144
2023-04-27,0.5263157894736822
2023-04-28,0.6363636363636346
2023-05-04,0.47093023255813854
2023-05-05,0.5953488372093025
2023-05-08,0.5208333333333353
2023-05-09,0.8389261744966479
2023-05-10,0.585365853658541
2023-05-11,0.4832214765100696
2023-05-12,0.3063063063063081
2023-05-15,0.44615384615384607
2023-05-16,0.2704918032786856
2023-05-17,0.3142857142857097
2023-05-18,0.7652173913043425
2023-05-19,0.5486111111111092
2023-05-22,0.4074074074074069
2023-05-23,0.6204819277108439
2023-05-24,0.7103825136612041
2023-05-25,0.46875000000000194
2023-05-26,0.5555555555555569
2023-05-29,0.6739130434782622
2023-05-30,0.3020134228187942
2023-05-31,0.105882352941177
2023-06-01,0.3142857142857137
2023-06-02,0.49999999999999906
2023-06-05,0.582031249999999
2023-06-06,0.7948717948717943
2023-06-07,0.9300000000000003
2023-06-08,0.7198067632850245
2023-06-09,0.4490740740740755
2023-06-12,0.1406844106463889
2023-06-13,0.0
2023-06-14,0.040000000000001236
2023-06-15,0.14851485148514892
2023-06-16,0.33928571428571436
2023-06-19,0.9550561797752796
2023-06-20,1.0
2023-06-21,1.0
2023-06-26,0.9034482758620713
2023-06-27,0.8914728682170567
2023-06-28,0.8207547169811329
2023-06-29,0.609999999999998
2023-06-30,0.13924050632911258
2023-07-03,0.7831325301204803
2023-07-04,0.7898832684824889
2023-07-05,0.7381818181818167
2023-07-06,0.8260869565217381
2023-07-07,0.9206896551724132
2023-07-10,0.28231292517007
2023-07-11,0.20447284345048106
2023-07-12,0.3468208092485566
2023-07-13,0.24918032786885427
2023-07-14,0.18855218855218858
2023-07-17,0.6394557823129234
2023-07-18,0.9050632911392377
2023-07-19,0.7435897435897425
2023-07-20,0.7874015748031492
2023-07-21,0.8972602739726051
2023-07-24,0.8770491803278716
2023-07-25,0.7972972972973008
2023-07-26,0.9516129032258047
2023-07-27,0.9531249999999984
2023-07-28,0.6521739130434747
2023-07-31,0.6799999999999977
2023-08-01,0.4520547945205492
2023-08-02,0.4021909902207038
2023-08-03,0.2408542428568662
2023-08-04,0.18802729812669014
2023-08-07,0.0
2023-08-08,0.0
2023-08-09,0.4164035676230299
2023-08-10,0.3602333557622654
2023-08-11,0.5586529323156968
2023-08-14,0.6973518364865097
2023-08-15,0.6976744186046504
2023-08-16,0.40476190476190604
2023-08-17,0.6528925619834753
2023-08-18,0.37500000000000494
2023-08-21,0.5217391304347897
2023-08-22,0.861003861003864
2023-08-23,0.881422924901186
2023-08-24,0.6736274857584054
2023-08-25,0.7640205003319622
2023-08-28,0.6999385312432729
2023-08-29,0.22860813231700106
2023-08-30,0.21862052086782374
2023-08-31,0.3364538016760807
2023-09-01,0.0839025115238089
2023-09-04,0.3038360181975603
2023-09-05,0.5511331854949059
2023-09-06,0.6596858638743436
2023-09-07,0.5555555555555539
2023-09-08,0.9120370370370376
2023-09-11,0.5252100840336144
2023-09-12,0.5150214592274703
2023-09-13,0.553359683794469
2023-09-14,0.6224899598393594
2023-09-15,0.26582278481012944
2023-09-18,0.503105590062115
2023-09-19,0.35519125683060165
2023-09-20,0.1853932584269663
2023-09-21,0.1714285714285696
2023-09-22,0.2542372881355888
2023-09-25,0.09999999999999723
2023-09-26,0.2999999999999993
2023-09-27,0.6194690265486712
2023-09-28,0.647540983606557
2023-10-09,0.8113207547169834
2023-10-10,1.0
2023-10-11,0.8658536585365875
2023-10-12,0.26050420168067145
2023-10-13,0.07936507936507833
2023-10-16,0.02500000000000121
2023-10-17,0.0
2023-10-18,0.0
2023-10-19,0.3218390804597673
2023-10-20,0.36363636363636054
2023-10-23,0.44827586206896236
2023-10-24,0.759999999999995
2023-10-25,0.7882352941176497
2023-10-26,0.4936708860759524
2023-10-27,0.4642857142857157
2023-10-30,0.3218390804597727
2023-10-31,0.44859813084112105
2023-11-01,0.29687499999999845
2023-11-02,0.47692307692307606
2023-11-03,0.6511627906976739
2023-11-06,0.7519999999999982
2023-11-07,0.595744680851061
2023-11-08,0.7179487179487153
2023-11-09,0.4210526315789445
2023-11-10,0.6666666666666666
2023-11-13,0.4905660377358511
2023-11-14,0.45086705202312366
2023-11-15,0.5102975112023819
2023-11-16,0.5444336443324796
2023-11-17,0.04644835889283964
2023-11-20,0.06444302093638297
2023-11-21,0.062445735657519555
2023-11-22,0.3442566193684512
2023-11-23,0.44598029221882174
2023-11-24,0.41596626937343173
2023-11-27,0.6233641393217804
2023-11-28,0.7525252525252539
2023-11-29,0.49767441860465345
2023-11-30,0.4679802955665041
2023-12-01,0.7318181818181825
2023-12-04,0.4848484848484855
2023-12-05,0.36813186813186655
2023-12-06,0.6028368794326224
2023-12-07,0.6291390728476807
2023-12-08,0.18831168831168807
2023-12-11,0.28070175438596545
2023-12-12,0.3018867924528302
2023-12-13,0.1505376344086011
2023-12-14,0.03658536585365921
2023-12-15,0.5652173913043405
2023-12-18,0.7297297297297226
2023-12-19,0.7499999999999949
2023-12-20,0.8181818181818051
2023-12-21,0.8723404255319059
2023-12-22,0.9381443298969022
2023-12-25,0.6981132075471673
2023-12-26,0.7499999999999999
2023-12-27,0.8333333333333347
2023-12-28,0.6823529411764712
2023-12-29,0.42424242424242725
2024-01-02,0.6323529411764721
2024-01-03,0.5170068027210898
2024-01-04,0.19230769230769254
2024-01-05,0.34666666666666696
2024-01-08,0.33548387096774207
2024-01-09,0.1374999999999997
2024-01-10,0.15602836879432577
2024-01-11,0.4529914529914522
2024-01-12,0.26495726495726424
2024-01-15,0.31632653061224375
2024-01-16,0.5037831545688866
2024-01-17,0.5307810730994302
2024-01-18,0.15855623590074175
2024-01-19,0.29374303454864037
2024-01-22,0.2716931119537656
2024-01-23,0.14661471674710547
2024-01-24,0.06452141012115117
2024-01-25,0.0
2024-01-26,0.0661511542586196
2024-01-29,0.29850746268656286
2024-01-30,0.4933333333333287
2024-01-31,0.7088607594936699
2024-02-01,1.0
2024-02-02,0.8749999999999997
2024-02-05,0.7397260273972635
2024-02-06,0.4457831325301243
2024-02-07,0.47727272727272996
2024-02-08,0.33333333333333515
2024-02-19,0.40625000000000544
2024-02-20,0.38235294117647217
2024-02-21,0.7619047619047585
2024-02-22,0.2790697674418594
2024-02-23,0.21238938053097234
2024-02-26,0.20535714285713683
2024-02-27,0.2692307692307652
2024-02-28,0.06249999999999831
2024-02-29,0.15686274509804166
2024-03-01,0.7407407407407476
2024-03-04,0.6842105263157994
2024-03-05,0.6071428571428671
2024-03-06,0.61818181818182
2024-03-07,0.561403508771931
2024-03-08,0.0
2024-03-11,0.5499999999999982
2024-03-12,0.7653061224489764
2024-03-13,0.9122807017543856
2024-03-14,0.9571428571428559
2024-03-15,1.0
2024-03-18,1.0
2024-03-19,0.7291666666666674
2024-03-20,0.5124999999999996
2024-03-21,0.518518518518518
2024-03-22,0.4210526315789401
2024-03-25,0.5809523809523781
2024-03-26,0.5865384615384582
2024-03-27,0.6224489795918324
2024-03-28,0.4285714285714283
2024-03-29,0.3658536585365904
2024-04-01,0.0
2024-04-02,0.0
2024-04-03,0.27382966002524767
2024-04-08,0.18642110170258158
2024-04-09,0.1959533830902168
2024-04-10,0.1908312945374512
2024-04-11,0.2577295208912725
2024-04-12,0.09064348647547119
2024-04-15,0.26565135771132287
2024-04-16,0.6466021791791552
2024-04-17,0.9685863874345547
2024-04-18,0.9411764705882335
2024-04-19,0.9752475247524737
2024-04-22,0.9303482587064641
2024-04-23,0.9113924050632868
2024-04-24,0.23571428571428346
2024-04-25,0.30136986301369817
2024-04-26,0.16083916083916253
2024-04-29,0.2697368421052675
2024-04-30,0.14356435643564716
2024-05-06,0.24166666666667266
2024-05-07,0.40909090909091317
2024-05-08,0.44680851063830185
2024-05-09,0.31468531468531574
2024-05-10,0.625
2024-05-13,0.6593406593406557
2024-05-14,0.18292682926829157
2024-05-15,0.2051282051282048
2024-05-16,0.34375000000000316
2024-05-17,0.12068965517242057
2024-05-20,0.400000000000006
2024-05-21,0.8363636363636378
2024-05-22,0.9142857142857143
2024-05-23,0.9189189189189183
2024-05-24,1.0
2024-05-27,0.9891304347826069
2024-05-28,0.8152173913043433
2024-05-29,0.3999999999999927
2024-05-30,0.15189873417721178
2024-05-31,0.0
2024-06-03,0.18965517241379315
2024-06-04,0.21568627450980468
2024-06-05,0.18487394957983191
2024-06-06,0.37735849056603893
2024-06-07,0.6082474226804111
2024-06-11,0.3245614035087718
2024-06-12,0.30081300813008105
2024-06-13,0.6296296296296312
2024-06-14,0.5537190082644636
2024-06-17,0.6029411764705893
2024-06-18,0.8282828282828291
2024-06-19,0.8200000000000027
2024-06-20,0.31775700934579476
2024-06-21,0.3365384615384633
2024-06-24,0.008928571428572627
2024-06-25,0.1065573770491819
2024-06-26,0.2113821138211379
2024-06-27,0.4749999999999968
2024-06-28,0.3978494623655864
2024-07-01,0.7358490566037683
2024-07-02,0.6136363636363571
2024-07-03,0.5853658536585331
2024-07-04,0.7424242424242418
2024-07-05,0.9531250000000009
2024-07-08,0.8805970149253762
2024-07-09,0.9473684210526331
2024-07-10,0.9519230769230782
2024-07-11,0.6078431372549006
2024-07-12,0.5376344086021453
2024-07-15,0.7007874015747977
2024-07-16,0.5272727272727221
2024-07-17,0.6533333333333291
2024-07-18,0.8712121212121189
2024-07-19,0.9119496855345914
2024-07-22,0.683870967741936
2024-07-23,0.7770700636942675
2024-07-24,0.32812500000000117
2024-07-25,0.25988700564971773
2024-07-26,0.0993788819875769
2024-07-29,0.4607843137254905
2024-07-30,0.39000000000000057
2024-07-31,0.7586206896551736
2024-08-01,0.7457627118644066
2024-08-02,0.7394957983193265
2024-08-05,0.08264462809917456
2024-08-06,0.14655172413793288
2024-08-07,0.24999999999999803
2024-08-08,0.20370370370370203
2024-08-09,0.20570604395604256
2024-08-12,0.4200737283476881
2024-08-13,0.6017137675124459
2024-08-14,0.4350682629699663
2024-08-15,0.7003230088958156
2024-08-16,0.8678333300552691
2024-08-19,0.7948002309786365
2024-08-20,0.2439803678190145
2024-08-21,0.23352140999859136
2024-08-22,0.21323529411764305
2024-08-23,0.07518796992480928
2024-08-26,0.1958041958041921
2024-08-27,0.437499999999995
2024-08-28,0.5090909090908977
2024-08-29,0.321428571428566
2024-08-30,0.41860465116278683
2024-09-02,0.0
2024-09-03,0.7341772151898748
2024-09-04,0.8366336633663394
2024-09-05,0.9188191881918835
2024-09-06,0.9413580246913582
2024-09-09,1.0
2024-09-10,0.8405797101449272
2024-09-11,0.8061224489795931
2024-09-12,0.5946969696969698
2024-09-13,0.44298245614035037
2024-09-18,0.0
2024-09-19,0.0
2024-09-20,0.0
2024-09-23,0.0
2024-09-24,0.0
2024-09-25,0.3874999999999999
2024-09-26,0.6396396396396393
2024-09-27,0.758928571428573
2024-09-30,0.9354838709677404
2024-10-08,1.0
2024-10-09,1.0
2024-10-10,0.6623931623931624
2024-10-11,0.5662650602409642
2024-10-14,0.5
2024-10-15,0.0917431192660529
2024-10-16,0.0
2024-10-17,0.20095693779904292
2024-10-18,0.3235294117647064
2024-10-21,0.5736677115987473
2024-10-22,0.7500000000000008
2024-10-23,0.9432314410480337
2024-10-24,0.7499999999999984
2024-10-25,0.6607929515418488
2024-10-28,0.12941176470588123
2024-10-29,0.15040650406504066
2024-10-30,0.016666666666667874
2024-10-31,0.035353535353536955
2024-11-01,0.03645833333333492
2024-11-04,0.2727272727272768
2024-11-05,0.2
2024-11-06,0.19642857142857198
2024-11-07,0.6616541353383437
2024-11-08,0.8036809815950912
2024-11-11,0.8367346938775497
2024-11-12,0.8777292576419212
2024-11-13,0.9950495049504957
2024-11-14,0.557603686635944
2024-11-15,0.5223880597014918
2024-11-18,0.33160621761658127
2024-11-19,0.13846153846153914
2024-11-20,0.21226415094339682
2024-11-21,0.43307086614173296
2024-11-22,0.22580645161290291
2024-11-25,0.2545454545454539
2024-11-26,0.39436619718309807
2024-11-27,0.13157894736841952
2024-11-28,0.0
2024-11-29,0.0
2024-12-02,0.0
2024-12-03,0.08947559051044185
2024-12-04,0.3944150042116749
2024-12-05,0.4057187776358494
2024-12-06,0.7675523114355254
2024-12-09,1.0
2024-12-10,0.7818101997512233
2024-12-11,0.24424389679509295
2024-12-12,0.21153846153845934
2024-12-13,0.2743362831858383
2024-12-16,0.3492063492063481
2024-12-17,0.5000000000000017
2024-12-18,0.8712871287128694
2024-12-19,1.0
2024-12-20,1.0
2024-12-23,0.7911392405063288
2024-12-24,0.6171428571428552
2024-12-25,0.5400000000000008
2024-12-26,0.42465753424657404
2024-12-27,0.0
2024-12-30,0.0
2024-12-31,0.11570247933884303
