date,FCT_Demark_Atr_Dfive
2011-04-15,
2011-04-18,
2011-04-19,
2011-04-20,
2011-04-21,
2011-04-22,
2011-04-25,
2011-04-26,
2011-04-27,
2011-04-28,0.0
2011-04-29,0.0
2011-05-03,0.0
2011-05-04,0.0
2011-05-05,0.028985507246376708
2011-05-06,0.23809523809523814
2011-05-09,0.3947368421052631
2011-05-10,0.3846153846153846
2011-05-11,0.6307692307692307
2011-05-12,0.7623762376237624
2011-05-13,0.8344827586206897
2011-05-16,0.9013157894736842
2011-05-17,1.0
2011-05-18,1.0
2011-05-19,0.7642857142857143
2011-05-20,0.34722222222222215
2011-05-23,0.32857142857142857
2011-05-24,0.11016949152542378
2011-05-25,0.07947019867549664
2011-05-26,0.09374999999999996
2011-05-27,0.17647058823529407
2011-05-30,0.0
2011-05-31,0.0
2011-06-01,0.0
2011-06-02,0.11904761904761901
2011-06-03,0.10869565217391301
2011-06-07,0.3333333333333335
2011-06-08,0.684210526315789
2011-06-09,0.619047619047619
2011-06-10,0.3333333333333336
2011-06-13,0.4761904761904763
2011-06-14,0.5599999999999998
2011-06-15,0.5925925925925927
2011-06-16,0.7419354838709679
2011-06-17,0.9200000000000003
2011-06-20,0.9259259259259262
2011-06-21,0.5384615384615387
2011-06-22,0.35483870967741926
2011-06-23,0.5454545454545455
2011-06-24,0.6326530612244898
2011-06-27,0.5624999999999999
2011-06-28,0.7499999999999998
2011-06-29,0.9374999999999999
2011-06-30,0.46296296296296297
2011-07-01,0.37499999999999994
2011-07-04,0.45999999999999996
2011-07-05,0.26562500000000006
2011-07-06,0.16071428571428573
2011-07-07,0.6181818181818183
2011-07-08,0.6071428571428572
2011-07-11,0.4202898550724638
2011-07-12,0.6551724137931035
2011-07-13,0.48571428571428577
2011-07-14,0.13432835820895525
2011-07-15,0.12162162162162163
2011-07-18,0.15254237288135597
2011-07-19,0.0
2011-07-20,0.08928571428571427
2011-07-21,0.1388888888888889
2011-07-22,0.3333333333333333
2011-07-25,0.457142857142857
2011-07-26,0.9130434782608695
2011-07-27,0.6153846153846153
2011-07-28,0.5925925925925927
2011-07-29,0.32258064516129037
2011-08-01,0.1388888888888889
2011-08-02,0.0
2011-08-03,0.0
2011-08-04,0.2142857142857142
2011-08-05,0.5576923076923077
2011-08-08,0.7833333333333333
2011-08-09,0.9606299212598425
2011-08-10,1.0
2011-08-11,0.9921874999999999
2011-08-12,0.9639639639639638
2011-08-15,0.9619047619047617
2011-08-16,0.3466666666666668
2011-08-17,0.2794117647058826
2011-08-18,0.36842105263157904
2011-08-19,0.3918918918918921
2011-08-22,0.4444444444444443
2011-08-23,1.0
2011-08-24,1.0
2011-08-25,1.0
2011-08-26,0.9378794002091512
2011-08-29,0.6576142570946786
2011-08-30,0.11940137845343875
2011-08-31,0.03442352397220843
2011-09-01,0.0
2011-09-02,0.07867532155307277
2011-09-05,0.13793103448275912
2011-09-06,0.5616438356164396
2011-09-07,0.4880952380952386
2011-09-08,0.7187500000000021
2011-09-09,0.43835616438356034
2011-09-13,0.356164383561644
2011-09-14,0.07812500000000036
2011-09-15,0.10204081632653025
2011-09-16,0.0
2011-09-19,0.44736842105262786
2011-09-20,0.5714285714285674
2011-09-21,0.9090909090909063
2011-09-22,1.0
2011-09-23,1.0
2011-09-26,1.0
2011-09-27,1.0
2011-09-28,1.0
2011-09-29,0.9238095238095217
2011-09-30,0.5412844036697266
2011-10-10,0.1000000000000071
2011-10-11,0.054945054945058074
2011-10-12,0.0
2011-10-13,0.0
2011-10-14,0.0
2011-10-17,0.10937499999999889
2011-10-18,0.17460317460317556
2011-10-19,0.3392857142857185
2011-10-20,0.9624999999999984
2011-10-21,1.0
2011-10-24,1.0
2011-10-25,1.0
2011-10-26,0.9772727272727225
2011-10-27,0.5338345864661632
2011-10-28,0.49593495934959164
2011-10-31,0.24489795918367252
2011-11-01,0.06711409395973245
2011-11-02,0.07482993197279325
2011-11-03,0.1348314606741637
2011-11-04,0.020408163265310617
2011-11-07,0.029850746268663502
2011-11-08,0.04444444444445398
2011-11-09,0.018181818181817813
2011-11-10,0.5384615384615382
2011-11-11,0.7865853658536575
2011-11-14,0.9005847953216345
2011-11-15,0.9497716894977161
2011-11-16,1.0
2011-11-17,0.7846889952153114
2011-11-18,0.47342995169082147
2011-11-21,0.3989071038251389
2011-11-22,0.10215053763441063
2011-11-23,0.0
2011-11-24,0.0
2011-11-25,0.0
2011-11-28,0.0
2011-11-29,0.10256410256409237
2011-11-30,0.6779661016949079
2011-12-01,0.8072289156626443
2011-12-02,0.7976190476190488
2011-12-05,0.761363636363649
2011-12-06,0.8000000000000118
2011-12-07,0.41025641025641296
2011-12-08,0.16030534351145104
2011-12-09,0.22811257561855944
2011-12-12,0.4116494146723853
2011-12-13,0.274217028380631
2011-12-14,0.44980855367721406
2011-12-15,0.747148814308683
2011-12-16,0.7676960003692712
2011-12-19,0.4628278731697117
2011-12-20,0.6297636751294535
2011-12-21,0.5078769692423172
2011-12-22,0.34693877551020563
2011-12-23,0.0
2011-12-26,0.15999999999999592
2011-12-27,0.1333333333333315
2011-12-28,0.373333333333331
2011-12-29,0.3835616438356168
2011-12-30,0.7307692307692338
2012-01-04,0.6666666666666684
2012-01-05,0.888888888888886
2012-01-06,0.8809523809523774
2012-01-09,0.9736842105262993
2012-01-10,0.9722222222222048
2012-01-11,0.9999999999999889
2012-01-12,0.8372093023255556
2012-01-13,0.612903225806434
2012-01-16,0.7272727272727288
2012-01-17,0.720930232558142
2012-01-18,0.4081632653061325
2012-01-19,0.6333333333333474
2012-01-20,0.4367816091954094
2012-01-30,0.4787234042553163
2012-01-31,0.3619047619047601
2012-02-01,0.4382022471910101
2012-02-02,0.24999999999999395
2012-02-03,0.4561403508771872
2012-02-06,0.12000000000000398
2012-02-07,0.422222222222216
2012-02-08,0.39999999999999347
2012-02-09,0.7627118644067781
2012-02-10,0.7586206896551692
2012-02-13,0.6769230769230798
2012-02-14,0.44285714285714706
2012-02-15,0.41891891891892374
2012-02-16,0.06060606060605849
2012-02-17,0.0
2012-02-20,0.020408163265309146
2012-02-21,0.1666666666666644
2012-02-22,0.15384615384615094
2012-02-23,0.14999999999999847
2012-02-24,0.1714285714285711
2012-02-27,0.14705882352941368
2012-02-28,6.697600931090567e-15
2012-02-29,0.06249999999998818
2012-03-01,0.4736842105263102
2012-03-02,0.6399999999999979
2012-03-05,0.7499999999999964
2012-03-06,1.0
2012-03-07,1.0
2012-03-08,0.9259259259259139
2012-03-09,0.6923076923076967
2012-03-12,0.2916666666666811
2012-03-13,0.2500000000000262
2012-03-14,0.5263157894736948
2012-03-15,0.6862745098039361
2012-03-16,0.7959183673469432
2012-03-19,0.9787234042553211
2012-03-20,1.0
2012-03-21,0.6885245901639323
2012-03-22,0.49090909090908713
2012-03-23,0.41818181818181527
2012-03-26,0.26666666666667327
2012-03-27,0.0
2012-03-28,0.0
2012-03-29,0.0
2012-03-30,0.0
2012-04-05,0.0
2012-04-06,0.03333333333333751
2012-04-09,0.034482758620695615
2012-04-10,0.2727272727272798
2012-04-11,0.7368421052631656
2012-04-12,0.9200000000000174
2012-04-13,0.9393939393939521
2012-04-16,1.0
2012-04-17,0.8880564400324625
2012-04-18,0.9049613060532145
2012-04-19,0.6630207495576599
2012-04-20,0.4638444767441841
2012-04-23,0.7519195202600453
2012-04-24,0.8084800477443524
2012-04-25,0.7271275746447446
2012-04-26,0.8335163628376884
2012-04-27,0.9230769230769192
2012-05-02,0.15094339622641814
2012-05-03,0.21052631578946832
2012-05-04,0.20338983050846804
2012-05-07,0.292307692307694
2012-05-08,0.4025974025974071
2012-05-09,0.8717948717948696
2012-05-10,0.6486486486486526
2012-05-11,0.8000000000000039
2012-05-14,0.9207920792079212
2012-05-15,0.8404255319148908
2012-05-16,0.8514851485148497
2012-05-17,0.9299999999999973
2012-05-18,0.8415841584158379
2012-05-21,0.1717171717171712
2012-05-22,0.1717171717171721
2012-05-23,0.07608695652173642
2012-05-24,0.0
2012-05-25,0.0
2012-05-28,0.1200000000000137
2012-05-29,0.13043478260870986
2012-05-30,0.09677419354839768
2012-05-31,0.13043478260870978
2012-06-01,0.11538461538462765
2012-06-04,0.6290322580645185
2012-06-05,0.7096774193548402
2012-06-06,0.8727272727272752
2012-06-07,0.9090909090909106
2012-06-08,1.0
2012-06-11,0.5930232558139484
2012-06-12,0.6499999999999959
2012-06-13,0.6534653465346519
2012-06-14,0.6276595744680845
2012-06-15,0.3258426966292151
2012-06-18,0.4833333333333391
2012-06-19,0.15384615384616168
2012-06-20,0.07692307692307923
2012-06-21,0.0
2012-06-25,0.38461538461538747
2012-06-26,0.500000000000002
2012-06-27,0.8181818181818155
2012-06-28,0.9253731343283568
2012-06-29,1.0
2012-07-02,1.0
2012-07-03,1.0
2012-07-04,1.0
2012-07-05,0.9285714285714277
2012-07-06,0.6046511627906941
2012-07-09,0.24074074074073956
2012-07-10,0.2095238095238129
2012-07-11,0.0
2012-07-12,0.2589928057553945
2012-07-13,0.36974789915966405
2012-07-16,0.765217391304345
2012-07-17,0.798449612403098
2012-07-18,1.0
2012-07-19,0.6403427641253773
2012-07-20,0.7079431004829244
2012-07-23,0.5272413068354335
2012-07-24,0.46916299559471475
2012-07-25,0.5666339851091983
2012-07-26,0.892731822694356
2012-07-27,0.6332732199859201
2012-07-30,0.7467127594524704
2012-07-31,0.6428571428571418
2012-08-01,0.3834586466165414
2012-08-02,0.1129032258064515
2012-08-03,0.2020202020202001
2012-08-06,0.05128205128204941
2012-08-07,0.055045871559631136
2012-08-08,0.059405940594057495
2012-08-09,0.06818181818181608
2012-08-10,0.0
2012-08-13,0.0
2012-08-14,0.36190476190476173
2012-08-15,0.565656565656566
2012-08-16,0.7083333333333336
2012-08-17,0.9066666666666666
2012-08-20,0.8717948717948762
2012-08-21,0.566037735849059
2012-08-22,0.2857142857142874
2012-08-23,0.0
2012-08-24,0.32608695652173925
2012-08-27,0.42499999999999627
2012-08-28,0.4250000000000018
2012-08-29,0.6666666666666685
2012-08-30,0.8266666666666673
2012-08-31,0.7230769230769246
2012-09-03,0.7031250000000018
2012-09-04,0.9117647058823553
2012-09-05,0.8703703703703778
2012-09-06,0.47222222222223403
2012-09-07,0.7254901960784385
2012-09-10,0.8266666666666722
2012-09-11,0.7627118644067825
2012-09-12,0.8169014084507039
2012-09-13,0.828571428571424
2012-09-14,0.828571428571424
2012-09-17,0.6734693877550941
2012-09-18,0.7727272727272705
2012-09-19,0.48101265822784733
2012-09-20,0.6153846153846142
2012-09-21,0.2978723404255344
2012-09-24,0.3010752688172067
2012-09-25,0.09523809523809376
2012-09-26,0.11235955056179586
2012-09-27,0.21782178217821657
2012-09-28,0.2588235294117619
2012-10-08,0.21999999999999859
2012-10-09,0.46666666666666806
2012-10-10,0.6200000000000029
2012-10-11,0.3508771929824609
2012-10-12,0.600000000000004
2012-10-15,0.7428571428571455
2012-10-16,0.591549295774649
2012-10-17,0.4923076923076916
2012-10-18,0.6336633663366289
2012-10-19,0.3026315789473651
2012-10-22,0.0
2012-10-23,0.3650793650793608
2012-10-24,0.43859649122807104
2012-10-25,0.6060300435427732
2012-10-26,0.6998062688271923
2012-10-29,0.8781458808466316
2012-10-30,0.40602902565920346
2012-10-31,0.36365809277078676
2012-11-01,0.22186362639772092
2012-11-02,0.23415618434084368
2012-11-05,0.0
2012-11-06,0.0
2012-11-07,0.15625000000001515
2012-11-08,0.14285714285715756
2012-11-09,0.13888888888890133
2012-11-12,0.16666666666667743
2012-11-13,0.16129032258065462
2012-11-14,0.0
2012-11-15,0.0
2012-11-16,0.0
2012-11-19,0.35999999999999
2012-11-20,0.32142857142856407
2012-11-21,0.7272727272727226
2012-11-22,0.7619047619047646
2012-11-23,0.5925925925925912
2012-11-26,0.2745098039215695
2012-11-27,0.3181818181818193
2012-11-28,0.0
2012-11-29,0.2653061224489728
2012-11-30,0.5740740740740761
2012-12-03,0.8596491228070188
2012-12-04,0.8750000000000011
2012-12-05,1.0
2012-12-06,0.8857142857142872
2012-12-07,0.8688524590163932
2012-12-10,0.7446808510638331
2012-12-11,0.6363636363636379
2012-12-12,0.20930232558139097
2012-12-13,0.23684210526315486
2012-12-14,0.2564102564102631
2012-12-17,0.20833333333333615
2012-12-18,0.41379310344827963
2012-12-19,0.5853658536585366
2012-12-20,0.67441860465116
2012-12-21,0.33333333333333487
2012-12-24,0.38000000000000167
2012-12-25,0.4464285714285736
2012-12-26,0.5522388059701552
2012-12-27,0.6875000000000022
2012-12-28,0.9318181818181812
2012-12-31,1.0
2013-01-04,0.9262295081967206
2013-01-07,0.9296874999999989
2013-01-08,0.8415841584158403
2013-01-09,0.78409090909091
2013-01-10,0.2168674698795153
2013-01-11,0.3978494623655878
2013-01-14,0.5658914728682166
2013-01-15,0.525179856115108
2013-01-16,0.5743243243243227
2013-01-17,0.8650793650793651
2013-01-18,0.7758620689655198
2013-01-21,0.2999999999999967
2013-01-22,0.37383177570093273
2013-01-23,0.24347826086956456
2013-01-24,0.03809523809524078
2013-01-25,0.03225806451613115
2013-01-28,0.04494382022472197
2013-01-29,0.0
2013-01-30,0.0
2013-01-31,0.0
2013-02-01,0.0
2013-02-04,0.18518518518518443
2013-02-05,0.16666666666667107
2013-02-06,0.16129032258064838
2013-02-07,0.6656536697247761
2013-02-08,0.7504616934355618
2013-02-18,0.8247041710893593
2013-02-19,0.9583181431522654
2013-02-20,1.0
2013-02-21,0.9124770642201838
2013-02-22,0.9293202444897212
2013-02-25,0.6235795454545471
2013-02-26,0.6481781973742446
2013-02-27,0.4235294117647061
2013-02-28,0.3364485981308402
2013-03-01,0.33644859813083844
2013-03-04,0.5840707964601763
2013-03-05,0.48148148148148356
2013-03-06,0.6509433962264155
2013-03-07,0.8977272727272754
2013-03-08,0.7402597402597446
2013-03-11,0.3374999999999977
2013-03-12,0.31034482758620485
2013-03-13,0.12987012987013075
2013-03-14,0.21176470588235413
2013-03-15,0.4343434343434351
2013-03-18,0.7472527472527546
2013-03-19,0.9066666666666721
2013-03-20,1.0
2013-03-21,0.8524590163934432
2013-03-22,0.3176470588235325
2013-03-25,0.021739130434780127
2013-03-26,0.15094339622640698
2013-03-27,0.11199999999999699
2013-03-28,0.22727272727272466
2013-03-29,0.4421052631578924
2013-04-01,0.740740740740745
2013-04-02,0.7812500000000043
2013-04-03,1.0
2013-04-08,0.8181818181818191
2013-04-09,0.5940594059405928
2013-04-10,0.46666666666666534
2013-04-11,0.14444444444444357
2013-04-12,0.0
2013-04-15,0.0
2013-04-16,0.4000000000000016
2013-04-17,0.5913978494623645
2013-04-18,0.8977272727272719
2013-04-19,0.9578947368421067
2013-04-22,0.928571428571426
2013-04-23,0.7721518987341761
2013-04-24,0.6666666666666684
2013-04-25,0.1791044776119459
2013-04-26,0.11290322580645536
2013-05-02,0.11111111111111525
2013-05-03,0.11864406779661434
2013-05-06,0.06999999999999981
2013-05-07,0.2631578947368437
2013-05-08,0.1625000000000018
2013-05-09,0.2435897435897473
2013-05-10,0.3953488372093022
2013-05-13,0.8641975308641963
2013-05-14,0.845070422535209
2013-05-15,1.0
2013-05-16,1.0
2013-05-17,1.0
2013-05-20,0.6428571428571435
2013-05-21,0.6176470588235309
2013-05-22,0.1842105263157914
2013-05-23,0.026666666666670998
2013-05-24,0.0
2013-05-27,0.02499999999999342
2013-05-28,0.021505376344080316
2013-05-29,0.294871794871787
2013-05-30,0.333333333333326
2013-05-31,0.7377049180327813
2013-06-03,0.7288135593220334
2013-06-04,0.8958333333333367
2013-06-05,0.4313725490196156
2013-06-06,0.6447368421052695
2013-06-07,0.38571428571429506
2013-06-13,0.3214285714285759
2013-06-14,0.32926829268293034
2013-06-17,0.6172839506172865
2013-06-18,0.24731182795699
2013-06-19,0.2555555555555557
2013-06-20,0.5470085470085444
2013-06-21,0.6339903057098675
2013-06-24,0.5503561607157783
2013-06-25,0.8425986129172072
2013-06-26,0.9761782149573297
2013-06-27,0.6975219268611301
2013-06-28,0.4919027487113251
2013-07-01,0.41384199984638603
2013-07-02,0.26908989303221553
2013-07-03,0.0
2013-07-04,0.0
2013-07-05,0.0
2013-07-08,0.17241379310344823
2013-07-09,0.20408163265306187
2013-07-10,0.6415094339622703
2013-07-11,0.6666666666666685
2013-07-12,0.8723404255319124
2013-07-15,0.7380952380952329
2013-07-16,0.8648648648648569
2013-07-17,0.3999999999999794
2013-07-18,0.2666666666666542
2013-07-19,0.037037037037031394
2013-07-22,0.03571428571428012
2013-07-23,0.0689655172413828
2013-07-24,0.05555555555555772
2013-07-25,0.07692307692307876
2013-07-26,0.07407407407407685
2013-07-29,0.083333333333336
2013-07-30,0.04347826086956332
2013-07-31,0.05555555555555445
2013-08-01,0.2916666666666722
2013-08-02,0.33333333333334336
2013-08-05,0.29166666666667596
2013-08-06,0.23076923076924022
2013-08-07,0.35294117647060047
2013-08-08,0.4499999999999998
2013-08-09,0.6999999999999957
2013-08-12,0.9500000000000014
2013-08-13,1.0
2013-08-14,1.0
2013-08-15,0.9494949494949476
2013-08-16,0.9504950495049487
2013-08-19,0.9285714285714256
2013-08-20,0.6935483870967754
2013-08-21,0.2878787878787906
2013-08-22,0.30158730158730557
2013-08-23,0.10204081632653453
2013-08-26,0.0
2013-08-27,0.0
2013-08-28,0.7976190476190423
2013-08-29,0.8170731707317019
2013-08-30,0.7528089887640476
2013-09-02,0.8674698795180795
2013-09-03,0.9239130434782665
2013-09-04,0.21686746987952843
2013-09-05,0.20689655172414434
2013-09-06,0.22222222222222696
2013-09-09,0.12037037037037054
2013-09-10,0.0
2013-09-11,0.0
2013-09-12,0.10909090909091047
2013-09-13,0.08450704225352298
2013-09-16,0.44999999999999346
2013-09-17,0.6166666666666661
2013-09-18,0.7500000000000011
2013-09-23,0.6923076923076967
2013-09-24,0.944444444444451
2013-09-25,0.6250000000000115
2013-09-26,0.3508771929824617
2013-09-27,0.10714285714285668
2013-09-30,0.2033898305084683
2013-10-08,0.4534883720930219
2013-10-09,0.5555555555555486
2013-10-10,0.7547169811320561
2013-10-11,0.9523809523809448
2013-10-14,0.9599999999999942
2013-10-15,0.5172413793103282
2013-10-16,0.5
2013-10-17,0.6216216216216376
2013-10-18,0.6388888888889047
2013-10-21,0.30000000000002974
2013-10-22,0.2250000000000265
2013-10-23,0.24390243902441563
2013-10-24,0.16216216216217105
2013-10-25,0.4339622641509469
2013-10-28,0.35384615384615364
2013-10-29,0.5918367346938725
2013-10-30,0.5910533319684629
2013-10-31,0.507613808498751
2013-11-01,0.20601851851850767
2013-11-04,0.7562595103056967
2013-11-05,0.5567173485538688
2013-11-06,0.5210667432729875
2013-11-07,0.4455498239580701
2013-11-08,0.4688927186557458
2013-11-11,0.0
2013-11-12,0.15151515151515427
2013-11-13,0.1470588235294167
2013-11-14,0.19230769230769634
2013-11-15,0.17241379310345306
2013-11-18,0.5333333333333496
2013-11-19,0.5000000000000121
2013-11-20,0.4666666666666518
2013-11-21,0.4375000000000016
2013-11-22,0.36842105263157177
2013-11-25,0.294117647058805
2013-11-26,0.05882352941175391
2013-11-27,0.05882352941175625
2013-11-28,0.058823529411755074
2013-11-29,0.07142857142856075
2013-12-02,0.13333333333337333
2013-12-03,0.07692307692309862
2013-12-04,0.300000000000011
2013-12-05,0.47368421052632137
2013-12-06,0.5833333333333388
2013-12-09,0.4999999999999913
2013-12-10,0.7307692307692125
2013-12-11,0.42857142857142005
2013-12-12,0.12500000000000344
2013-12-13,0.6557377049180292
2013-12-16,0.7213114754098395
2013-12-17,0.7971014492753676
2013-12-18,0.9275362318840655
2013-12-19,1.0
2013-12-20,0.48275862068965525
2013-12-23,0.47368421052632037
2013-12-24,0.3404255319148994
2013-12-25,0.2954545454545491
2013-12-26,0.16666666666667368
2013-12-27,0.29032258064516936
2013-12-30,0.43589743589742985
2013-12-31,0.6037735849056534
2014-01-02,0.44827586206896003
2014-01-03,0.7313432835820883
2014-01-06,0.8307692307692316
2014-01-07,0.6231884057971028
2014-01-08,0.37837837837838006
2014-01-09,0.6499999999999991
2014-01-10,0.4941176470588206
2014-01-13,0.53260869565217
2014-01-14,0.6853932584269611
2014-01-15,0.887323943661968
2014-01-16,0.36619718309859134
2014-01-17,0.3714285714285739
2014-01-20,0.3529411764705905
2014-01-21,0.17142857142857557
2014-01-22,0.32558139534883773
2014-01-23,0.6181818181818199
2014-01-24,0.7741935483870981
2014-01-27,0.48101265822784933
2014-01-28,0.6625
2014-01-29,0.5303030303030313
2014-01-30,0.40845070422535307
2014-02-07,0.46153846153845723
2014-02-10,0.745762711864404
2014-02-11,0.547169811320755
2014-02-12,0.46031746031745896
2014-02-13,0.5660377358490585
2014-02-14,0.1267605633802865
2014-02-17,0.3111111111111149
2014-02-18,0.35365853658536595
2014-02-19,0.45833333333333437
2014-02-20,0.49999999999999883
2014-02-21,1.0
2014-02-24,0.8333333333333283
2014-02-25,0.559999999999997
2014-02-26,0.5416666666666634
2014-02-27,0.23999999999999858
2014-02-28,0.38709677419354316
2014-03-03,0.19999999999999685
2014-03-04,0.42028985507246175
2014-03-05,0.47368421052631493
2014-03-06,0.5492957746478881
2014-03-07,0.6144578313253031
2014-03-10,0.944444444444445
2014-03-11,0.9601007423117711
2014-03-12,0.9707082093243913
2014-03-13,0.9702360842157307
2014-03-14,0.8790967435227
2014-03-17,0.9215125050649606
2014-03-18,0.5185951468710085
2014-03-19,0.1180519880817829
2014-03-20,0.20916550957153485
2014-03-21,0.20582540617897152
2014-03-24,0.12195121951219542
2014-03-25,0.2298850574712661
2014-03-26,0.7391304347826105
2014-03-27,0.6250000000000021
2014-03-28,0.7999999999999955
2014-03-31,0.8846153846153785
2014-04-01,0.4390243902438944
2014-04-02,0.10256410256409769
2014-04-03,0.23913043478260332
2014-04-04,0.3191489361702106
2014-04-08,0.4482758620689678
2014-04-09,0.7446808510638336
2014-04-10,1.0
2014-04-11,0.6428571428571466
2014-04-14,0.6478873239436648
2014-04-15,0.42666666666666775
2014-04-16,0.3333333333333333
2014-04-17,0.07352941176470476
2014-04-18,0.5249999999999972
2014-04-21,0.402173913043477
2014-04-22,0.5256410256410241
2014-04-23,0.6633663366336628
2014-04-24,0.8068181818181825
2014-04-25,0.3777777777777785
2014-04-28,0.5666666666666667
2014-04-29,0.48958333333333426
2014-04-30,0.22826086956521813
2014-05-05,0.2526315789473675
2014-05-06,0.4576271186440668
2014-05-07,0.18867924528301705
2014-05-08,0.21739130434782372
2014-05-09,0.29411764705882204
2014-05-12,0.10344827586206753
2014-05-13,0.13333333333333677
2014-05-14,0.13333333333333755
2014-05-15,0.2812500000000023
2014-05-16,0.6829268292682923
2014-05-19,0.7800000000000022
2014-05-20,0.7608695652173904
2014-05-21,0.9999999999999966
2014-05-22,0.9999999999999968
2014-05-23,0.5925925925925929
2014-05-26,0.5416666666666662
2014-05-27,0.46428571428571463
2014-05-28,0.41176470588235214
2014-05-29,0.25531914893616736
2014-05-30,0.5185185185185086
2014-06-03,0.20930232558139072
2014-06-04,0.33333333333333204
2014-06-05,0.16216216216216092
2014-06-06,0.16216216216216175
2014-06-09,0.10526315789474044
2014-06-10,0.21052631578947698
2014-06-11,0.1666666666666638
2014-06-12,0.12499999999999936
2014-06-13,0.23809523809524244
2014-06-16,0.40909090909091506
2014-06-17,0.4500000000000144
2014-06-18,0.24000000000001573
2014-06-19,0.37500000000001604
2014-06-20,0.7435897435897425
2014-06-23,0.7499999999999978
2014-06-24,0.5882352941176411
2014-06-25,0.7111111111111028
2014-06-26,0.7843137254901916
2014-06-27,0.3124999999999991
2014-06-30,0.1960784313725498
2014-07-01,0.28571428571429036
2014-07-02,0.37500000000000544
2014-07-03,0.20833333333333817
2014-07-04,0.28571428571429275
2014-07-07,0.41379310344828263
2014-07-08,0.39285714285714657
2014-07-09,0.10714285714285635
2014-07-10,0.1428571428571415
2014-07-11,0.6086956521739084
2014-07-14,0.49999999999999295
2014-07-15,0.5384615384615313
2014-07-16,0.7777777777777627
2014-07-17,0.5833333333333208
2014-07-18,0.15789473684210073
2014-07-21,0.17647058823529205
2014-07-22,0.0
2014-07-23,0.3911123448067071
2014-07-24,0.5603236210572411
2014-07-25,0.664075153871081
2014-07-28,0.7556380018550436
2014-07-29,0.9688606925720369
2014-07-30,0.5979646643109529
2014-07-31,0.5317705932705614
2014-08-01,0.5532264693793613
2014-08-04,0.4890716803760266
2014-08-05,0.40000000000000185
2014-08-06,0.7999999999999883
2014-08-07,0.8461538461538326
2014-08-08,0.6470588235294169
2014-08-11,0.25000000000000194
2014-08-12,0.10344827586206838
2014-08-13,0.09677419354838647
2014-08-14,0.39130434782608664
2014-08-15,0.5384615384615373
2014-08-18,0.7954545454545441
2014-08-19,0.874999999999996
2014-08-20,0.9743589743589716
2014-08-21,0.44444444444444503
2014-08-22,0.23809523809524016
2014-08-25,0.08108108108108414
2014-08-26,0.07500000000000297
2014-08-27,0.2448979591836729
2014-08-28,0.5357142857142828
2014-08-29,0.5769230769230745
2014-09-01,0.6785714285714258
2014-09-02,0.8936170212765964
2014-09-03,0.7500000000000011
2014-09-04,0.7435897435897454
2014-09-05,0.86842105263158
2014-09-09,0.8958333333333347
2014-09-10,0.5714285714285758
2014-09-11,0.48780487804878375
2014-09-12,0.4615384615384647
2014-09-15,0.5531914893617036
2014-09-16,0.2499999999999991
2014-09-17,0.26666666666666533
2014-09-18,0.37142857142856855
2014-09-19,0.38888888888888795
2014-09-22,0.4761904761904737
2014-09-23,0.8292682926829265
2014-09-24,0.849999999999998
2014-09-25,0.8823529411764691
2014-09-26,0.8888888888888874
2014-09-29,0.4687499999999996
2014-09-30,0.23880597014925323
2014-10-08,0.39999999999999947
2014-10-09,0.45121951219512385
2014-10-10,0.42307692307692385
2014-10-13,0.7384615384615366
2014-10-14,0.9795918367346922
2014-10-15,0.7391304347826085
2014-10-16,0.2999999999999993
2014-10-17,0.2884615384615388
2014-10-20,0.0
2014-10-21,0.0
2014-10-22,0.03921568627451342
2014-10-23,0.052631578947373435
2014-10-24,0.1707317073170801
2014-10-27,0.5517241379310452
2014-10-28,0.6428571428571493
2014-10-29,0.5161290322580662
2014-10-30,0.7999999999999957
2014-10-31,0.4166666666666633
2014-11-03,0.15789473684209804
2014-11-04,0.3469387755102042
2014-11-05,0.4489795918367351
2014-11-06,0.41304347826087323
2014-11-07,0.6666666666666686
2014-11-10,1.0
2014-11-11,0.44999999999999535
2014-11-12,0.17391304347826164
2014-11-13,0.12499999999999702
2014-11-14,0.0
2014-11-17,0.0
2014-11-18,1.0938031545696337e-14
2014-11-19,1.8594653627683314e-14
2014-11-20,1.4303579713602716e-14
2014-11-21,0.2857142857142857
2014-11-24,0.5999999999999974
2014-11-25,0.691701968602035
2014-11-26,0.7898063200815468
2014-11-27,1.0
2014-11-28,1.0
2014-12-01,1.0
2014-12-02,1.0
2014-12-03,1.0
2014-12-04,0.6779849989864212
2014-12-05,0.574185765983113
2014-12-08,0.16000000000000292
2014-12-09,0.019607843137255523
2014-12-10,0.019607843137255523
2014-12-11,0.02439024390243971
2014-12-12,0.17073170731707274
2014-12-15,0.3333333333333308
2014-12-16,0.4666666666666604
2014-12-17,0.39999999999999264
2014-12-18,0.7333333333333268
2014-12-19,0.6666666666666616
2014-12-22,0.8965517241379283
2014-12-23,0.9705882352941171
2014-12-24,1.0
2014-12-25,0.8536585365853672
2014-12-26,0.6808510638297877
2014-12-29,0.31111111111111334
2014-12-30,0.47457627118644
2014-12-31,0.48333333333333456
2015-01-05,0.5614035087719309
2015-01-06,0.7948717948717956
2015-01-07,1.0
2015-01-08,0.602941176470591
2015-01-09,0.44594594594594755
2015-01-12,0.487500000000001
2015-01-13,0.11688311688311896
2015-01-14,0.1604938271604926
2015-01-15,0.25454545454545296
2015-01-16,0.297872340425531
2015-01-19,0.11904761904761775
2015-01-20,0.5
2015-01-21,0.25000000000000017
2015-01-22,0.17241379310344768
2015-01-23,0.2083333333333324
2015-01-26,0.2857142857142849
2015-01-27,0.06250000000000161
2015-01-28,0.1111111111111136
2015-01-29,0.20000000000000057
2015-01-30,0.14285714285714698
2015-02-02,0.0
2015-02-03,0.0
2015-02-04,0.13333333333333058
2015-02-05,0.1249999999999979
2015-02-06,0.3055555555555532
2015-02-09,0.6666666666666686
2015-02-10,0.6896551724137916
2015-02-11,0.5
2015-02-12,0.5999999999999964
2015-02-13,0.478260869565213
2015-02-16,0.09090909090908571
2015-02-17,0.42307692307692385
2015-02-25,0.6800000000000028
2015-02-26,0.6800000000000052
2015-02-27,0.607142857142856
2015-03-02,0.8571428571428462
2015-03-03,0.4999999999999901
2015-03-04,0.15789473684209895
2015-03-05,0.49999999999999717
2015-03-06,0.5517241379310386
2015-03-09,0.6176470588235359
2015-03-10,0.7500000000000048
2015-03-11,1.0
2015-03-12,0.3666666666666726
2015-03-13,0.3666666666666688
2015-03-16,0.26923076923076605
2015-03-17,0.3214285714285692
2015-03-18,0.3870967741935436
2015-03-19,1.0
2015-03-20,1.0
2015-03-23,1.0
2015-03-24,1.0
2015-03-25,1.0
2015-03-26,1.0
2015-03-27,1.0
2015-03-30,1.0
2015-03-31,1.0
2015-04-01,0.6177049696778756
2015-04-02,0.6647558533047818
2015-04-03,0.5155839895013032
2015-04-07,0.3403408384127331
2015-04-08,0.5029757720605426
2015-04-09,0.7020461020461004
2015-04-10,0.6799465835744506
2015-04-13,0.8181818181818215
2015-04-14,1.0
2015-04-15,0.7400000000000029
2015-04-16,0.7173913043478286
2015-04-17,0.5272727272727294
2015-04-20,0.21978021978021775
2015-04-21,0.04347826086956499
2015-04-22,0.06060606060606027
2015-04-23,0.0
2015-04-24,0.4719101123595514
2015-04-27,0.6923076923076951
2015-04-28,0.8804347826086955
2015-04-29,0.9083333333333333
2015-04-30,0.9909090909090885
2015-05-04,0.9879518072289125
2015-05-05,0.9104477611940227
2015-05-06,0.859999999999993
2015-05-07,0.26315789473683926
2015-05-08,0.3692307692307694
2015-05-11,0.09000000000000156
2015-05-12,0.07692307692307851
2015-05-13,0.07200000000000134
2015-05-14,0.10989010989011061
2015-05-15,0.009999999999998932
2015-05-18,0.018181818181816294
2015-05-19,0.01639344262294908
2015-05-20,0.1206896551724196
2015-05-21,0.09230769230769921
2015-05-22,0.19607843137256217
2015-05-25,0.19607843137256223
2015-05-26,0.6388888888889022
2015-05-27,0.3469387755102099
2015-05-28,0.3148148148148191
2015-05-29,0.2203389830508476
2015-06-01,0.3692307692307636
2015-06-02,0.1774193548387038
2015-06-03,0.2558139534883653
2015-06-04,0.45714285714285613
2015-06-05,0.6296296296296325
2015-06-08,0.2068965517241449
2015-06-09,0.20689655172413984
2015-06-10,0.20000000000000254
2015-06-11,0.029411764705879063
2015-06-12,0.3124999999999971
2015-06-15,0.5238095238095168
2015-06-16,0.7674418604651144
2015-06-17,0.8615384615384588
2015-06-18,1.0
2015-06-19,0.7377049180327881
2015-06-23,0.6440677966101676
2015-06-24,0.562500000000001
2015-06-25,0.10000000000000732
2015-06-26,0.16279069767442617
2015-06-29,0.42857142857143143
2015-06-30,0.6052631578947402
2015-07-01,0.7500000000000001
2015-07-02,1.0
2015-07-03,0.8888888888888906
2015-07-06,0.9425287356321852
2015-07-07,0.9390243902439042
2015-07-08,0.9462365591397864
2015-07-09,0.9769585253456228
2015-07-10,1.0
2015-07-13,0.7921568627450989
2015-07-14,0.7921568627450984
2015-07-15,0.6167883211678833
2015-07-16,0.15750915750915614
2015-07-17,0.010791366906473792
2015-07-20,0.07883817427385717
2015-07-21,0.08264462809917275
2015-07-22,0.13265306122449014
2015-07-23,0.33333333333333487
2015-07-24,0.7647058823529438
2015-07-27,0.37037037037037507
2015-07-28,0.1818181818181892
2015-07-29,0.1818181818181801
2015-07-30,0.4285714285714256
2015-07-31,0.6200000000000001
2015-08-03,0.7209302325581395
2015-08-04,0.8157894736842071
2015-08-05,0.520833333333329
2015-08-06,0.30188679245282823
2015-08-07,0.0
2015-08-10,0.0
2015-08-11,0.0
2015-08-12,0.46942602930914357
2015-08-13,0.648696988751489
2015-08-14,0.8038965076513905
2015-08-17,0.9204389382515384
2015-08-18,1.0
2015-08-19,0.4985230418714314
2015-08-20,0.30521462432625374
2015-08-21,0.29466626335954993
2015-08-24,0.2778279608743891
2015-08-25,0.35849056603773555
2015-08-26,0.7349397590361465
2015-08-27,0.9615384615384638
2015-08-28,1.0
2015-08-31,0.7190082644628084
2015-09-01,0.5555555555555545
2015-09-02,0.37903225806451446
2015-09-07,0.2704918032786874
2015-09-08,0.0
2015-09-09,0.0
2015-09-10,0.12676056338027994
2015-09-11,0.26785714285714435
2015-09-14,0.5396825396825404
2015-09-15,0.971428571428568
2015-09-16,0.7555555555555502
2015-09-17,0.5319148936170194
2015-09-18,0.4042553191489321
2015-09-21,0.0
2015-09-22,0.14634146341463902
2015-09-23,0.15789473684211205
2015-09-24,0.21428571428572257
2015-09-25,0.3600000000000105
2015-09-28,0.3333333333333378
2015-09-29,0.11538461538461339
2015-09-30,0.40740740740739484
2015-10-08,0.6428571428571347
2015-10-09,0.6739130434782526
2015-10-12,0.9285714285714229
2015-10-13,1.0
2015-10-14,1.0
2015-10-15,0.7924528301886791
2015-10-16,0.6730769230769238
2015-10-19,0.02040816326531192
2015-10-20,0.03999999999999428
2015-10-21,0.016949152542368902
2015-10-22,0.09615384615384132
2015-10-23,0.10638297872339877
2015-10-26,0.2631578947368294
2015-10-27,0.548387096774196
2015-10-28,0.833333333333331
2015-10-29,0.7272727272727368
2015-10-30,0.666666666666689
2015-11-02,0.8148148148148364
2015-11-03,0.281250000000006
2015-11-04,0.2580645161290391
2015-11-05,0.3823529411764703
2015-11-06,0.4374999999999916
2015-11-09,0.21621621621620463
2015-11-10,0.5217391304347624
2015-11-11,0.5217391304347586
2015-11-12,0.26923076923074934
2015-11-13,0.2692307692307595
2015-11-16,0.7037037037036997
2015-11-17,0.7037037037036997
2015-11-18,0.679999999999997
2015-11-19,1.0
2015-11-20,1.0
2015-11-23,1.0
2015-11-24,1.0
2015-11-25,1.0
2015-11-26,1.0
2015-11-27,0.9435402619545832
2015-11-30,0.946061009921515
2015-12-01,0.8030962100426043
2015-12-02,0.807619379726695
2015-12-03,0.342730597661782
2015-12-04,0.4677306365857152
2015-12-07,0.32262401407991664
2015-12-08,0.36196055425648704
2015-12-09,0.17346938775510007
2015-12-10,0.24285714285714147
2015-12-11,0.036585365853657036
2015-12-14,0.18421052631578788
2015-12-15,0.14864864864864868
2015-12-16,0.2115384615384623
2015-12-17,0.41509433962264347
2015-12-18,0.8611111111111137
2015-12-21,0.8275862068965545
2015-12-22,0.7741935483870903
2015-12-23,0.8571428571428603
2015-12-24,0.7777777777777827
2015-12-25,0.2000000000000026
2015-12-28,0.023809523809527923
2015-12-29,0.22448979591837426
2015-12-30,0.4714285714285745
2015-12-31,0.45070422535211324
2016-01-04,0.6973684210526339
2016-01-05,0.9661016949152513
2016-01-06,0.9599999999999967
2016-01-07,0.6341463414634162
2016-01-08,0.6341463414634184
2016-01-11,0.13888888888888887
2016-01-12,0.31111111111111134
2016-01-13,0.21666666666666462
2016-01-14,0.3333333333333281
2016-01-15,0.4181818181818136
2016-01-18,0.7192982456140319
2016-01-19,0.5283018867924502
2016-01-20,0.7954545454545455
2016-01-21,0.7804878048780485
2016-01-22,0.8124999999999998
2016-01-25,0.4666666666666677
2016-01-26,0.5526315789473695
2016-01-27,0.42424242424242664
2016-01-28,0.3714285714285772
2016-01-29,0.0
2016-02-01,0.11538461538460128
2016-02-02,0.09374999999998838
2016-02-03,0.07499999999999019
2016-02-04,0.07142857142856197
2016-02-05,0.11538461538460056
2016-02-15,0.2812499999999992
2016-02-16,0.6808510638297863
2016-02-17,0.8888888888888873
2016-02-18,0.9523809523809448
2016-02-19,0.9599999999999967
2016-02-22,0.9666666666666642
2016-02-23,0.9473684210526283
2016-02-24,0.965517241379308
2016-02-25,1.0
2016-02-26,1.0
2016-02-29,0.7636363636363631
2016-03-01,0.6833333333333336
2016-03-02,0.2131147540983633
2016-03-03,0.2499999999999993
2016-03-04,0.15624999999999772
2016-03-07,0.2678571428571402
2016-03-08,0.7328244274809167
2016-03-09,0.9534883720930225
2016-03-10,0.9589041095890406
2016-03-11,1.0
2016-03-14,1.0
2016-03-15,0.5740740740740737
2016-03-16,0.425806451612905
2016-03-17,0.2689655172413801
2016-03-18,0.29801324503311116
2016-03-21,0.13013698630136752
2016-03-22,0.19999999999999685
2016-03-23,0.42857142857142805
2016-03-24,0.6100000000000023
2016-03-25,0.375000000000005
2016-03-28,0.44766874075728125
2016-03-29,0.6154658967452016
2016-03-30,0.4397337524267389
2016-03-31,0.18488149389514097
2016-04-01,0.48634582598031467
2016-04-05,0.4174689979203559
2016-04-06,0.2548523761042945
2016-04-07,0.3726981723057786
2016-04-08,0.3803435315606391
2016-04-11,0.39473684210525556
2016-04-12,0.8219178082191753
2016-04-13,0.9090909090909083
2016-04-14,0.9109589041095882
2016-04-15,1.0
2016-04-18,1.0
2016-04-19,0.9307692307692318
2016-04-20,0.7737556561085993
2016-04-21,0.8106060606060624
2016-04-22,0.8427672955974858
2016-04-25,0.5333333333333345
2016-04-26,0.6776119402985078
2016-04-27,0.7803468208092484
2016-04-28,0.7189542483660124
2016-04-29,0.44055944055943985
2016-05-03,0.7010676156583624
2016-05-04,0.4285714285714288
2016-05-05,0.3333333333333323
2016-05-06,0.42040816326530595
2016-05-09,0.7453183520599251
2016-05-10,0.4571428571428562
2016-05-11,0.6199095022624422
2016-05-12,0.47653429602888064
2016-05-13,0.4200000000000004
2016-05-16,0.03284671532846879
2016-05-17,0.18468468468468796
2016-05-18,0.209606986899565
2016-05-19,0.3750000000000011
2016-05-20,0.30252100840336077
2016-05-23,0.7766990291262126
2016-05-24,0.6095238095238068
2016-05-25,0.47457627118644014
2016-05-26,0.35772357723577286
2016-05-27,0.5213675213675225
2016-05-30,0.1399176954732515
2016-05-31,0.15668202764977052
2016-06-01,0.17346938775510257
2016-06-02,0.20987654320987637
2016-06-03,0.0
2016-06-06,0.1833333333333313
2016-06-07,0.1617647058823516
2016-06-08,0.18965517241379212
2016-06-13,0.35172413793103724
2016-06-14,0.8187919463087278
2016-06-15,0.5494505494505514
2016-06-16,0.6477987421383646
2016-06-17,0.6802325581395343
2016-06-20,0.5207100591715947
2016-06-21,0.10365853658536361
2016-06-22,0.374149659863943
2016-06-23,0.32298136645962666
2016-06-24,0.25333333333333274
2016-06-27,0.5742574257425753
2016-06-28,0.8639455782312935
2016-06-29,0.7739130434782634
2016-06-30,0.9307692307692327
2016-07-01,0.956834532374102
2016-07-04,0.47826086956521624
2016-07-05,0.672131147540984
2016-07-06,0.72020725388601
2016-07-07,0.6999999999999995
2016-07-08,0.6551724137931039
2016-07-11,0.9538461538461555
2016-07-12,0.8035714285714326
2016-07-13,0.7073170731707342
2016-07-14,0.27027027027027617
2016-07-15,0.30303030303030754
2016-07-18,0.7472527472527467
2016-07-19,0.4722222222222217
2016-07-20,0.40718562874251507
2016-07-21,0.6331877729257642
2016-07-22,0.6495726495726497
2016-07-25,0.4242424242424249
2016-07-26,0.5250000000000005
2016-07-27,0.6623376623376629
2016-07-28,0.15060240963855467
2016-07-29,0.10843373493975957
2016-08-01,0.10843373493975914
2016-08-02,0.1409395973154376
2016-08-03,0.020270270270271694
2016-08-04,0.11111111111111541
2016-08-05,0.28985507246376824
2016-08-08,0.8068181818181835
2016-08-09,0.845454545454546
2016-08-10,1.0
2016-08-11,1.0
2016-08-12,1.0
2016-08-15,0.7578475336322875
2016-08-16,0.8080810086369505
2016-08-17,0.5941782394372292
2016-08-18,0.580404121110928
2016-08-19,0.4591376751970844
2016-08-22,0.6213162308502265
2016-08-23,0.20147110103319915
2016-08-24,0.2197452831576312
2016-08-25,0.2927215792641583
2016-08-26,0.3541669376552758
2016-08-29,0.26804123711340055
2016-08-30,0.45217391304347726
2016-08-31,0.8105263157894728
2016-09-01,0.484018264840182
2016-09-02,0.5935251798561137
2016-09-05,0.6856187290969897
2016-09-06,0.7288732394366193
2016-09-07,0.6206896551724126
2016-09-08,0.9333333333333336
2016-09-09,0.7000000000000012
2016-09-12,0.5500000000000034
2016-09-13,0.8014705882352953
2016-09-14,0.36363636363636553
2016-09-19,0.4176706827309245
2016-09-20,0.42448979591836805
2016-09-21,0.40506329113923945
2016-09-22,0.10909090909090537
2016-09-23,0.6078431372549014
2016-09-26,0.29411764705882726
2016-09-27,0.2941176470588289
2016-09-28,0.10569105691057351
2016-09-29,0.18110236220472772
2016-09-30,0.1811023622047203
2016-10-10,0.2605042016806654
2016-10-11,0.3211009174311835
2016-10-12,1.0
2016-10-13,0.6228070175438464
2016-10-14,0.7663043478260805
2016-10-17,0.7712765957446757
2016-10-18,0.7999999999999958
2016-10-19,0.8193277310924341
2016-10-20,1.0
2016-10-21,0.7808988764045031
2016-10-24,0.7758620689655246
2016-10-25,0.821917808219184
2016-10-26,0.7705882352941257
2016-10-27,0.8125000000000056
2016-10-28,1.0
2016-10-31,1.0
2016-11-01,0.794871794871798
2016-11-02,0.6647230320699712
2016-11-03,0.4710982658959535
2016-11-04,0.3667820069204156
2016-11-07,0.050761421319794275
2016-11-08,0.6350148367952466
2016-11-09,0.8793969849246215
2016-11-10,0.9945872801082537
2016-11-11,0.9391191709844554
2016-11-14,0.9562118126272914
2016-11-15,0.953563714902808
2016-11-16,0.6817640047675801
2016-11-17,0.4833110814419222
2016-11-18,0.5467720685111984
2016-11-21,0.2590206185567005
2016-11-22,0.06675062972292181
2016-11-23,0.08103975535168198
2016-11-24,0.17211703958692043
2016-11-25,0.07755775577557883
2016-11-28,0.20963855421686844
2016-11-29,0.26769230769231017
2016-11-30,0.4634146341463423
2016-12-01,0.23433242506811708
2016-12-02,0.26959247648902573
2016-12-05,0.28818737270875655
2016-12-06,0.29952372552478185
2016-12-07,0.5027236866821101
2016-12-08,0.7736888053186505
2016-12-09,0.8922961151349831
2016-12-12,0.8965906525174986
2016-12-13,0.9428272947433407
2016-12-14,0.6792169428728796
2016-12-15,0.6277597025331175
2016-12-16,0.19024390243902453
2016-12-19,0.03679653679653785
2016-12-20,0.039080459770116004
2016-12-21,0.0432569974554718
2016-12-22,0.11111111111111029
2016-12-23,0.2930402930402928
2016-12-26,0.741935483870965
2016-12-27,0.7620481927710825
2016-12-28,1.0
2016-12-29,0.6772823779193207
2016-12-30,0.6098081023454155
2017-01-03,0.33415233415233475
2017-01-04,0.28463476070529076
2017-01-05,0.0
2017-01-06,0.21176470588235435
2017-01-09,0.389175257731959
2017-01-10,0.4855305466237951
2017-01-11,0.4646153846153856
2017-01-12,0.8455284552845551
2017-01-13,0.5375494071146256
2017-01-16,0.6618497109826601
2017-01-17,0.7896825396825399
2017-01-18,0.8512241054613933
2017-01-19,0.8371134020618549
2017-01-20,1.0
2017-01-23,0.6040892193308535
2017-01-24,0.30648330058938916
2017-01-25,0.20987654320987495
2017-01-26,0.23658051689860804
2017-02-03,0.21149897330595543
2017-02-06,0.43377483443708836
2017-02-07,0.4517241379310363
2017-02-08,0.458041958041961
2017-02-09,0.32389937106918565
2017-02-10,0.10810810810811086
2017-02-13,0.17793594306049795
2017-02-14,0.2824858757062155
2017-02-15,0.4505494505494496
2017-02-16,0.8086124401913873
2017-02-17,0.599290780141843
2017-02-20,0.4507575757575749
2017-02-21,0.49583333333333107
2017-02-22,0.534615384615383
2017-02-23,0.1786941580756005
2017-02-24,0.3119266055045858
2017-02-27,0.2982456140350864
2017-02-28,0.27419354838709636
2017-03-01,0.234042553191489
2017-03-02,0.35483870967741904
2017-03-03,0.21081081081081005
2017-03-06,0.37724550898203385
2017-03-07,0.41176470588235164
2017-03-08,0.09230769230769142
2017-03-09,0.33333333333333376
2017-03-10,0.3822393822393829
2017-03-13,0.47019867549669014
2017-03-14,0.5111111111111117
2017-03-15,0.9603960396039591
2017-03-16,0.6648044692737385
2017-03-17,0.697674418604648
2017-03-20,0.44537815126050284
2017-03-21,0.28333333333333227
2017-03-22,0.05494505494506176
2017-03-23,0.5696202531645613
2017-03-24,0.335877862595422
2017-03-27,0.5165562913907273
2017-03-28,0.6074074074074068
2017-03-29,0.6074074074074054
2017-03-30,0.2937062937062903
2017-03-31,0.6033057851239657
2017-04-05,0.3860213945742131
2017-04-06,0.36949234949235316
2017-04-07,0.7359530779144278
2017-04-10,0.9536540481258098
2017-04-11,0.9577807392455842
2017-04-12,1.0
2017-04-13,1.0
2017-04-14,0.7887387058786746
2017-04-17,0.5815778748998702
2017-04-18,0.4204545454545431
2017-04-19,0.13656387665198225
2017-04-20,0.28467153284671376
2017-04-21,0.3132530120481905
2017-04-24,0.4719101123595493
2017-04-25,0.4038461538461524
2017-04-26,0.5338983050847433
2017-04-27,0.17391304347826098
2017-04-28,0.1726618705035978
2017-05-02,0.0
2017-05-03,0.1878612716763038
2017-05-04,0.3752969121140167
2017-05-05,0.5722713864306817
2017-05-08,0.6360655737704948
2017-05-09,0.9671361502347433
2017-05-10,0.787709497206701
2017-05-11,0.37795275590551075
2017-05-12,0.16842105263158158
2017-05-15,0.45864661654134964
2017-05-16,0.3426573426573391
2017-05-17,0.45217391304347554
2017-05-18,0.33333333333333254
2017-05-19,0.46391752577319345
2017-05-22,0.3066666666666658
2017-05-23,0.4777070063694293
2017-05-24,0.55913978494624
2017-05-25,0.8188976377952731
2017-05-26,0.378048780487808
2017-05-31,0.6304347826086953
2017-06-01,0.5253623188405787
2017-06-02,0.43129770992366273
2017-06-05,0.4919354838709677
2017-06-06,0.7718446601941747
2017-06-07,0.17100371747211968
2017-06-08,0.18110236220472492
2017-06-09,0.1488673139158581
2017-06-12,0.16772151898734153
2017-06-13,0.048338368580060055
2017-06-14,0.5412541254125416
2017-06-15,0.5941558441558452
2017-06-16,0.8200692041522502
2017-06-19,0.8483965014577265
2017-06-20,1.0
2017-06-21,0.5247524752475242
2017-06-22,0.5339805825242715
2017-06-23,0.3854166666666653
2017-06-26,0.1198830409356729
2017-06-27,0.14971751412429313
2017-06-28,0.2465116279069756
2017-06-29,0.42957746478873166
2017-06-30,0.4841269841269831
2017-07-03,0.9675675675675648
2017-07-04,0.9672131147540958
2017-07-05,0.9944751381215456
2017-07-06,0.40566037735849286
2017-07-07,0.4131455399061059
2017-07-10,0.17222222222222391
2017-07-11,0.032258064516130044
2017-07-12,0.10714285714285841
2017-07-13,0.576271186440673
2017-07-14,0.6753246753246689
2017-07-17,0.9909090909090887
2017-07-18,0.6337209302325608
2017-07-19,0.6538461538461534
2017-07-20,0.5786516853932571
2017-07-21,0.5967741935483848
2017-07-24,0.6073298429319364
2017-07-25,0.9322033898305087
2017-07-26,0.6915422885572159
2017-07-27,0.7315789473684198
2017-07-28,0.4784482758620722
2017-07-31,0.4154589371980632
2017-08-01,0.17535545023696028
2017-08-02,0.44642857142856673
2017-08-03,0.5201957100210767
2017-08-04,0.7730727356475848
2017-08-07,0.7604327836965661
2017-08-08,1.0
2017-08-09,1.0
2017-08-10,0.9606075360862005
2017-08-11,0.9701684270625195
2017-08-14,0.6477049254610555
2017-08-15,0.6334750756640068
2017-08-16,0.45098039215686364
2017-08-17,0.6673511293634493
2017-08-18,0.46184738955823285
2017-08-21,0.6756272401433701
2017-08-22,0.6061705989110722
2017-08-23,0.7672131147540998
2017-08-24,0.5252336448598152
2017-08-25,0.7148362235067456
2017-08-28,0.41252302025782744
2017-08-29,0.5744360902255635
2017-08-30,0.41333333333333294
2017-08-31,0.5020242914979748
2017-09-01,0.35827664399092796
2017-09-04,0.6845070422535195
2017-09-05,0.26153846153846144
2017-09-06,0.4261744966442962
2017-09-07,0.3907692307692313
2017-09-08,0.5194029850746283
2017-09-11,0.3783783783783811
2017-09-12,0.563218390804598
2017-09-13,0.29629629629629595
2017-09-14,0.4871794871794845
2017-09-15,0.4382022471910053
2017-09-18,0.4318181818181759
2017-09-19,0.5839416058394129
2017-09-20,1.0
2017-09-21,1.0
2017-09-22,0.6809338521400762
2017-09-25,0.5957446808510606
2017-09-26,0.6298701298701248
2017-09-27,0.3659305993690831
2017-09-28,0.19277108433734946
2017-09-29,0.55263157894737
2017-10-09,0.7050847457627155
2017-10-10,0.7010309278350554
2017-10-11,1.0
2017-10-12,0.6465256797583093
2017-10-13,0.41516245487364734
2017-10-16,0.21428571428571458
2017-10-17,0.21428571428571594
2017-10-18,0.10878661087866139
2017-10-19,0.36000000000000043
2017-10-20,0.5188679245283027
2017-10-23,0.6321839080459735
2017-10-24,0.24786324786324862
2017-10-25,0.29126213592232836
2017-10-26,0.010101010101007927
2017-10-27,0.00395256916995845
2017-10-30,0.003134796238242912
2017-10-31,0.003174603174601539
2017-11-01,0.0
2017-11-02,0.27574750830564776
2017-11-03,0.2634920634920645
2017-11-06,0.3991935483870984
2017-11-07,0.542452830188681
2017-11-08,0.6634615384615391
2017-11-09,0.6744186046511637
2017-11-10,1.0
2017-11-13,0.9438775510204049
2017-11-14,0.9455445544554425
2017-11-15,0.9611307420494679
2017-11-16,0.5098039215686269
2017-11-17,0.3925233644859808
2017-11-20,0.47277936962750666
2017-11-21,0.4062500000000011
2017-11-22,0.12380952380952322
2017-11-23,0.5066079295154197
2017-11-24,0.6051502145922757
2017-11-27,0.36428571428571344
2017-11-28,0.4899999999999957
2017-11-29,0.4523076923076875
2017-11-30,0.4170648431914157
2017-12-01,0.3225697834943929
2017-12-04,0.5676837537848836
2017-12-05,0.5013535125162164
2017-12-06,0.8214918255291817
2017-12-07,0.8800815816581936
2017-12-08,1.0
2017-12-11,1.0
2017-12-12,0.9358960336124044
2017-12-13,0.9370629370629354
2017-12-14,0.5315904139433537
2017-12-15,0.18289786223277907
2017-12-18,0.19813519813519861
2017-12-19,0.26107226107226217
2017-12-20,0.16990291262135915
2017-12-21,0.3556485355648571
2017-12-22,0.7264957264957247
2017-12-25,0.7009345794392529
2017-12-26,0.3404255319148977
2017-12-27,0.5211267605633813
2017-12-28,0.2269230769230779
2017-12-29,0.23921568627451245
2018-01-02,0.07799442896936071
2018-01-03,0.10891089108911017
2018-01-04,0.1842900302114804
2018-01-05,0.4362139917695472
2018-01-08,0.3823529411764712
2018-01-09,0.4905660377358492
2018-01-10,0.5344827586206927
2018-01-11,0.22012578616352568
2018-01-12,0.07645259938838286
2018-01-15,0.1172638436482109
2018-01-16,0.2679245283018935
2018-01-17,0.1625441696113109
2018-01-18,0.30463576158940925
2018-01-19,0.6408450704225397
2018-01-22,0.6015037593985008
2018-01-23,0.4054054054054071
2018-01-24,0.576923076923066
2018-01-25,0.8595505617977452
2018-01-26,0.6506024096385444
2018-01-29,0.586956521739124
2018-01-30,0.63583815028901
2018-01-31,0.7055555555555533
2018-02-01,0.1241830065359492
2018-02-02,0.2887323943661976
2018-02-05,0.5970149253731325
2018-02-06,0.5899999999999997
2018-02-07,0.6495726495726486
2018-02-08,0.8444444444444454
2018-02-09,0.8766519823788561
2018-02-12,0.552995391705072
2018-02-13,0.4918032786885259
2018-02-14,0.28278688524590395
2018-02-22,0.494880546075088
2018-02-23,0.295719844357978
2018-02-26,0.5590551181102387
2018-02-27,0.6094420600858399
2018-02-28,0.7872340425531926
2018-03-01,0.4337349397590389
2018-03-02,0.3956043956043984
2018-03-05,0.07563025210083095
2018-03-06,0.364197530864187
2018-03-07,0.497560975609749
2018-03-08,0.7487179487179438
2018-03-09,1.0
2018-03-12,0.9884615384615426
2018-03-13,0.8214285714285763
2018-03-14,0.7867298578199102
2018-03-15,0.6666666666666774
2018-03-16,0.04020100502512292
2018-03-19,0.038095238095234935
2018-03-20,0.3548387096774155
2018-03-21,0.2640264026402631
2018-03-22,0.2547770700636921
2018-03-23,0.7552941176470557
2018-03-26,0.7165178571428588
2018-03-27,0.5578703703703716
2018-03-28,0.7168141592920364
2018-03-29,0.7745535714285727
2018-03-30,0.28042328042328196
2018-04-02,0.46590909090909194
2018-04-03,0.5714285714285731
2018-04-04,0.3972602739726036
2018-04-09,0.42257217847769035
2018-04-10,0.5669014084507031
2018-04-11,0.2769921554370344
2018-04-12,0.18441691361109885
2018-04-13,0.2844607142509871
2018-04-16,0.056975129941200804
2018-04-17,0.49123628517651424
2018-04-18,0.5276013726727654
2018-04-19,0.5948035487959414
2018-04-20,0.5160816586981688
2018-04-23,0.8458206456228508
2018-04-24,0.6313559322033896
2018-04-25,0.5437956204379568
2018-04-26,0.515037593984963
2018-04-27,0.5289575289575305
2018-05-02,0.0
2018-05-03,0.0
2018-05-04,0.0
2018-05-07,0.27631578947368746
2018-05-08,0.2346368715083811
2018-05-09,0.3157894736842118
2018-05-10,0.33599999999999824
2018-05-11,0.6060606060606034
2018-05-14,0.3482142857142839
2018-05-15,0.5849056603773573
2018-05-16,0.7269230769230738
2018-05-17,0.7443609022556378
2018-05-18,0.5479452054794486
2018-05-21,0.8616071428571407
2018-05-22,0.6744186046511603
2018-05-23,0.6363636363636359
2018-05-24,0.6137931034482792
2018-05-25,0.796747967479681
2018-05-28,0.6527777777777852
2018-05-29,1.0
2018-05-30,0.6642335766423352
2018-05-31,0.7401129943502807
2018-06-01,0.6161616161616092
2018-06-04,0.5555555555555548
2018-06-05,0.224719101123597
2018-06-06,0.2702702702702727
2018-06-07,0.2058823529411737
2018-06-08,0.21052631578947145
2018-06-11,0.15819209039547616
2018-06-12,0.45833333333332965
2018-06-13,0.4476744186046486
2018-06-14,0.30817610062893136
2018-06-15,0.541436464088398
2018-06-19,0.8674242424242435
2018-06-20,0.6428571428571422
2018-06-21,0.7260273972602722
2018-06-22,0.7043189368770748
2018-06-25,0.6603053435114481
2018-06-26,0.163424124513617
2018-06-27,0.22680412371134265
2018-06-28,0.17127071823204637
2018-06-29,0.3505154639175284
2018-07-02,0.4980079681274925
2018-07-03,0.7225433526011605
2018-07-04,0.6949152542372866
2018-07-05,0.6190476190476204
2018-07-06,0.48550724637681275
2018-07-09,0.0
2018-07-10,0.0
2018-07-11,0.0
2018-07-12,0.06293706293705707
2018-07-13,0.04812834224598465
2018-07-16,0.11111111111110045
2018-07-17,0.3944954128440258
2018-07-18,0.3359374999999921
2018-07-19,0.3200000000000026
2018-07-20,0.6091954022988542
2018-07-23,0.7327586206896598
2018-07-24,0.4047619047619125
2018-07-25,0.6140350877193
2018-07-26,0.35955056179775075
2018-07-27,0.5249999999999968
2018-07-30,0.5681818181818148
2018-07-31,0.7083333333333307
2018-08-01,0.7435897435897423
2018-08-02,1.0
2018-08-03,0.9558232931726922
2018-08-06,0.9508928571428586
2018-08-07,0.9696969696969706
2018-08-08,0.9674625561161664
2018-08-09,0.7102501308382829
2018-08-10,0.7402392393415789
2018-08-13,0.6138050723780227
2018-08-14,0.12534424384803008
2018-08-15,0.013354258455627054
2018-08-16,0.3487433477930337
2018-08-17,0.5419426540396164
2018-08-20,0.5353779386670183
2018-08-21,0.7709497206703907
2018-08-22,0.9147424511545292
2018-08-23,0.8989473684210525
2018-08-24,0.5657370517928295
2018-08-27,0.6523517382413095
2018-08-28,0.35972850678733165
2018-08-29,0.143564356435643
2018-08-30,0.2559139784946251
2018-08-31,0.3789808917197473
2018-09-03,0.45224719101123867
2018-09-04,0.5143769968051118
2018-09-05,0.6952054794520556
2018-09-06,0.28000000000000175
2018-09-07,0.39065817409766457
2018-09-10,0.24153498871331924
2018-09-11,0.5009380863039413
2018-09-12,0.4604462474645012
2018-09-13,0.8194945848375466
2018-09-14,0.5031055900621105
2018-09-17,0.493902439024387
2018-09-18,0.006211180124218259
2018-09-19,0.0
2018-09-20,0.007751937984495263
2018-09-21,0.22379603399433853
2018-09-25,0.3343465045592777
2018-09-26,0.5913978494623713
2018-09-27,0.9172932330827079
2018-09-28,0.9438775510204082
2018-10-08,0.9090909090909073
2018-10-09,0.9112903225806418
2018-10-10,1.0
2018-10-11,1.0
2018-10-12,1.0
2018-10-15,1.0
2018-10-16,0.6402877697841745
2018-10-17,0.6153846153846229
2018-10-18,0.8076923076923087
2018-10-19,0.7154471544715408
2018-10-22,0.667938931297706
2018-10-23,0.8101851851851787
2018-10-24,0.6267281105990705
2018-10-25,0.0
2018-10-26,0.0
2018-10-29,0.07421875000000223
2018-10-30,0.06737588652482483
2018-10-31,0.06291390728477018
2018-11-01,0.19473684210526132
2018-11-02,0.4444444444444444
2018-11-05,0.2896174863387955
2018-11-06,0.3231707317073136
2018-11-07,0.46086956521738714
2018-11-08,0.6025641025641015
2018-11-09,0.33522727272727204
2018-11-12,0.4797297297297318
2018-11-13,0.41040462427745894
2018-11-14,0.558252427184469
2018-11-15,0.23931623931624474
2018-11-16,0.38190954773869407
2018-11-19,0.31840796019900314
2018-11-20,0.5910931174089098
2018-11-21,0.6145038167938952
2018-11-22,0.8214285714285643
2018-11-23,0.8523206751054809
2018-11-26,0.9309210526315743
2018-11-27,0.926315789473679
2018-11-28,0.7481751824817486
2018-11-29,0.8400000000000014
2018-11-30,0.5472779369627528
2018-12-03,0.5706521739130438
2018-12-04,0.48196721311475543
2018-12-05,0.5157894736842121
2018-12-06,0.5389832561237781
2018-12-07,0.9448193739487672
2018-12-10,0.8043364790044847
2018-12-11,0.6941081539656174
2018-12-12,0.7356726353861013
2018-12-13,0.6835436224610941
2018-12-14,0.01920894152008525
2018-12-17,0.016618402206611867
2018-12-18,0.08063771516638488
2018-12-19,0.057644110275687534
2018-12-20,0.05324074074073909
2018-12-21,0.09956709956709675
2018-12-24,0.1716417910447692
2018-12-25,0.4504950495049499
2018-12-26,0.5229885057471211
2018-12-27,0.7590361445783047
2018-12-28,0.8581081081080963
2019-01-02,0.9440559440559355
2019-01-03,0.6666666666666513
2019-01-04,0.8333333333333323
2019-01-07,0.34653465346535384
2019-01-08,0.2809917355371932
2019-01-09,0.2031250000000063
2019-01-10,0.10236220472441353
2019-01-11,0.09523809523809951
2019-01-14,0.1578947368421076
2019-01-15,0.1927083333333397
2019-01-16,0.20441988950276843
2019-01-17,0.5873015873015928
2019-01-18,0.3809523809523736
2019-01-21,0.40909090909091245
2019-01-22,0.6976744186046503
2019-01-23,0.6741573033707835
2019-01-24,0.919540229885055
2019-01-25,0.6814159292035357
2019-01-28,0.6226415094339586
2019-01-29,0.17857142857142352
2019-01-30,0.42953020134227976
2019-01-31,0.554973821989528
2019-02-01,0.7254901960784322
2019-02-11,0.799227799227799
2019-02-12,1.0
2019-02-13,1.0
2019-02-14,0.8093023255813933
2019-02-15,0.7374301675977618
2019-02-18,0.4055555555555482
2019-02-19,0.44559585492227777
2019-02-20,0.07812500000000396
2019-02-21,0.08522727272727758
2019-02-22,0.07462686567164577
2019-02-25,0.10416666666667282
2019-02-26,0.06521739130434435
2019-02-27,0.08910891089108382
2019-02-28,0.22988505747125212
2019-03-01,0.5324675324675295
2019-03-04,0.7295081967213071
2019-03-05,0.6106870229007627
2019-03-06,0.82352941176471
2019-03-07,0.8043478260869633
2019-03-08,0.7977528089887685
2019-03-11,0.23711340206186102
2019-03-12,0.4455445544554449
2019-03-13,0.4862385321100866
2019-03-14,0.5555555555555513
2019-03-15,0.5483870967741923
2019-03-18,0.7157894736842121
2019-03-19,0.5168539325842759
2019-03-20,0.30357142857143427
2019-03-21,0.11678832116788604
2019-03-22,0.0
2019-03-25,0.0
2019-03-26,0.0
2019-03-27,0.09826589595376203
2019-03-28,0.21527777777778684
2019-03-29,0.287037037037047
2019-04-01,0.5639097744360901
2019-04-02,0.8761904761904682
2019-04-03,0.8839285714285625
2019-04-04,0.7142857142856991
2019-04-08,0.799072842789592
2019-04-09,0.49554475135497017
2019-04-10,0.5433161000462167
2019-04-11,0.2708787105607081
2019-04-12,0.6446301704223544
2019-04-15,0.6837611570786392
2019-04-16,0.7936803525588724
2019-04-17,0.5989045580458326
2019-04-18,0.7882789755706496
2019-04-19,0.5645161290322658
2019-04-22,0.3064516129032323
2019-04-23,0.1931818181818166
2019-04-24,0.26984126984126794
2019-04-25,0.0
2019-04-26,0.0
2019-04-29,0.04166666666664234
2019-04-30,0.2173913043478085
2019-05-06,0.8111111111111137
2019-05-07,0.986206896551721
2019-05-08,0.9727891156462574
2019-05-09,0.834319526627223
2019-05-10,0.8381502890173445
2019-05-13,0.5968992248061968
2019-05-14,0.059829059829061074
2019-05-15,0.24285714285714965
2019-05-16,0.2809917355371956
2019-05-17,0.38732394366197337
2019-05-20,0.4400000000000046
2019-05-21,0.9405940594059385
2019-05-22,0.9368421052631556
2019-05-23,0.9717741935483868
2019-05-24,0.9776357827476038
2019-05-27,1.0
2019-05-28,0.7451456310679634
2019-05-29,0.6445916114790308
2019-05-30,0.5626535626535651
2019-05-31,0.3965014577259495
2019-06-03,0.0
2019-06-04,0.0
2019-06-05,0.0
2019-06-06,0.29296875000000017
2019-06-10,0.2419354838709684
2019-06-11,0.5185185185185184
2019-06-12,0.7110481586402263
2019-06-13,0.7668539325842697
2019-06-14,0.5981873111782463
2019-06-17,0.8422712933753933
2019-06-18,0.5595567867036002
2019-06-19,0.2630057803468204
2019-06-20,0.1994219653179209
2019-06-21,0.21698113207547368
2019-06-24,0.0
2019-06-25,0.0787878787878824
2019-06-26,0.13541666666667357
2019-06-27,0.5763888888888866
2019-06-28,0.5187499999999993
2019-07-01,0.6285714285714289
2019-07-02,0.5388888888888869
2019-07-03,0.6763005780346797
2019-07-04,0.4814814814814811
2019-07-05,0.7222222222222157
2019-07-08,0.20161290322580575
2019-07-09,0.28318584070796304
2019-07-10,0.3135593220338988
2019-07-11,0.17297297297297293
2019-07-12,0.3601694915254242
2019-07-15,0.6470588235294138
2019-07-16,0.6218905472636833
2019-07-17,0.5181347150259087
2019-07-18,0.7246376811594176
2019-07-19,0.6666666666666666
2019-07-22,0.30208333333334053
2019-07-23,0.29896907216495483
2019-07-24,0.4631578947368423
2019-07-25,0.630434782608699
2019-07-26,0.24166666666666323
2019-07-29,0.20714285714285324
2019-07-30,0.2205882352941157
2019-07-31,0.0819672131147556
2019-08-01,0.11578947368421175
2019-08-02,0.5664062500000024
2019-08-05,0.7394957983193287
2019-08-06,0.751004016064258
2019-08-07,1.0
2019-08-08,1.0
2019-08-09,1.0
2019-08-12,1.0
2019-08-13,1.0
2019-08-14,1.0
2019-08-15,0.8464911178672812
2019-08-16,0.461666362672714
2019-08-19,0.1646104317574042
2019-08-20,0.12224938875305565
2019-08-21,0.0
2019-08-22,0.0
2019-08-23,0.005181347150265123
2019-08-26,0.515923566878987
2019-08-27,0.7480916030534419
2019-08-28,0.8951612903225915
2019-08-29,1.0
2019-08-30,1.0
2019-09-02,0.599999999999999
2019-09-03,0.6111111111111094
2019-09-04,0.4619047619047581
2019-09-05,0.45410628019323385
2019-09-06,0.16346153846153863
2019-09-09,0.33757961783440016
2019-09-10,0.17816091954023527
2019-09-11,0.1913580246913637
2019-09-12,0.22023809523809648
2019-09-16,0.5172413793103434
2019-09-17,0.39160839160838284
2019-09-18,0.633587786259531
2019-09-19,0.8776978417266105
2019-09-20,0.7172413793103427
2019-09-23,0.6940298507462657
2019-09-24,0.9036144578313275
2019-09-25,0.8534482758620744
2019-09-26,0.8357487922705376
2019-09-27,0.9351351351351392
2019-09-30,0.874251497005994
2019-10-08,0.10526315789474369
2019-10-09,0.3312883435582877
2019-10-10,0.20618556701031007
2019-10-11,0.19323671497584646
2019-10-14,0.37301587301587236
2019-10-15,0.5280898876404486
2019-10-16,0.47826086956521224
2019-10-17,0.578947368421048
2019-10-18,0.7337662337662296
2019-10-21,0.3734177215189829
2019-10-22,0.32417582417581825
2019-10-23,0.16071428571428473
2019-10-24,0.18571428571428508
2019-10-25,0.015151515151515124
2019-10-28,0.16463414634146176
2019-10-29,0.24576271186440565
2019-10-30,0.7073170731707304
2019-10-31,0.6321839080459752
2019-11-01,0.8840579710144917
2019-11-04,0.29133858267716634
2019-11-05,0.46428571428571425
2019-11-06,0.291666666666667
2019-11-07,0.3583815028901759
2019-11-08,0.2666666666666677
2019-11-11,0.6682027649769591
2019-11-12,0.539682539682542
2019-11-13,0.5730337078651648
2019-11-14,0.6398104265402789
2019-11-15,0.8070175438596441
2019-11-18,0.4622641509433888
2019-11-19,0.7062937062936988
2019-11-20,0.8248175182481752
2019-11-21,0.48201438848921285
2019-11-22,0.5068493150685
2019-11-25,0.7894736842105291
2019-11-26,0.7460317460317492
2019-11-27,0.7446808510638313
2019-11-28,1.0
2019-11-29,1.0
2019-12-02,0.3999999999999985
2019-12-03,0.24381625441696075
2019-12-04,0.2866666666666693
2019-12-05,0.23297491039426704
2019-12-06,0.11387900355872191
2019-12-09,0.4898785425101238
2019-12-10,0.7953216374269033
2019-12-11,0.5482233502538082
2019-12-12,0.6153764071920191
2019-12-13,0.733743737411965
2019-12-16,0.3492282378751059
2019-12-17,0.4288138903483257
2019-12-18,0.6019404117332011
2019-12-19,0.34153081901765114
2019-12-20,0.3590383348605403
2019-12-23,0.3440076160925164
2019-12-24,0.08977895131219815
2019-12-25,0.06289308176100829
2019-12-26,0.06493506493506739
2019-12-27,0.006896551724140209
2019-12-30,0.009259259259262225
2019-12-31,0.4033613445378187
2020-01-02,0.6892655367231642
2020-01-03,0.7393939393939372
2020-01-06,0.695402298850571
2020-01-07,0.8066666666666678
2020-01-08,0.55223880597015
2020-01-09,0.0
2020-01-10,0.015624999999993564
2020-01-13,0.38372093023255777
2020-01-14,0.45263157894736866
2020-01-15,0.4018691588784983
2020-01-16,0.3613445378151223
2020-01-17,0.4647887323943656
2020-01-20,0.2222222222222245
2020-01-21,0.26086956521738786
2020-01-22,0.6142131979695462
2020-01-23,0.7806122448979605
2020-02-03,0.8266129032258067
2020-02-04,1.0
2020-02-05,0.9446494464944637
2020-02-06,0.7283950617283927
2020-02-07,0.5731225296442676
2020-02-10,0.29113924050632894
2020-02-11,0.2851063829787215
2020-02-12,0.390438247011952
2020-02-13,0.4666666666666664
2020-02-14,0.5953757225433511
2020-02-17,0.7862595419847367
2020-02-18,0.20689655172414084
2020-02-19,0.029940119760479895
2020-02-20,0.15083798882681937
2020-02-21,0.12021857923497521
2020-02-24,0.2990196078431357
2020-02-25,0.6288659793814436
2020-02-26,0.8378378378378345
2020-02-27,0.8095238095238035
2020-02-28,0.9765625000000037
2020-03-02,0.9798657718120838
2020-03-03,1.0
2020-03-04,1.0
2020-03-05,0.7540983606557402
2020-03-06,0.4885496183206125
2020-03-09,0.03883495145630956
2020-03-10,0.21428571428571697
2020-03-11,0.17880794701987018
2020-03-12,0.3305084745762724
2020-03-13,0.6524390243902467
2020-03-16,0.5752688172043006
2020-03-17,0.3846153846153829
2020-03-18,0.5829959514170019
2020-03-19,0.7170329670329662
2020-03-20,0.5744047619047612
2020-03-23,0.7003367003366999
2020-03-24,0.8490566037735845
2020-03-25,0.6909871244635201
2020-03-26,0.12955465587044393
2020-03-27,0.12799999999999886
2020-03-30,0.09166666666666676
2020-03-31,0.1694464669725866
2020-04-01,0.43930417447085635
2020-04-02,0.8849545525891485
2020-04-03,1.0
2020-04-07,0.9479199261844592
2020-04-08,0.9455123900342496
2020-04-09,0.7147625356706085
2020-04-10,0.30712298115264375
2020-04-13,0.05366613916462983
2020-04-14,0.05475504322766691
2020-04-15,0.0
2020-04-16,0.0
2020-04-17,0.0
2020-04-20,0.0
2020-04-21,0.48214285714285315
2020-04-22,0.48648648648647974
2020-04-23,0.6406249999999934
2020-04-24,0.7142857142857119
2020-04-27,0.8256880733944966
2020-04-28,0.7654320987654352
2020-04-29,0.5688073394495468
2020-04-30,0.40000000000001396
2020-05-06,0.27083333333333615
2020-05-07,0.5038167938931326
2020-05-08,0.21276595744681115
2020-05-11,0.3536585365853681
2020-05-12,0.31351351351351553
2020-05-13,0.4098360655737732
2020-05-14,0.39664804469273734
2020-05-15,0.788135593220342
2020-05-18,0.8684210526315809
2020-05-19,0.9880239520958078
2020-05-20,0.8604651162790686
2020-05-21,0.7671232876712297
2020-05-22,0.8162162162162135
2020-05-25,0.4586466165413521
2020-05-26,0.5454545454545446
2020-05-27,0.6417910447761207
2020-05-28,0.48044692737430517
2020-05-29,0.13966480446927831
2020-06-01,0.15723270440252143
2020-06-02,0.2163742690058522
2020-06-03,0.24293785310734328
2020-06-04,0.5485714285714287
2020-06-05,0.8487394957983241
2020-06-08,1.0
2020-06-09,0.6857142857142818
2020-06-10,0.6597938144329871
2020-06-11,0.132530120481931
2020-06-12,0.3999999999999962
2020-06-15,0.40983606557376384
2020-06-16,0.4464285714285686
2020-06-17,0.4655172413793053
2020-06-18,0.7444444444444439
2020-06-19,0.24038461538460795
2020-06-22,0.15740740740740128
2020-06-23,0.16190476190475467
2020-06-24,0.09027777777777625
2020-06-29,0.30687830687830703
2020-06-30,0.38926174496644356
2020-07-01,0.33918128654970914
2020-07-02,0.41139240506329444
2020-07-03,0.6644295302013439
2020-07-06,0.27702702702702675
2020-07-07,0.3208955223880593
2020-07-08,0.5327868852458996
2020-07-09,0.5249999999999946
2020-07-10,0.4672897196261636
2020-07-13,1.0
2020-07-14,1.0
2020-07-15,0.6962962962962973
2020-07-16,0.7709497206703927
2020-07-17,0.7783783783783801
2020-07-20,0.5678391959799035
2020-07-21,0.46060606060606357
2020-07-22,0.7073170731707346
2020-07-23,0.6883116883116907
2020-07-24,0.7142857142857161
2020-07-27,0.9793103448275856
2020-07-28,0.876543209876539
2020-07-29,0.6219512195121922
2020-07-30,0.3599999999999982
2020-07-31,0.12429378531073418
2020-08-03,0.10404624277456902
2020-08-04,0.11180124223602834
2020-08-05,0.3952095808383266
2020-08-06,0.4615384615384654
2020-08-07,0.7017543859649158
2020-08-10,0.5040650406504038
2020-08-11,0.7119565217391265
2020-08-12,0.613138686131384
2020-08-13,0.7906976744185998
2020-08-14,0.47826086956521674
2020-08-17,0.6406250000000018
2020-08-18,0.3085714285714322
2020-08-19,0.2820016492571001
2020-08-20,0.3949760104893759
2020-08-21,0.6398495253566965
2020-08-24,0.38924589339372184
2020-08-25,0.5398055605080153
2020-08-26,0.45743867756843715
2020-08-27,0.16337974770040853
2020-08-28,0.24023132541697148
2020-08-31,0.4331610695836876
2020-09-01,0.3836206896551727
2020-09-02,0.5676855895196491
2020-09-03,0.9183673469387732
2020-09-04,0.6632124352331574
2020-09-07,0.5582822085889537
2020-09-08,0.6818181818181809
2020-09-09,0.6363636363636347
2020-09-10,0.5
2020-09-11,0.6511627906976768
2020-09-14,0.5436893203883517
2020-09-15,0.48913043478260637
2020-09-16,0.4125000000000042
2020-09-17,0.25000000000000355
2020-09-18,0.5806451612903255
2020-09-21,0.7910447761194077
2020-09-22,0.8381502890173457
2020-09-23,0.8703703703703733
2020-09-24,1.0
2020-09-25,0.7762557077625569
2020-09-28,0.7046632124352287
2020-09-29,0.43888888888888394
2020-09-30,0.14427860696517106
2020-10-09,0.1609756097560981
2020-10-12,0.27218934911242826
2020-10-13,0.4162436548223383
2020-10-14,0.3727272727272752
2020-10-15,0.5466666666666712
2020-10-16,0.3101265822784842
2020-10-19,0.43229166666666585
2020-10-20,0.2186046511627899
2020-10-21,0.4450549450549452
2020-10-22,0.3951219512195097
2020-10-23,0.4879518072289152
2020-10-26,0.2281879194630873
2020-10-27,0.49549549549549443
2020-10-28,0.22340425531915103
2020-10-29,0.3717948717948806
2020-10-30,0.5252525252525309
2020-11-02,0.8547008547008614
2020-11-03,0.6694915254237337
2020-11-04,0.922535211267605
2020-11-05,0.931464174454828
2020-11-06,0.9347181008902073
2020-11-09,0.931464174454828
2020-11-10,1.0
2020-11-11,0.6115879828326171
2020-11-12,0.5810185185185177
2020-11-13,0.4918793503480253
2020-11-16,0.4195804195804174
2020-11-17,0.027093596059113618
2020-11-18,0.11570247933884574
2020-11-19,0.05862068965517443
2020-11-20,0.241935483870969
2020-11-23,0.3553459119496902
2020-11-24,0.6243093922651982
2020-11-25,0.6344086021505414
2020-11-26,0.944785276073622
2020-11-27,0.5680473372781137
2020-11-30,0.3333333333333333
2020-12-01,0.5884615384615343
2020-12-02,0.5523012552301199
2020-12-03,0.5485232067510483
2020-12-04,0.8313725490196009
2020-12-07,1.0
2020-12-08,0.7457627118644058
2020-12-09,0.8288973384030421
2020-12-10,0.7796610169491535
2020-12-11,0.8078612872835923
2020-12-14,0.8216716309767508
2020-12-15,0.9760181666537413
2020-12-16,0.6956977627360951
2020-12-17,0.6513153594984804
2020-12-18,0.23328608780825935
2020-12-21,0.47296978475685586
2020-12-22,0.6082944234886316
2020-12-23,0.7356553165778266
2020-12-24,0.7776183644189381
2020-12-25,1.0
2020-12-28,0.6661721068249262
2020-12-29,0.370312500000001
2020-12-30,0.2397137745974959
2020-12-31,0.20560747663551243
2021-01-04,0.03611738148983929
2021-01-05,0.08597285067873123
2021-01-06,0.4222222222222144
2021-01-07,0.17924528301886508
2021-01-08,0.19444444444445438
2021-01-11,0.19090909090910005
2021-01-12,0.5841121495327095
2021-01-13,0.6936619718309872
2021-01-14,0.9609756097560987
2021-01-15,0.9611650485436904
2021-01-18,0.7388059701492509
2021-01-19,0.5260115606936399
2021-01-20,0.07786885245901684
2021-01-21,0.3538011695906416
2021-01-22,0.2817679558011036
2021-01-25,0.32903225806451625
2021-01-26,0.35099337748344406
2021-01-27,0.6807228915662706
2021-01-28,0.07913669064748538
2021-01-29,0.11000000000000407
2021-02-01,0.09565217391304627
2021-02-02,0.0432098765432135
2021-02-03,0.09883720930232512
2021-02-04,0.3162393162393221
2021-02-05,0.24503311258278615
2021-02-08,0.4585987261146564
2021-02-09,0.4556962025316508
2021-02-10,0.3179190751445135
2021-02-18,0.4935622317596581
2021-02-19,0.7083333333333328
2021-02-22,0.7754010695187159
2021-02-23,0.8630952380952351
2021-02-24,0.9294871794871782
2021-02-25,0.80152671755725
2021-02-26,0.7425742574257417
2021-03-01,0.28155339805825214
2021-03-02,0.7345132743362828
2021-03-03,0.7815126050420155
2021-03-04,0.6888888888888886
2021-03-05,0.6978417266187052
2021-03-08,0.5480225988700573
2021-03-09,0.19453924914676018
2021-03-10,0.14801444043321527
2021-03-11,0.31764705882353184
2021-03-12,0.18257261410788392
2021-03-15,0.2953020134228203
2021-03-16,0.3826086956521765
2021-03-17,0.4779411764705929
2021-03-18,0.14970059880239792
2021-03-19,0.1666666666666697
2021-03-22,0.5201612903225807
2021-03-23,0.526530612244898
2021-03-24,0.46222222222222065
2021-03-25,0.7326203208556131
2021-03-26,0.46440677966101584
2021-03-29,0.1855670103092737
2021-03-30,0.3670212765957393
2021-03-31,0.5598455598455575
2021-04-01,0.4014336917562707
2021-04-02,0.6153846153846139
2021-04-06,0.4007352941176464
2021-04-07,0.3917910447761205
2021-04-08,0.08950617283950738
2021-04-09,0.2985507246376843
2021-04-12,0.44306930693069524
2021-04-13,0.48509485094851157
2021-04-14,0.4273504273504293
2021-04-15,0.7415730337078655
2021-04-16,0.7024923183769651
2021-04-19,0.4161435894440098
2021-04-20,0.6778990772974619
2021-04-21,0.6773274525555266
2021-04-22,0.5260190217391306
2021-04-23,0.22658127661795524
2021-04-26,0.5574553329191353
2021-04-27,0.33520272465791123
2021-04-28,0.2891945928512502
2021-04-29,0.3395638629283476
2021-04-30,0.6450704225352102
2021-05-06,0.6888888888888892
2021-05-07,0.8484848484848491
2021-05-10,1.0
2021-05-11,1.0
2021-05-12,1.0
2021-05-13,1.0
2021-05-14,1.0
2021-05-17,0.6898395721925131
2021-05-18,0.42661034846884854
2021-05-19,0.3314977973568275
2021-05-20,0.21387283236994145
2021-05-21,0.0
2021-05-24,0.17963224893917945
2021-05-25,0.28131868131868154
2021-05-26,0.2633744855967083
2021-05-27,0.5146579804560247
2021-05-28,0.43169398907103934
2021-05-31,0.11969111969111926
2021-06-01,0.44660194174757106
2021-06-02,0.5197740112994336
2021-06-03,0.5392953929539301
2021-06-04,0.8683602771362579
2021-06-07,0.8209606986899576
2021-06-08,0.5620253164557004
2021-06-09,0.6682926829268339
2021-06-10,0.4320754716981158
2021-06-11,0.12235294117647225
2021-06-15,0.28850325379609654
2021-06-16,0.3122065727699527
2021-06-17,0.2747524752475221
2021-06-18,0.6373937677053788
2021-06-21,0.6859756097560955
2021-06-22,0.4472049689440976
2021-06-23,0.6729222520107243
2021-06-24,0.5287081339712937
2021-06-25,0.24153498871331913
2021-06-28,0.37982832618025847
2021-06-29,0.44029850746268684
2021-06-30,0.16355140186915898
2021-07-01,0.2743589743589726
2021-07-02,0.5596330275229338
2021-07-05,0.2958115183246058
2021-07-06,0.29350649350649327
2021-07-07,0.4981949458483759
2021-07-08,0.6361256544502636
2021-07-09,0.44772117962466557
2021-07-12,0.6139705882352954
2021-07-13,0.552980132450329
2021-07-14,0.474916387959865
2021-07-15,0.0
2021-07-16,0.1553398058252429
2021-07-19,0.1488372093023254
2021-07-20,0.5173611111111104
2021-07-21,0.5379061371841145
2021-07-22,0.5418181818181823
2021-07-23,0.38235294117647084
2021-07-26,0.645454545454546
2021-07-27,0.38127853881278495
2021-07-28,0.49903660886319806
2021-07-29,0.5211267605633785
2021-07-30,0.7126436781609181
2021-08-02,0.4767857142857142
2021-08-03,0.6382113821138213
2021-08-04,0.6260504201680676
2021-08-05,0.7011764705882374
2021-08-06,0.3435754189944139
2021-08-09,0.47859922178988207
2021-08-10,0.47656249999999667
2021-08-11,0.15807560137456808
2021-08-12,0.276073619631901
2021-08-13,0.3333333333333343
2021-08-16,0.5458448017770072
2021-08-17,0.4169936846165002
2021-08-18,0.7572729367388928
2021-08-19,0.8244091255644843
2021-08-20,0.9239241788780787
2021-08-23,0.9365556630714407
2021-08-24,1.0
2021-08-25,1.0
2021-08-26,1.0
2021-08-27,1.0
2021-08-30,0.609042553191488
2021-08-31,0.18361581920903547
2021-09-01,0.059602649006618304
2021-09-02,0.19165085388994124
2021-09-03,0.15325670498084235
2021-09-06,0.4537037037037019
2021-09-07,0.6999999999999997
2021-09-08,0.9394736842105281
2021-09-09,0.9389920424403203
2021-09-10,0.9920091324200918
2021-09-13,0.990825688073395
2021-09-14,0.9832061068702305
2021-09-15,0.9953810623556588
2021-09-16,0.9955156950672652
2021-09-17,0.4352392065344239
2021-09-22,0.3803317535545029
2021-09-23,0.3812351543942995
2021-09-24,0.2997311827956992
2021-09-27,0.13348164627363737
2021-09-28,0.5537313432835811
2021-09-29,0.4780927835051541
2021-09-30,0.6124999999999997
2021-10-08,0.4840823970037449
2021-10-11,0.7081673306772907
2021-10-12,0.46747967479674846
2021-10-13,0.6820469798657722
2021-10-14,0.5165250236071764
2021-10-15,0.6620241411327763
2021-10-18,0.5653594771241832
2021-10-19,0.8057803468208086
2021-10-20,0.7078260869565209
2021-10-21,0.9641025641025643
2021-10-22,0.9725920125293659
2021-10-25,1.0
2021-10-26,1.0
2021-10-27,1.0
2021-10-28,0.5221311475409837
2021-10-29,0.15462031107044794
2021-11-01,0.1185567010309272
2021-11-02,0.0888099467140327
2021-11-03,0.0725995316159257
2021-11-04,0.29073856975381074
2021-11-05,0.29210836277974217
2021-11-08,0.3042944785276086
2021-11-09,0.1288445552784707
2021-11-10,0.11913912375096106
2021-11-11,0.0
2021-11-12,0.0
2021-11-15,0.13547758284600428
2021-11-16,0.32892561983471147
2021-11-17,0.6498800959232602
2021-11-18,0.4608843537414961
2021-11-19,0.5833333333333326
2021-11-22,0.3504823151125388
2021-11-23,0.2668918918918906
2021-11-24,0.15034965034964937
2021-11-25,0.2758620689655141
2021-11-26,0.1720430107526896
2021-11-29,0.16107382550335628
2021-11-30,0.17518248175182427
2021-12-01,0.17206061103700218
2021-12-02,0.36316983687282345
2021-12-03,0.3583731213899945
2021-12-06,0.766899776620336
2021-12-07,0.8470232477474221
2021-12-08,0.8413554039179398
2021-12-09,0.7155030604493549
2021-12-10,0.40302929694951856
2021-12-13,0.3595055178101896
2021-12-14,0.10068649885583322
2021-12-15,0.1065375302663417
2021-12-16,0.1023255813953472
2021-12-17,0.12680115273775003
2021-12-20,0.09552238805970534
2021-12-21,0.4137931034482817
2021-12-22,0.43165467625899734
2021-12-23,0.4000000000000041
2021-12-24,0.5741626794258408
2021-12-27,0.7613941018766753
2021-12-28,0.4780487804878044
2021-12-29,0.4600938967136158
2021-12-30,0.5763157894736841
2021-12-31,0.5861182519280207
2022-01-04,0.06438631790744472
2022-01-05,0.285714285714285
2022-01-06,0.3259423503325945
2022-01-07,0.37959183673469366
2022-01-10,0.4085603112840458
2022-01-11,1.0
2022-01-12,0.7654320987654298
2022-01-13,0.8707482993197262
2022-01-14,0.6258064516128989
2022-01-17,0.7369614512471628
2022-01-18,0.7073732718893995
2022-01-19,0.7935034802784214
2022-01-20,0.6546052631578966
2022-01-21,0.9169230769230817
2022-01-24,0.3976261127596463
2022-01-25,0.34625322997416275
2022-01-26,0.25581395348837377
2022-01-27,0.21663019693654323
2022-01-28,0.1788990825688071
2022-02-07,0.2888888888888891
2022-02-08,0.6606217616580291
2022-02-09,0.755725190839693
2022-02-10,0.9745547073791346
2022-02-11,0.7439024390243899
2022-02-14,0.7869955156950672
2022-02-15,0.4094117647058806
2022-02-16,0.3027522935779803
2022-02-17,0.09368635437881846
2022-02-18,0.14215686274509615
2022-02-21,0.08854166666666839
2022-02-22,0.2841328413284183
2022-02-23,0.42448979591837116
2022-02-24,1.0
2022-02-25,1.0
2022-02-28,1.0
2022-03-01,1.0
2022-03-02,1.0
2022-03-03,0.9823399558498896
2022-03-04,0.19486081370449682
2022-03-07,0.4069400630914825
2022-03-08,0.46628814762242665
2022-03-09,0.42900302114803557
2022-03-10,0.47480482611781377
2022-03-11,0.9953650057937428
2022-03-14,0.7370129870129877
2022-03-15,0.5542857142857168
2022-03-16,0.5848375451263559
2022-03-17,0.3786078098471993
2022-03-18,0.06889352818371539
2022-03-21,0.05365853658536525
2022-03-22,0.05314009661835687
2022-03-23,0.0
2022-03-24,0.050359712230216486
2022-03-25,0.05000000000000067
2022-03-28,0.07567567567567683
2022-03-29,0.16455696202531614
2022-03-30,0.20634920634920623
2022-03-31,0.10526315789473441
2022-04-01,0.13407821229050043
2022-04-06,0.7424242424242409
2022-04-07,0.580188679245285
2022-04-08,0.5442477876106215
2022-04-11,0.7105263157894787
2022-04-12,0.9034690799396695
2022-04-13,0.7379844961240332
2022-04-14,0.8044776119402992
2022-04-15,0.8369565217391313
2022-04-18,0.5616621983914206
2022-04-19,0.3419778405673134
2022-04-20,0.5247188754116568
2022-04-21,0.4147029675094296
2022-04-22,0.5434172032997432
2022-04-25,0.9495596491446874
2022-04-26,0.6390226467612246
2022-04-27,0.6468655280196289
2022-04-28,0.6325774230931505
2022-04-29,0.5894902025821183
2022-05-05,0.18858954041204437
2022-05-06,0.2793427230046945
2022-05-09,0.06422018348623917
2022-05-10,0.07088607594936779
2022-05-11,0.0
2022-05-12,0.23145400593471566
2022-05-13,0.22543352601155814
2022-05-16,0.48456790123456506
2022-05-17,0.512578616352199
2022-05-18,0.7041666666666645
2022-05-19,0.32500000000000073
2022-05-20,0.6105610561056118
2022-05-23,0.6402439024390241
2022-05-24,0.7236533957845432
2022-05-25,0.619631901840492
2022-05-26,0.7146226415094378
2022-05-27,0.5903954802259908
2022-05-30,0.2370203160270898
2022-05-31,0.0
2022-06-01,0.012406947890818174
2022-06-02,0.16867469879517838
2022-06-06,0.13059701492537143
2022-06-07,0.16706443914080946
2022-06-08,0.3911845730027504
2022-06-09,0.5142857142857113
2022-06-10,0.40047393364928574
2022-06-13,0.671732522796349
2022-06-14,0.9088319088319071
2022-06-15,0.9388145315487564
2022-06-16,0.760617760617761
2022-06-17,0.799188640973633
2022-06-20,0.8970893970893982
2022-06-21,0.9073900841908333
2022-06-22,0.7515527950310562
2022-06-23,0.8607714016933208
2022-06-24,0.8776041666666663
2022-06-27,0.5190677966101682
2022-06-28,0.3101196953210002
2022-06-29,0.30810810810810757
2022-06-30,0.1773778920308499
2022-07-01,0.05898876404494537
2022-07-04,0.08484848484848723
2022-07-05,0.3000000000000045
2022-07-06,0.6985645933014364
2022-07-07,0.45703839122486306
2022-07-08,0.5801886792452842
2022-07-11,0.6684782608695655
2022-07-12,0.586826347305388
2022-07-13,0.23062015503876004
2022-07-14,0.320754716981132
2022-07-15,0.0
2022-07-18,0.17660044150110363
2022-07-19,0.17543859649122864
2022-07-20,0.5314861460957186
2022-07-21,0.46271929824561453
2022-07-22,0.6781609195402308
2022-07-25,0.3263598326359828
2022-07-26,0.3256784968684744
2022-07-27,0.06053268765133109
2022-07-28,0.4748700173310217
2022-07-29,0.3866459627329186
2022-08-01,0.6630236794171209
2022-08-02,0.5938009787928209
2022-08-03,0.6016528925619832
2022-08-04,0.22817460317460295
2022-08-05,0.41535433070866146
2022-08-08,0.29453681710213764
2022-08-09,0.35632183908046094
2022-08-10,0.43003412969283267
2022-08-11,0.8129032258064555
2022-08-12,0.17964071856287225
2022-08-15,0.009009009009007633
2022-08-16,0.2415094339622663
2022-08-17,0.5379310344827594
2022-08-18,0.46706586826347357
2022-08-19,0.6708074534161489
2022-08-22,0.7787094110780569
2022-08-23,0.7187837176148428
2022-08-24,0.24360799553665974
2022-08-25,0.3816501826028632
2022-08-26,0.10452065738349724
2022-08-29,0.340282656653069
2022-08-30,0.39346656325508667
2022-08-31,0.5166697562751065
2022-09-01,0.3935447101816
2022-09-02,0.5555555555555513
2022-09-05,0.11214953271027876
2022-09-06,0.016949152542372378
2022-09-07,0.14427860696517117
2022-09-08,0.21808510638297735
2022-09-09,0.20053475935828768
2022-09-13,0.4324324324324288
2022-09-14,0.9583333333333315
2022-09-15,0.9382716049382696
2022-09-16,0.6117647058823524
2022-09-19,0.5977011494252856
2022-09-20,0.6067415730337115
2022-09-21,0.4069767441860486
2022-09-22,0.25555555555556214
2022-09-23,0.27380952380952894
2022-09-26,0.5045871559633094
2022-09-27,0.26890756302521435
2022-09-28,0.45384615384615795
2022-09-29,0.4214285714285744
2022-09-30,0.41258741258741544
2022-10-10,0.15697674418604615
2022-10-11,0.5741444866920133
2022-10-12,0.7068062827225126
2022-10-13,0.7669376693766919
2022-10-14,0.8641425389755005
2022-10-17,1.0
2022-10-18,0.8277777777777782
2022-10-19,0.5327433628318586
2022-10-20,0.5592654424040079
2022-10-21,0.4114490161001791
2022-10-24,0.09288537549407239
2022-10-25,0.1026200873362459
2022-10-26,0.24050632911392494
2022-10-27,0.0847953216374259
2022-10-28,0.1111111111111126
2022-10-31,0.4243902439024385
2022-11-01,0.6866952789699577
2022-11-02,0.6523809523809541
2022-11-03,0.9716312056737567
2022-11-04,0.9851301115241623
2022-11-07,0.687499999999999
2022-11-08,0.477192982456136
2022-11-09,0.3779069767441832
2022-11-10,0.5104895104895092
2022-11-11,0.43396226415094324
2022-11-14,0.5952380952380957
2022-11-15,0.7314049586776884
2022-11-16,1.0
2022-11-17,0.719298245614031
2022-11-18,0.1508875739644964
2022-11-21,0.2603092783505124
2022-11-22,0.24324324324324084
2022-11-23,0.25961538461538236
2022-11-24,0.3548387096774191
2022-11-25,0.9054054054054053
2022-11-28,0.5732217573221796
2022-11-29,0.6733870967741976
2022-11-30,0.649350649350654
2022-12-01,0.6823529411764736
2022-12-02,0.5829145728643222
2022-12-05,0.9909090909090877
2022-12-06,0.9908675799086727
2022-12-07,0.8755760368663547
2022-12-08,0.7660818713450269
2022-12-09,0.6453201970443374
2022-12-12,0.20279720279720284
2022-12-13,0.0
2022-12-14,0.0
2022-12-15,0.0
2022-12-16,0.5892919976474814
2022-12-19,0.7969537185631359
2022-12-20,0.7567313704773821
2022-12-21,0.8004360823961055
2022-12-22,0.9396645689954075
2022-12-23,0.6187977382111193
2022-12-26,0.32574199253841213
2022-12-27,0.41770651381872353
2022-12-28,0.3603773584905669
2022-12-29,0.13082437275985762
2022-12-30,0.23056994818652818
2023-01-03,0.28253968253968265
2023-01-04,0.09183673469387492
2023-01-05,0.039800995024873415
2023-01-06,0.2660550458715543
2023-01-09,0.22611464968152542
2023-01-10,0.2946058091286266
2023-01-11,0.46025104602510203
2023-01-12,0.9224806201550431
2023-01-13,0.33802816901408994
2023-01-16,0.5107526881720474
2023-01-17,0.6093023255813977
2023-01-18,0.30263157894737075
2023-01-19,0.2837837837837862
2023-01-20,0.5601374570446758
2023-01-30,0.6279069767441876
2023-01-31,0.636363636363638
2023-02-01,1.0
2023-02-02,1.0
2023-02-03,0.8756756756756747
2023-02-06,0.5270588235294111
2023-02-07,0.3938730853391676
2023-02-08,0.19005847953215954
2023-02-09,0.011764705882351454
2023-02-10,0.1666666666666639
2023-02-13,0.386363636363634
2023-02-14,0.44502617801047223
2023-02-15,0.30451127819548907
2023-02-16,0.5401459854014601
2023-02-17,0.3186440677966112
2023-02-20,0.21753246753246774
2023-02-21,0.23024054982817807
2023-02-22,0.34389140271493435
2023-02-23,0.044776119402988625
2023-02-24,0.07031250000000586
2023-02-27,0.36800000000000355
2023-02-28,0.7677725118483434
2023-03-01,0.7741935483870965
2023-03-02,0.8076923076923108
2023-03-03,0.8173076923076921
2023-03-06,0.7777777777777721
2023-03-07,0.1278195488721655
2023-03-08,0.014184397163115361
2023-03-09,0.39156626506023406
2023-03-10,0.46842105263157713
2023-03-13,0.4299516908212591
2023-03-14,0.7727272727272805
2023-03-15,0.9022988505747196
2023-03-16,0.6714285714285848
2023-03-17,0.548387096774205
2023-03-20,0.539682539682545
2023-03-21,0.18260869565217488
2023-03-22,0.0
2023-03-23,0.21093749999999903
2023-03-24,0.1776315789473676
2023-03-27,0.16265060240963705
2023-03-28,0.47448979591836393
2023-03-29,0.6149425287356285
2023-03-30,0.3686635944700467
2023-03-31,0.5944881889763783
2023-04-03,0.8280098280098297
2023-04-04,0.7169312169312199
2023-04-06,0.7191601049868779
2023-04-07,0.8878787878787885
2023-04-10,0.875420875420876
2023-04-11,0.259649122807013
2023-04-12,0.24183006535947252
2023-04-13,0.18379450682045814
2023-04-14,0.33286714455659605
2023-04-17,0.20770692116033967
2023-04-18,0.3940015108355244
2023-04-19,0.5665544675642615
2023-04-20,0.6757537158467717
2023-04-21,0.3489833688918609
2023-04-24,0.63557718302244
2023-04-25,0.6329216695831084
2023-04-26,0.5932203389830509
2023-04-27,0.46052631578947256
2023-04-28,0.8823529411764677
2023-05-04,0.32967032967032794
2023-05-05,0.541353383458649
2023-05-08,0.811145510835912
2023-05-09,0.8559322033898307
2023-05-10,0.8538681948424068
2023-05-11,1.0
2023-05-12,1.0
2023-05-15,0.3022388059701517
2023-05-16,0.15094339622641254
2023-05-17,0.30340557275541463
2023-05-18,0.1802816901408444
2023-05-19,0.15803814713896294
2023-05-22,0.44292237442921806
2023-05-23,0.48989898989898734
2023-05-24,0.21546961325966635
2023-05-25,0.6833333333333337
2023-05-26,0.7689243027888452
2023-05-29,0.681415929203545
2023-05-30,0.7947761194029891
2023-05-31,0.8223938223938262
2023-06-01,0.5365853658536601
2023-06-02,0.4722222222222281
2023-06-05,0.45945945945945865
2023-06-06,0.07563025210084723
2023-06-07,0.29729729729729976
2023-06-08,0.21290322580645396
2023-06-09,0.1004184100418392
2023-06-12,0.23346303501945553
2023-06-13,0.37453183520599065
2023-06-14,0.33992094861660327
2023-06-15,0.4343434343434361
2023-06-16,0.7288135593220364
2023-06-19,0.3787878787878815
2023-06-20,0.051020408163271525
2023-06-21,0.0
2023-06-26,0.32258064516128776
2023-06-27,0.43874643874643554
2023-06-28,0.499999999999996
2023-06-29,0.7596153846153804
2023-06-30,0.9644670050761405
2023-07-03,0.7964601769911543
2023-07-04,0.45569620253164994
2023-07-05,0.31578947368421495
2023-07-06,0.48684210526315486
2023-07-07,0.506329113924049
2023-07-10,0.33755274261603097
2023-07-11,0.4520000000000002
2023-07-12,0.5136363636363668
2023-07-13,0.3141592920354029
2023-07-14,0.14042553191489757
2023-07-17,0.5000000000000034
2023-07-18,0.3854166666666672
2023-07-19,0.4646464646464613
2023-07-20,0.6777777777777784
2023-07-21,0.921985815602837
2023-07-24,0.6292134831460778
2023-07-25,0.5137614678899131
2023-07-26,0.6214285714285798
2023-07-27,0.5431034482758668
2023-07-28,0.5000000000000133
2023-07-31,0.5500000000000016
2023-08-01,0.8600000000000017
2023-08-02,0.36274509803921706
2023-08-03,0.7727272727272744
2023-08-04,0.7083333333333303
2023-08-07,0.7696793002915444
2023-08-08,0.6544943820224723
2023-08-09,0.8105263157894725
2023-08-10,0.3470588235294114
2023-08-11,0.4504249291784712
2023-08-14,0.3493975903614444
2023-08-15,0.47397228232266786
2023-08-16,0.28519707909754566
2023-08-17,0.5205266367177271
2023-08-18,0.30597664575390593
2023-08-21,0.6858215367916447
2023-08-22,0.7017849630386469
2023-08-23,0.8097209841753653
2023-08-24,0.9173500562791448
2023-08-25,0.8001626974108649
2023-08-28,0.37671232876711774
2023-08-29,0.035175879396982
2023-08-30,0.11520737327188844
2023-08-31,0.0851851851851845
2023-09-01,0.37349397590361566
2023-09-04,0.4261168384879738
2023-09-05,0.7079646017699118
2023-09-06,0.5092936802973984
2023-09-07,0.7721893491124253
2023-09-08,0.7189781021897791
2023-09-11,0.7770270270270262
2023-09-12,0.6689655172413802
2023-09-13,0.8947368421052657
2023-09-14,0.5368852459016445
2023-09-15,0.2892307692307737
2023-09-18,0.1773255813953512
2023-09-19,0.28124999999999994
2023-09-20,0.126666666666664
2023-09-21,0.3890784982935123
2023-09-22,0.7381974248926996
2023-09-25,0.9610389610389596
2023-09-26,0.9648437499999989
2023-09-27,0.8098360655737693
2023-09-28,0.850515463917525
2023-10-09,0.8338108882521488
2023-10-10,0.8578431372549019
2023-10-11,0.7358974358974356
2023-10-12,0.872881355932203
2023-10-13,0.36585365853658597
2023-10-16,0.4704684317718935
2023-10-17,0.20198675496688676
2023-10-18,0.27045075125208606
2023-10-19,0.24096385542168713
2023-10-20,0.4099216710182782
2023-10-23,0.12780269058295973
2023-10-24,0.30705394190871205
2023-10-25,0.23394495412843846
2023-10-26,0.32083333333333147
2023-10-27,0.3004291845493565
2023-10-30,0.7291666666666646
2023-10-31,0.7657657657657679
2023-11-01,0.3238095238095286
2023-11-02,0.25263157894736965
2023-11-03,0.34862385321100703
2023-11-06,0.4141414141414117
2023-11-07,0.2293577981651327
2023-11-08,0.6231884057971022
2023-11-09,0.6060606060606101
2023-11-10,0.3111111111111155
2023-11-13,0.5105263157894758
2023-11-14,0.748466257668711
2023-11-15,0.7696629213483128
2023-11-16,0.8681672025723466
2023-11-17,1.0
2023-11-20,0.8453237410071969
2023-11-21,0.8599348534201977
2023-11-22,0.628318584070798
2023-11-23,0.3913043478260881
2023-11-24,0.4814814814814811
2023-11-27,0.6437768240343326
2023-11-28,0.5439560439560427
2023-11-29,1.0
2023-11-30,0.7130044843049311
2023-12-01,0.3803921568627451
2023-12-04,0.48701298701298884
2023-12-05,0.3930481283422465
2023-12-06,0.24855491329479834
2023-12-07,0.4909090909090906
2023-12-08,0.5762195121951196
2023-12-11,0.48518518518518045
2023-12-12,0.7095435684647271
2023-12-13,0.8814102564102556
2023-12-14,0.4365482233502556
2023-12-15,0.5276928732205732
2023-12-18,0.4051154783464159
2023-12-19,0.32203964241225375
2023-12-20,0.07778642562750965
2023-12-21,0.23996025832090945
2023-12-22,0.23579948452578123
2023-12-25,0.2981030722987892
2023-12-26,0.34118372617418163
2023-12-27,0.855168601437251
2023-12-28,0.814814814814811
2023-12-29,0.3578947368421074
2024-01-02,0.7788461538461535
2024-01-03,0.804255319148935
2024-01-04,0.8137651821862326
2024-01-05,0.7258687258687234
2024-01-08,0.7966101694915253
2024-01-09,0.19417475728154965
2024-01-10,0.1024844720496872
2024-01-11,0.0
2024-01-12,0.0
2024-01-15,0.09308510638297719
2024-01-16,0.3069306930693023
2024-01-17,0.453551912568303
2024-01-18,0.6666666666666647
2024-01-19,0.9708737864077723
2024-01-22,0.8904109589041205
2024-01-23,0.5205479452054947
2024-01-24,0.1976744186046555
2024-01-25,0.0
2024-01-26,0.25170068027210907
2024-01-29,0.2905405405405394
2024-01-30,0.6138613861386136
2024-01-31,0.794392523364488
2024-02-01,0.8173076923076897
2024-02-02,0.6820512820512804
2024-02-05,0.5291666666666659
2024-02-06,0.22009569377990554
2024-02-07,0.0
2024-02-08,0.39636363636363536
2024-02-19,0.5977337110481574
2024-02-20,0.685064935064934
2024-02-21,0.9083820662768021
2024-02-22,0.9879275653923547
2024-02-23,0.8322440087145967
2024-02-26,0.7547169811320736
2024-02-27,0.8089887640449416
2024-02-28,0.21920668058455003
2024-02-29,0.16771488469601595
2024-03-01,0.3122362869198308
2024-03-04,0.28571428571428575
2024-03-05,0.1333333333333341
2024-03-06,0.3544303797468379
2024-03-07,0.35897435897436064
2024-03-08,0.06274509803921562
2024-03-11,0.1735159817351592
2024-03-12,0.2684563758389205
2024-03-13,0.4759615384615357
2024-03-14,0.5781990521326997
2024-03-15,1.0
2024-03-18,0.9732142857142907
2024-03-19,0.9815950920245435
2024-03-20,0.5182926829268313
2024-03-21,0.4870129870129914
2024-03-22,0.553672316384184
2024-03-25,0.5935828877005369
2024-03-26,0.44525547445255914
2024-03-27,1.0
2024-03-28,0.6987951807228908
2024-03-29,0.734042553191489
2024-04-01,0.5283018867924536
2024-04-02,0.32121212121212
2024-04-03,0.35260115606936254
2024-04-08,0.6627906976744177
2024-04-09,0.5446808510638296
2024-04-10,0.4571428571428575
2024-04-11,0.7039473684210537
2024-04-12,0.7376093294460648
2024-04-15,0.42968565223935057
2024-04-16,0.39141058033178544
2024-04-17,0.6017610968743557
2024-04-18,0.3580553458002035
2024-04-19,0.2099844491063611
2024-04-22,0.3590021800938342
2024-04-23,0.4951692807367345
2024-04-24,0.3387008825489555
2024-04-25,0.6716750703119049
2024-04-26,0.9799999999999979
2024-04-29,0.9756097560975585
2024-04-30,0.8705882352941139
2024-05-06,0.6509433962264157
2024-05-07,0.18750000000000558
2024-05-08,0.5694444444444486
2024-05-09,0.35263157894737074
2024-05-10,0.3850267379679167
2024-05-13,0.48850574712644196
2024-05-14,0.6950000000000016
2024-05-15,0.29508196721311564
2024-05-16,0.6091549295774641
2024-05-17,0.525000000000002
2024-05-20,0.48136645962732744
2024-05-21,0.41197183098591483
2024-05-22,0.8095238095238094
2024-05-23,0.5930735930735953
2024-05-24,0.7451923076923052
2024-05-27,0.7635467980295604
2024-05-28,0.716494845360827
2024-05-29,0.12499999999999917
2024-05-30,0.4601226993864973
2024-05-31,0.5643564356435601
2024-06-03,0.5327102803738271
2024-06-04,0.41605839416057977
2024-06-05,0.4956521739130403
2024-06-06,0.2134831460674157
2024-06-07,0.0
2024-06-11,0.0807174887892405
2024-06-12,0.18343195266272563
2024-06-13,0.3062500000000022
2024-06-14,0.8282828282828216
2024-06-17,0.942528735632186
2024-06-18,0.9431818181818196
2024-06-19,0.853658536585373
2024-06-20,0.840000000000009
2024-06-21,0.38461538461538564
2024-06-24,0.2564102564102571
2024-06-25,0.06626506024096583
2024-06-26,0.3480176211453739
2024-06-27,0.29310344827586166
2024-06-28,0.3285024154589368
2024-07-01,0.5720720720720708
2024-07-02,0.7888198757764022
2024-07-03,0.41843971631205795
2024-07-04,0.3575757575757557
2024-07-05,0.7040498442367586
2024-07-08,0.5422077922077905
2024-07-09,0.5732484076433092
2024-07-10,0.6081081081081062
2024-07-11,0.732394366197182
2024-07-12,0.13141025641025506
2024-07-15,0.39678284182305595
2024-07-16,0.3580901856763931
2024-07-17,0.4605597964376604
2024-07-18,0.4578005115089546
2024-07-19,0.9223744292237486
2024-07-22,0.44811320754717343
2024-07-23,0.6153846153846159
2024-07-24,0.39446366782006914
2024-07-25,0.3066202090592312
2024-07-26,0.3208191126279854
2024-07-29,0.4017094017094005
2024-07-30,0.3607305936073035
2024-07-31,0.678217821782177
2024-08-01,0.8225108225108226
2024-08-02,0.7523364485981319
2024-08-05,0.939086294416245
2024-08-06,0.5921052631578972
2024-08-07,0.5026737967914459
2024-08-08,0.2277777777777782
2024-08-09,0.26589595375722297
2024-08-12,0.4478260869565242
2024-08-13,0.7500000000000006
2024-08-14,0.7309941520467851
2024-08-15,1.0
2024-08-16,1.0
2024-08-19,0.6176470588235277
2024-08-20,0.26415094339623085
2024-08-21,0.26946009964877643
2024-08-22,0.17386837195157331
2024-08-23,0.04080557728215568
2024-08-26,0.5984197351714095
2024-08-27,0.767414682282437
2024-08-28,0.5261439888614571
2024-08-29,0.46518217608264995
2024-08-30,0.5685715068520464
2024-09-02,0.07601782530759098
2024-09-03,0.0580357142857165
2024-09-04,0.48239436619718473
2024-09-05,0.5931034482758624
2024-09-06,0.628930817610061
2024-09-09,0.91743119266055
2024-09-10,0.9539170506912461
2024-09-11,0.8979591836734729
2024-09-12,0.6235294117647039
2024-09-13,0.10169491525424355
2024-09-18,0.28888888888889586
2024-09-19,0.5317073170731711
2024-09-20,0.3432343234323436
2024-09-23,0.5292553191489375
2024-09-24,0.7760869565217398
2024-09-25,0.746606334841627
2024-09-26,0.5952941176470582
2024-09-27,0.7737003058103943
2024-09-30,0.8442105263157867
2024-10-08,0.8455114822546944
2024-10-09,0.859872611464968
2024-10-10,0.9872881355932195
2024-10-11,0.99792531120332
2024-10-14,0.4621359223300957
2024-10-15,0.12179487179487071
2024-10-16,0.13993710691823863
2024-10-17,0.27066666666666905
2024-10-18,0.3005115089514084
2024-10-21,0.3956228956228984
2024-10-22,0.7300613496932559
2024-10-23,0.6215469613259705
2024-10-24,0.11135857461024556
2024-10-25,0.006521739130435532
2024-10-28,0.31412639405204434
2024-10-29,0.35714285714285626
2024-10-30,0.37614678899082427
2024-10-31,0.7450980392156844
2024-11-01,0.9253731343283553
2024-11-04,0.49397590361445587
2024-11-05,0.20975609756097405
2024-11-06,0.5847953216374275
2024-11-07,0.5630769230769219
2024-11-08,0.6450000000000005
2024-11-11,0.7588235294117612
2024-11-12,0.9020979020978992
2024-11-13,0.36071428571428443
2024-11-14,0.3417266187050381
2024-11-15,0.0
2024-11-18,0.0
2024-11-19,0.1027027027027008
2024-11-20,0.1637931034482732
2024-11-21,0.17391304347825823
2024-11-22,0.659685863874346
2024-11-25,0.720000000000001
2024-11-26,0.46073298429319787
2024-11-27,0.5212765957446823
2024-11-28,0.4637681159420293
2024-11-29,0.047169811320751404
2024-12-02,0.05263157894736477
2024-12-03,0.21249999999999425
2024-12-04,0.34715025906735675
2024-12-05,0.44148936170212755
2024-12-06,0.6859504132231397
2024-12-09,0.8628571428571425
2024-12-10,0.9101123595505616
2024-12-11,0.7518796992481208
2024-12-12,0.7451737451737456
2024-12-13,0.8600000000000003
2024-12-16,0.6666666666666654
2024-12-17,0.26148409893992824
2024-12-18,0.40569395017793536
2024-12-19,0.40357142857142814
2024-12-20,0.17777777777777834
2024-12-23,0.20029530718366986
2024-12-24,0.3467223899079046
2024-12-25,0.04986344061164924
2024-12-26,0.0
2024-12-27,0.0
2024-12-30,0.06103449407707455
2024-12-31,0.22569487183881706
