date,FCT_Cr_Atr_Dfive
2010-01-04,
2010-01-05,
2010-01-06,
2010-01-07,
2010-01-08,
2010-01-11,
2010-01-12,
2010-01-13,
2010-01-14,
2010-01-15,
2010-01-18,-0.0854998943140996
2010-01-19,0.07448219569431291
2010-01-20,-0.41830217164092626
2010-01-21,0.32630455091418586
2010-01-22,0.14793802017823873
2010-01-25,-0.07158262680351196
2010-01-26,0.14755825222264765
2010-01-27,0.1802162286945519
2010-01-28,0.017338149485969803
2010-01-29,-0.06748513039500424
2010-02-01,0.34725133938970637
2010-02-02,-0.17060558766529133
2010-02-03,0.08086389554979767
2010-02-04,-0.2796240666037262
2010-02-05,0.022751198970642154
2010-02-08,-0.5321003798493049
2010-02-09,-0.06694020561522847
2010-02-10,-0.007915567282326478
2010-02-11,0.17555543498901238
2010-02-12,0.07204905467552414
2010-02-22,0.520528052805287
2010-02-23,0.025969221663209238
2010-02-24,0.013274336283190939
2010-02-25,0.05484535149445014
2010-02-26,-0.19128704113224565
2010-03-01,-0.5034146341463537
2010-03-02,0.14168980986968766
2010-03-03,-0.15792842433350102
2010-03-04,0.03422810172103022
2010-03-05,0.10440888684241235
2010-03-08,0.32724442138038967
2010-03-09,-0.08631346578366758
2010-03-10,0.17224029494686313
2010-03-11,-0.20775759968416332
2010-03-12,-0.020016990549008497
2010-03-15,-0.1457970003487994
2010-03-16,0.006547619047626175
2010-03-17,0.24764315090161512
2010-03-18,0.14629395502166065
2010-03-19,0.09538439773303842
2010-03-22,0.08695794000325477
2010-03-23,0.018383385147209167
2010-03-24,-0.38058068619228924
2010-03-25,-0.012065767102199157
2010-03-26,0.08009128937055529
2010-03-29,0.06257684067906624
2010-03-30,0.04637701268280267
2010-03-31,0.03218059668680759
2010-04-01,0.02631578947368426
2010-04-02,-0.146853146853147
2010-04-06,-0.12019914651493871
2010-04-07,-0.142141350210968
2010-04-08,0.04216297976933254
2010-04-09,-0.0583157894736845
2010-04-12,-0.04873913964823291
2010-04-13,-0.0366541353383317
2010-04-14,0.3198529411764675
2010-04-15,0.031007751937984836
2010-04-16,-0.06477419354838751
2010-04-19,0.11902302243211774
2010-04-20,0.15766178266176128
2010-04-21,-0.39968627450980265
2010-04-22,0.0
2010-04-23,0.09677419354838775
2010-04-26,-0.14268207282913903
2010-04-27,-0.12272389446299958
2010-04-28,1.5058390804597752
2010-04-29,-0.0545224856806451
2010-04-30,0.14097243303249643
2010-05-04,0.1895249164331887
2010-05-05,0.14654575146459087
2010-05-06,-1.610889464268144
2010-05-07,0.3356035667617292
2010-05-10,-0.17894711657679707
2010-05-11,-0.11341552530831198
2010-05-12,-0.13704097470500057
2010-05-13,0.17167949178958958
2010-05-14,-0.45129384703853026
2010-05-17,0.8777182732878933
2010-05-18,0.04283574790635001
2010-05-19,0.08560047925487596
2010-05-20,0.18602871093664997
2010-05-21,0.39074894552278916
2010-05-24,-1.1089581929083627
2010-05-25,0.05794079227076769
2010-05-26,-0.0917128439402626
2010-05-27,-0.07201352361585493
2010-05-28,-0.40572136475053
2010-05-31,0.14524766101600678
2010-06-01,-0.17790331938929482
2010-06-02,0.30226431453629893
2010-06-03,-0.042669399904526624
2010-06-04,0.09746588693957296
2010-06-07,0.2874284806103035
2010-06-08,0.18170123187275372
2010-06-09,-0.2627592822029476
2010-06-10,0.10394016251757004
2010-06-11,0.09866820335510548
2010-06-17,-0.17068175506803887
2010-06-18,-0.19173553719008496
2010-06-21,-0.017121046892037455
2010-06-22,-0.16715875539404781
2010-06-23,0.012636000550882412
2010-06-24,-0.16789499076677242
2010-06-25,0.08674454037583036
2010-06-28,-0.20571428571428976
2010-06-29,0.325661607926753
2010-06-30,0.013224910290544602
2010-07-01,0.17511520737327113
2010-07-02,0.19986116161448908
2010-07-05,0.2543862167982839
2010-07-06,-0.35927505330490994
2010-07-07,-0.18048797687045412
2010-07-08,-0.026845637583894445
2010-07-09,-0.38441134462354476
2010-07-12,0.04946471487872814
2010-07-13,0.443670150987236
2010-07-14,0.18742816091953646
2010-07-15,0.026845637583894445
2010-07-16,0.23084864753251735
2010-07-19,0.18189677091279577
2010-07-20,-0.4550186156067271
2010-07-21,-0.0492748618784561
2010-07-22,-0.005555555555558114
2010-07-23,-0.02395209580838051
2010-07-26,-0.15090332908621085
2010-07-27,0.16943403387257644
2010-07-28,0.10552486187845582
2010-07-29,0.09646464646464936
2010-07-30,0.020833333333333374
2010-08-02,-0.2880916127787118
2010-08-03,0.031244679855052318
2010-08-04,-0.05156091611329455
2010-08-05,-0.09409505570526412
2010-08-06,0.01682021090494031
2010-08-09,0.10057643182169976
2010-08-10,-0.055996915774800225
2010-08-11,-0.17824677619439738
2010-08-12,0.08053403109451601
2010-08-13,-0.12483303141776333
2010-08-16,0.1262823644357627
2010-08-17,-0.06074646074645907
2010-08-18,0.1763193202146683
2010-08-19,0.033763044812768456
2010-08-20,0.4585261042147461
2010-08-23,0.029954718828783602
2010-08-24,0.08550357433606326
2010-08-25,0.021057837833943653
2010-08-26,-0.2603378530943712
2010-08-27,-0.6586193443079873
2010-08-30,-0.14070913295398357
2010-08-31,0.07817328934079903
2010-09-01,0.007807418681191752
2010-09-02,0.15857253637578148
2010-09-03,0.30116161616162307
2010-09-06,0.15362035225048698
2010-09-07,-0.1946724161914004
2010-09-08,-0.2396961332483998
2010-09-09,1.305260947180502
2010-09-10,0.0006742179072238303
2010-09-13,-0.17310087173101124
2010-09-14,0.21705529646901672
2010-09-15,0.20441358844892715
2010-09-16,-1.8588244286478541
2010-09-17,0.12971550016906022
2010-09-20,0.14110591618126253
2010-09-21,-0.25010286193102804
2010-09-27,-0.11383248229390755
2010-09-28,0.6346813597353372
2010-09-29,-0.23205349479715015
2010-09-30,-0.004042979118325074
2010-10-08,0.1588231921683873
2010-10-11,0.590484554154526
2010-10-12,-0.03994868624223267
2010-10-13,0.20937337939482786
2010-10-14,-0.011498539568963677
2010-10-15,-0.01621981467809487
2010-10-18,-0.6592846479308151
2010-10-19,0.020073248875840992
2010-10-20,-0.0639061838705485
2010-10-21,-0.037252709182283274
2010-10-22,0.04900167742319381
2010-10-25,0.1277599113244058
2010-10-26,-0.1505882352941148
2010-10-27,-0.06856187290969415
2010-10-28,-0.01663336663336707
2010-10-29,-0.12171743697479187
2010-11-01,-0.11695820182295684
2010-11-02,0.04206896551724153
2010-11-03,-0.15758921614461902
2010-11-04,-0.03680371352785558
2010-11-05,0.3383983730478487
2010-11-08,0.3145322258708461
2010-11-09,0.49440464347435154
2010-11-10,0.3181886890915675
2010-11-11,0.27624408633447073
2010-11-12,-0.10997149786821384
2010-11-15,-0.15399578691937882
2010-11-16,-0.6042686030321174
2010-11-17,-0.22525438325403502
2010-11-18,-0.38057268980882514
2010-11-19,-0.42706416793457236
2010-11-22,-0.15838426408359835
2010-11-23,0.26015454460232096
2010-11-24,-0.03306138306138462
2010-11-25,0.1178701683859505
2010-11-26,0.1890985660216396
2010-11-29,0.11360991118366998
2010-11-30,-0.300671238873489
2010-12-01,0.14058585858586334
2010-12-02,0.0037332279245504488
2010-12-03,0.09412578736400265
2010-12-06,-0.027503819974992454
2010-12-07,0.13046044864227158
2010-12-08,-0.03200000000000349
2010-12-09,-0.00948592411261251
2010-12-10,-0.11232718894009414
2010-12-13,0.12977267711321464
2010-12-14,0.025140959295591014
2010-12-15,0.03381642512077032
2010-12-16,0.18843252992294435
2010-12-17,0.06757573468308775
2010-12-20,-0.05688265153776947
2010-12-21,0.00413885180239958
2010-12-22,0.05862054966914794
2010-12-23,-0.2748023005032371
2010-12-24,0.07347905282331349
2010-12-27,-0.17347956131605674
2010-12-28,0.12758132956153073
2010-12-29,-0.020364902717846425
2010-12-30,0.25646412411117836
2010-12-31,-0.11630461922596441
2011-01-04,0.18021237492342482
2011-01-05,-0.20366106378080145
2011-01-06,-0.3664443664443686
2011-01-07,-0.023689230293335195
2011-01-10,0.251773272236516
2011-01-11,-0.1260740074753024
2011-01-12,0.2657949739704021
2011-01-13,0.35526345738279597
2011-01-14,-0.29479862604261675
2011-01-17,-0.2863259451480897
2011-01-18,0.08992942916205075
2011-01-19,-0.2510314516291383
2011-01-20,-0.14113807659074867
2011-01-21,0.44496126449116424
2011-01-24,0.026699586044347787
2011-01-25,0.30232558139534915
2011-01-26,0.3131019261637209
2011-01-27,0.10214472379922887
2011-01-28,-0.26617929050814587
2011-01-31,0.18799608993157663
2011-02-01,-0.46899224806201295
2011-02-09,-0.43497899159663367
2011-02-10,0.12238079674619375
2011-02-11,-0.02996894409938636
2011-02-14,-0.2086176836861791
2011-02-15,0.191919191919183
2011-02-16,0.33491741524195195
2011-02-17,-0.24076983503534888
2011-02-18,0.03326298016040765
2011-02-21,0.10081651933328785
2011-02-22,0.3227866904337603
2011-02-23,-0.15224361845050793
2011-02-24,0.2313226887443336
2011-02-25,0.021163766862125236
2011-02-28,-0.0082047968989726
2011-03-01,-0.5783023735810153
2011-03-02,-0.06492618492618808
2011-03-03,-0.2621899512401936
2011-03-04,-0.044438497903845714
2011-03-07,-0.002339289003499172
2011-03-08,0.23026315789473584
2011-03-09,0.12226568158771303
2011-03-10,0.11636947957702262
2011-03-11,0.18228228228228133
2011-03-14,0.296880113450412
2011-03-15,0.060150375939848545
2011-03-16,0.08168049044356385
2011-03-17,0.21546185443949167
2011-03-18,-0.2240200412614194
2011-03-21,-0.4958730869309663
2011-03-22,-0.1507300860847768
2011-03-23,-0.19359441665959926
2011-03-24,-0.47838588692873846
2011-03-25,0.04963547705649375
2011-03-28,0.365104778169131
2011-03-29,0.04270736971939361
2011-03-30,0.0054530481426209865
2011-03-31,0.23148880105402175
2011-04-01,0.11221860077314338
2011-04-06,-0.21897335932422726
2011-04-07,0.09995741537644007
2011-04-08,0.3802277031797027
2011-04-11,0.05812749110212223
2011-04-12,-0.020285945800634718
2011-04-13,0.08839770684264586
2011-04-14,-0.06746969033551965
2011-04-15,-0.5129529126769046
2011-04-18,-0.11471314966798428
2011-04-19,0.03690856368907732
2011-04-20,-0.1349181746789084
2011-04-21,0.004211431027065645
2011-04-22,0.20528778248587143
2011-04-25,0.05923717371737195
2011-04-26,-0.37109044801354
2011-04-27,0.08873983739838028
2011-04-28,0.06075996121706102
2011-04-29,-0.1360825659504352
2011-05-03,0.07646997497915578
2011-05-04,0.30758757920093693
2011-05-05,0.05044819678965261
2011-05-06,0.5371900826446133
2011-05-09,0.3188156167978914
2011-05-10,0.016400097426311627
2011-05-11,0.11586227411317629
2011-05-12,0.027855761432406506
2011-05-13,-0.7654710175797268
2011-05-16,-0.11432182705718194
2011-05-17,-0.07278238450281736
2011-05-18,-0.36009584556713886
2011-05-19,-0.18894734891993142
2011-05-20,-0.007352353552303681
2011-05-23,-0.11276150627615023
2011-05-24,0.19261737019714564
2011-05-25,0.3242199567500838
2011-05-26,0.16138631192018343
2011-05-27,0.19160206718345615
2011-05-30,-0.00524861878452771
2011-05-31,-0.30158730158729996
2011-06-01,-0.05498193082086041
2011-06-02,-0.028153644696643866
2011-06-03,0.025890985324950946
2011-06-07,0.030858374882091717
2011-06-08,0.19740497076023744
2011-06-09,-0.042858824914641575
2011-06-10,0.028153644696649216
2011-06-13,0.0018867924528358782
2011-06-14,-0.05087857330186464
2011-06-15,-0.16758720930233417
2011-06-16,-0.1078664402942828
2011-06-17,-0.15505013450721838
2011-06-20,-0.01720430107527858
2011-06-21,0.0355862775217634
2011-06-22,0.0740438208725733
2011-06-23,0.2937124111536303
2011-06-24,0.12760962940765114
2011-06-27,0.025829009699982725
2011-06-28,0.04639394907851274
2011-06-29,0.01812672176309425
2011-06-30,-0.4584233875554373
2011-07-01,0.173137926659053
2011-07-04,-0.14119468317941625
2011-07-05,-0.057558867023100035
2011-07-06,-0.07369047619048485
2011-07-07,0.19678112986249502
2011-07-08,-0.5100770873966815
2011-07-11,-0.03922489724015968
2011-07-12,-0.038438256658586814
2011-07-13,0.37447478991598165
2011-07-14,0.30067666960871275
2011-07-15,0.4030676389238067
2011-07-18,0.17255244755243793
2011-07-19,0.298076923076927
2011-07-20,-0.3213903743315669
2011-07-21,-0.36391956952703675
2011-07-22,0.022573949143763872
2011-07-25,-0.014673433362745968
2011-07-26,-0.3897435897435976
2011-07-27,0.027272727272731754
2011-07-28,0.26103021082373007
2011-07-29,-0.07533651758576052
2011-08-01,0.1905825242718377
2011-08-02,0.5528532073986626
2011-08-03,0.09638554216867905
2011-08-04,-0.13953488372093117
2011-08-05,0.2433281004709553
2011-08-08,-0.27086956521738487
2011-08-09,-0.3719008264462753
2011-08-10,-0.061928954433401184
2011-08-11,0.10073367571533559
2011-08-12,-0.46396288507866257
2011-08-15,-0.008469546375240798
2011-08-16,-0.08041550998478497
2011-08-17,-0.21237069816472992
2011-08-18,-0.30222621302877445
2011-08-19,0.28433877087511406
2011-08-22,0.1727873874546924
2011-08-23,0.04135300998479043
2011-08-24,0.21043443563270442
2011-08-25,0.19361852156540388
2011-08-26,-0.28252484794542104
2011-08-29,-0.19255718675314937
2011-08-30,-0.15658967391305695
2011-08-31,-0.1406284333113631
2011-09-01,-0.12848962061559835
2011-09-02,0.40893901420218337
2011-09-05,0.581862534079502
2011-09-06,0.3995356690586769
2011-09-07,0.2774629468177869
2011-09-08,0.32946708463949836
2011-09-09,-0.2567690903559532
2011-09-13,-0.6927536231884207
2011-09-14,-0.29479258605472225
2011-09-15,-0.3693548387096658
2011-09-16,-0.4951867816091966
2011-09-19,0.32982486411872186
2011-09-20,0.3162790697674473
2011-09-21,0.1013257575757641
2011-09-22,0.32371134020616527
2011-09-23,0.7424503058103896
2011-09-26,0.6718319231865915
2011-09-27,-0.09347776683584394
2011-09-28,-0.004047239915078916
2011-09-29,0.047174735743188076
2011-09-30,-0.4565831886932746
2011-10-10,-1.2740953314201555
2011-10-11,0.06994063255226891
2011-10-12,0.07481138505652389
2011-10-13,-0.30740484728041845
2011-10-14,-0.011451767973509046
2011-10-17,0.2048601804699362
2011-10-18,-0.25329239419946387
2011-10-19,-0.19593491016877157
2011-10-20,1.8031854379977217
2011-10-21,-0.0024246084028645004
2011-10-24,0.12336767759085342
2011-10-25,0.17237078968486536
2011-10-26,0.10307185537000199
2011-10-27,-2.24822695035461
2011-10-28,0.0018440050219656681
2011-10-31,-0.026988399844586848
2011-11-01,-0.04140612978583408
2011-11-02,-0.0431958057898379
2011-11-03,0.3363989933653586
2011-11-04,-0.06576850644646758
2011-11-07,-0.1429354980254507
2011-11-08,0.15318130443454028
2011-11-09,0.04487804878048646
2011-11-10,0.6492016943629884
2011-11-11,0.49689479185882124
2011-11-14,0.2937106918238961
2011-11-15,-0.25934211195281914
2011-11-16,0.08853403141362162
2011-11-17,-0.5011277826811785
2011-11-18,-0.7792217838632371
2011-11-21,-0.5212643678160951
2011-11-22,0.26250716971513666
2011-11-23,-0.4410340314136195
2011-11-24,-0.6872263468494246
2011-11-25,4.921798631476156
2011-11-28,0.3715375918598199
2011-11-29,-0.29342723004696114
2011-11-30,0.3625000000000026
2011-12-01,1.801162090207749
2011-12-02,-4.649140049140148
2011-12-05,0.24556010928960714
2011-12-06,0.3192090395480254
2011-12-07,0.13970588235294612
2011-12-08,-1.1910419131046464
2011-12-09,0.2599355036855022
2011-12-12,-0.2359234234234179
2011-12-13,-0.14573965179292314
2011-12-14,-0.18024642289349285
2011-12-15,0.42067242162652907
2011-12-16,-0.12800141242938926
2011-12-19,-0.015221265221265918
2011-12-20,-0.0011847435603396144
2011-12-21,0.07406009361317265
2011-12-22,-0.37080319756375474
2011-12-23,-0.2010880937434454
2011-12-26,0.11153026078399032
2011-12-27,-0.08096044328152015
2011-12-28,-0.05574177529484112
2011-12-29,-0.05749385749385846
2011-12-30,0.20987654320986632
2012-01-04,1.4015191897654367
2012-01-05,0.27605931163155784
2012-01-06,0.04311774461027418
2012-01-09,0.1818181818181805
2012-01-10,-0.13352826510720717
2012-01-11,-2.086540684234836
2012-01-12,-0.5367168458781253
2012-01-13,0.027297248696274458
2012-01-16,0.5402298850574638
2012-01-17,0.24574495941345323
2012-01-18,0.8032614634556352
2012-01-19,0.47578494623655126
2012-01-20,0.017844964764725482
2012-01-30,-0.6021767877123289
2012-01-31,-0.13510278794705322
2012-02-01,-0.4077922077922053
2012-02-02,-0.3387683224746091
2012-02-03,0.13682469844567752
2012-02-06,-0.03749723360534163
2012-02-07,-0.004269992511844751
2012-02-08,0.4221005066411162
2012-02-09,0.27919727998137084
2012-02-10,-0.4652386719184977
2012-02-13,0.03904145169645486
2012-02-14,-0.15273809374152453
2012-02-15,-0.33876717330778605
2012-02-16,-0.18398748864898956
2012-02-17,0.37816571130797455
2012-02-20,0.21134608079016526
2012-02-21,0.1674473067915638
2012-02-22,0.13266666666666407
2012-02-23,0.10377358490567816
2012-02-24,-0.0842934106920912
2012-02-27,-0.31124873973786793
2012-02-28,-0.09731743666168517
2012-02-29,0.4153725490196154
2012-03-01,-0.01369863013699541
2012-03-02,-0.09399606299212904
2012-03-05,0.2195646027707138
2012-03-06,0.19860139860139178
2012-03-07,-0.6549750334916561
2012-03-08,0.10969863013699124
2012-03-09,0.03330291970804693
2012-03-12,-0.15700362016151762
2012-03-13,-0.12587412587413557
2012-03-14,0.25693581780537567
2012-03-15,-0.2734193548387181
2012-03-16,0.00958923715470264
2012-03-19,0.13774436090226339
2012-03-20,0.028846153846165314
2012-03-21,0.14423676012461747
2012-03-22,0.574244751664119
2012-03-23,0.048016934046345876
2012-03-26,-0.05657458563536065
2012-03-27,0.5722774416594607
2012-03-28,-0.21967535661584256
2012-03-29,0.07570207570206361
2012-03-30,0.0885063319764825
2012-04-05,0.25488193530127906
2012-04-06,-0.768389782555978
2012-04-09,0.09826077071729149
2012-04-10,-0.6545315625070172
2012-04-11,-0.18441542288556892
2012-04-12,-0.34286499041659235
2012-04-13,0.2211584026192223
2012-04-16,-0.007860053013941173
2012-04-17,0.10612333117196075
2012-04-18,0.13201612903225746
2012-04-19,0.10455764075066623
2012-04-20,-0.04562775275894427
2012-04-23,-0.12206594634873327
2012-04-24,-0.0008154063841518538
2012-04-25,-0.2689889724827398
2012-04-26,-0.14859437751003482
2012-04-27,-0.18964508323636617
2012-05-02,-0.08469462319558521
2012-05-03,0.2807659626201887
2012-05-04,0.7583515458482216
2012-05-07,0.19993926873874224
2012-05-08,0.17795596289220286
2012-05-09,0.3577778297754979
2012-05-10,-0.3072216598926326
2012-05-11,-0.6018020250814471
2012-05-14,-0.11845898518843592
2012-05-15,0.5681728589730949
2012-05-16,-0.22000236994904837
2012-05-17,0.11488895166606436
2012-05-18,-0.06344558682905604
2012-05-21,0.1141114829936755
2012-05-22,-0.9063940867256328
2012-05-23,-0.11567398119122282
2012-05-24,-0.2003335804299522
2012-05-25,0.6248824230262833
2012-05-28,-0.1005688176053724
2012-05-29,0.32277796075848136
2012-05-30,0.22097902097902183
2012-05-31,0.2878872713699178
2012-06-01,-0.8328683522231992
2012-06-04,0.3948036560595765
2012-06-05,0.41816121074738183
2012-06-06,-0.03411033411033443
2012-06-07,-0.017560010911078547
2012-06-08,0.3882437275985676
2012-06-11,-0.47636736262328266
2012-06-12,-0.6877548246806185
2012-06-13,-0.1788834288834299
2012-06-14,-0.16700208706022468
2012-06-15,-0.08160075329567255
2012-06-18,0.16946989908363108
2012-06-19,0.3424034471752303
2012-06-20,0.0063311342838934526
2012-06-21,0.07630270796398589
2012-06-25,-0.21353247948461487
2012-06-26,-0.23316517330522257
2012-06-27,-0.22182512039251406
2012-06-28,0.14836303356816843
2012-06-29,-0.08504848415161725
2012-07-02,0.7828481174762846
2012-07-03,0.3200425305688455
2012-07-04,0.33004537384098254
2012-07-05,-0.012362301101589973
2012-07-06,0.08025562612718165
2012-07-09,-0.5333479596313988
2012-07-10,-0.06666666666666482
2012-07-11,-0.18802423112767996
2012-07-12,0.025869520477467045
2012-07-13,0.0818465742728837
2012-07-16,-0.0591123876586688
2012-07-17,-0.18264462809917573
2012-07-18,0.9358146756005937
2012-07-19,-0.007564944333430662
2012-07-20,-0.09452741407528317
2012-07-23,-0.013526142344201735
2012-07-24,0.20342384887839665
2012-07-25,-1.4123680655722712
2012-07-26,-0.19245223927341254
2012-07-27,-0.08338428190307626
2012-07-30,0.04938271604938241
2012-07-31,-0.34155844155844695
2012-08-01,0.3873712111495696
2012-08-02,0.7801941747573238
2012-08-03,0.5851352315707011
2012-08-06,-0.1882845188284516
2012-08-07,0.30231624046057604
2012-08-08,0.2991238497776826
2012-08-09,-0.9309243697479422
2012-08-10,-1.0057964468533669
2012-08-13,0.41759625716106286
2012-08-14,-0.2473716465668985
2012-08-15,0.2481097741147446
2012-08-16,1.2742271220414767
2012-08-17,0.5304878048780488
2012-08-20,-0.31342388786531916
2012-08-21,0.5990442743809106
2012-08-22,-0.6454246702224493
2012-08-23,-1.0333962102374967
2012-08-24,0.0
2012-08-27,0.3504438078241648
2012-08-28,-0.5504535147392283
2012-08-29,0.13740591023139512
2012-08-30,-0.26836808051761785
2012-08-31,0.11627906976744455
2012-09-03,-0.4538316582914537
2012-09-04,0.09432234432234449
2012-09-05,0.03913213617983787
2012-09-06,0.33846153846154975
2012-09-07,0.1313399778516
2012-09-10,0.4470419847328093
2012-09-11,0.1350427350427323
2012-09-12,0.5366972477064136
2012-09-13,0.06439393939392958
2012-09-14,-0.2227080155905767
2012-09-17,-0.23176420695503192
2012-09-18,-0.1274774774774772
2012-09-19,-0.7230215827338122
2012-09-20,0.0513468013468007
2012-09-21,-0.049807297588634294
2012-09-24,-0.06607565011820679
2012-09-25,0.02541258072231682
2012-09-26,0.20926011484390658
2012-09-27,-0.3808570198105078
2012-09-28,0.031225379484219263
2012-10-08,-0.21956376287970217
2012-10-09,0.4252287385630742
2012-10-10,-0.004531215036915087
2012-10-11,0.2713274591939939
2012-10-12,-0.11744022503516527
2012-10-15,0.32036163522013617
2012-10-16,-0.5793729921347092
2012-10-17,0.1634539732493971
2012-10-18,0.05012684804478665
2012-10-19,-0.04888888888888307
2012-10-22,-0.006944444444457
2012-10-23,0.16698609268268594
2012-10-24,-0.22977667493795667
2012-10-25,0.6075275180494685
2012-10-26,0.36202020202019225
2012-10-29,-0.13538748832865863
2012-10-30,-0.0870326501184485
2012-10-31,-0.03846153846154246
2012-11-01,-1.1433977099611783
2012-11-02,-0.6626943593235698
2012-11-05,0.3714985994397797
2012-11-06,0.5450729120636506
2012-11-07,0.20172860847018997
2012-11-08,0.864948830409365
2012-11-09,0.4606741573033731
2012-11-12,-0.30670426065163947
2012-11-13,-0.5423540999753995
2012-11-14,-0.2666858734274615
2012-11-15,-0.8380482456140392
2012-11-16,0.0
2012-11-19,2.9573452862927527
2012-11-20,0.1410165704710585
2012-11-21,0.6550153201096758
2012-11-22,0.48478591978338603
2012-11-23,0.0
2012-11-26,-3.5030553558591846
2012-11-27,0.008406850025945156
2012-11-28,-1.147253240919014
2012-11-29,0.6486967229937495
2012-11-30,0.01265822784810574
2012-12-03,0.5607476635513998
2012-12-04,-0.267553191489366
2012-12-05,2.567368883037092
2012-12-06,-0.9322477118744559
2012-12-07,-0.020120914415272455
2012-12-10,0.7293233082706713
2012-12-11,0.1815217391304403
2012-12-12,-2.382551319648105
2012-12-13,0.19734259399063636
2012-12-14,0.4836531627576439
2012-12-17,-1.1938394373029295
2012-12-18,0.04347826086956341
2012-12-19,0.39906900328587497
2012-12-20,0.05405405405405551
2012-12-21,-1.142857142857144
2012-12-24,-0.055483870967729165
2012-12-25,8.333333333333114
2012-12-26,0.09638554216867339
2012-12-27,0.0
2012-12-28,0.6666666666666666
2012-12-31,0.4128571428571277
2013-01-04,-9.333333333333114
2013-01-07,inf
2013-01-08,0.9344262295081911
2013-01-09,0.0
2013-01-10,0.10714285714285966
2013-01-11,1.6525423728813604
2013-01-14,-inf
2013-01-15,-1.1709407523297666
2013-01-16,0.2010869565217392
2013-01-17,0.13122171945701053
2013-01-18,-0.9605423728813622
2013-01-21,-0.206995701793386
2013-01-22,0.23651452282157553
2013-01-23,-0.38086223742061387
2013-01-24,-0.3298518564433076
2013-01-25,3.2481709401709296
2013-01-28,-0.20894511805198948
2013-01-29,0.07407407407407485
2013-01-30,0.33248464050478604
2013-01-31,0.19863013698629708
2013-02-01,-3.634615384615371
2013-02-04,0.3968266007311603
2013-02-05,0.029374201787990356
2013-02-06,-0.501667692939246
2013-02-07,0.0
2013-02-08,1.3584444444444403
2013-02-18,-0.23601398601399043
2013-02-19,-0.2308992562542179
2013-02-20,0.4444639513108645
2013-02-21,0.25128205128205006
2013-02-22,-1.0492459016393427
2013-02-25,-0.34743589743589176
2013-02-26,-0.083075335397326
2013-02-27,0.1844943820224657
2013-02-28,-0.5637820512820448
2013-03-01,0.5973671137605585
2013-03-04,0.35416666666666163
2013-03-05,0.48900732844770234
2013-03-06,-0.6562376237623719
2013-03-07,0.026785714285702145
2013-03-08,-0.7010101010101009
2013-03-11,0.05597826086956993
2013-03-12,-0.8201476793248521
2013-03-13,0.3762376237623763
2013-03-14,19.01298701298548
2013-03-15,0.6179211469534002
2013-03-18,0.02999112688553507
2013-03-19,0.5758871989860191
2013-03-20,0.0
2013-03-21,-19.488302139035895
2013-03-22,2.086352357320104
2013-03-25,-0.13088565569769217
2013-03-26,-0.12559109069502733
2013-03-27,0.0
2013-03-28,0.761029411764705
2013-03-29,-2.818736570691879
2013-04-01,0.21234584540739004
2013-04-02,0.09137055837563675
2013-04-03,0.0
2013-04-08,0.0
2013-04-09,-0.177135849570782
2013-04-10,-1.1549295774648018
2013-04-11,
2013-04-12,
2013-04-15,inf
2013-04-16,0.7804878048780448
2013-04-17,1.0
2013-04-18,
2013-04-19,
2013-04-22,-inf
2013-04-23,
2013-04-24,
2013-04-25,
2013-04-26,
2013-05-02,
2013-05-03,
2013-05-06,
2013-05-07,
2013-05-08,
2013-05-09,
2013-05-10,
2013-05-13,
2013-05-14,
2013-05-15,
2013-05-16,-inf
2013-05-17,-0.0533868021916957
2013-05-20,-2.487158645053378
2013-05-21,-0.9703888596952296
2013-05-22,6.166666666667186
2013-05-23,0.3440428380187413
2013-05-24,0.018367346938776143
2013-05-27,0.8856548856548843
2013-05-28,0.751374207188181
2013-05-29,-7.166666666667186
2013-05-30,
2013-05-31,
2013-06-03,
2013-06-04,
2013-06-05,
2013-06-06,
2013-06-07,
2013-06-13,
2013-06-14,
2013-06-17,
2013-06-18,-inf
2013-06-19,0.017628205128203647
2013-06-20,-1.346041119860034
2013-06-21,0.0
2013-06-24,-1.741277576464379
2013-06-25,2.0903225806451777
2013-06-26,-0.040592714522773854
2013-06-27,0.2488188976377976
2013-06-28,0.0
2013-07-01,0.6750524109014693
2013-07-02,-3.0903225806451777
2013-07-03,
2013-07-04,
2013-07-05,
2013-07-08,
2013-07-09,
2013-07-10,
2013-07-11,
2013-07-12,
2013-07-15,
2013-07-16,
2013-07-17,
2013-07-18,
2013-07-19,
2013-07-22,
2013-07-23,
2013-07-24,
2013-07-25,
2013-07-26,
2013-07-29,
2013-07-30,
2013-07-31,-inf
2013-08-01,
2013-08-02,
2013-08-05,
2013-08-06,
2013-08-07,
2013-08-08,
2013-08-09,
2013-08-12,
2013-08-13,
2013-08-14,
2013-08-15,
2013-08-16,
2013-08-19,
2013-08-20,
2013-08-21,-inf
2013-08-22,inf
2013-08-23,0.0
2013-08-26,0.0
2013-08-27,0.0
2013-08-28,1.0
2013-08-29,-inf
2013-08-30,
2013-09-02,inf
2013-09-03,3.04347826086953
2013-09-04,1.0430107526881665
2013-09-05,1.1192982456140346
2013-09-06,
2013-09-09,-inf
2013-09-10,-3.412546802170058
2013-09-11,-1.5973283014346848
2013-09-12,0.33070175438596944
2013-09-13,0.0
2013-09-16,0.10815047021943698
2013-09-17,0.36906854130052796
2013-09-18,1.1319037556430698
2013-09-23,0.1538251366120167
2013-09-24,0.8262350936967626
2013-09-25,0.0
2013-09-26,0.0
2013-09-27,-0.7884071024189396
2013-09-30,-1.0305390846025646
2013-10-08,-1.8262350936967626
2013-10-09,
2013-10-10,
2013-10-11,
2013-10-14,
2013-10-15,
2013-10-16,
2013-10-17,
2013-10-18,
2013-10-21,
2013-10-22,
2013-10-23,
2013-10-24,
2013-10-25,
2013-10-28,
2013-10-29,
2013-10-30,
2013-10-31,
2013-11-01,
2013-11-04,
2013-11-05,
2013-11-06,
2013-11-07,
2013-11-08,-inf
2013-11-11,
2013-11-12,
2013-11-13,
2013-11-14,
2013-11-15,inf
2013-11-18,
2013-11-19,
2013-11-20,
2013-11-21,
2013-11-22,-inf
2013-11-25,
2013-11-26,
2013-11-27,
2013-11-28,
2013-11-29,
2013-12-02,
2013-12-03,
2013-12-04,
2013-12-05,
2013-12-06,
2013-12-09,
2013-12-10,
2013-12-11,
2013-12-12,
2013-12-13,
2013-12-16,-inf
2013-12-17,-179.00000000000168
2013-12-18,
2013-12-19,
2013-12-20,
2013-12-23,
2013-12-24,
2013-12-25,
2013-12-26,
2013-12-27,
2013-12-30,
2013-12-31,
2014-01-02,
2014-01-03,
2014-01-06,-inf
2014-01-07,
2014-01-08,
2014-01-09,inf
2014-01-10,0.0
2014-01-13,1.0
2014-01-14,
2014-01-15,
2014-01-16,-inf
2014-01-17,
2014-01-20,
2014-01-21,
2014-01-22,
2014-01-23,
2014-01-24,
2014-01-27,
2014-01-28,
2014-01-29,
2014-01-30,
2014-02-07,
2014-02-10,
2014-02-11,
2014-02-12,
2014-02-13,
2014-02-14,
2014-02-17,
2014-02-18,
2014-02-19,
2014-02-20,
2014-02-21,
2014-02-24,
2014-02-25,
2014-02-26,-inf
2014-02-27,
2014-02-28,
2014-03-03,
2014-03-04,
2014-03-05,
2014-03-06,
2014-03-07,
2014-03-10,
2014-03-11,
2014-03-12,
2014-03-13,
2014-03-14,
2014-03-17,
2014-03-18,
2014-03-19,
2014-03-20,
2014-03-21,
2014-03-24,
2014-03-25,
2014-03-26,
2014-03-27,-inf
2014-03-28,-4.094736842105262
2014-03-31,inf
2014-04-01,0.0
2014-04-02,0.0
2014-04-03,0.24421593830334204
2014-04-04,1.0
2014-04-08,-inf
2014-04-09,
2014-04-10,
2014-04-11,
2014-04-14,
2014-04-15,
2014-04-16,
2014-04-17,
2014-04-18,
2014-04-21,
2014-04-22,
2014-04-23,
2014-04-24,
2014-04-25,
2014-04-28,
2014-04-29,
2014-04-30,
2014-05-05,
2014-05-06,
2014-05-07,
2014-05-08,
2014-05-09,
2014-05-12,
2014-05-13,
2014-05-14,
2014-05-15,
2014-05-16,
2014-05-19,
2014-05-20,
2014-05-21,
2014-05-22,
2014-05-23,
2014-05-26,
2014-05-27,
2014-05-28,
2014-05-29,
2014-05-30,
2014-06-03,
2014-06-04,
2014-06-05,
2014-06-06,
2014-06-09,
2014-06-10,
2014-06-11,
2014-06-12,
2014-06-13,
2014-06-16,
2014-06-17,
2014-06-18,
2014-06-19,
2014-06-20,
2014-06-23,
2014-06-24,
2014-06-25,
2014-06-26,
2014-06-27,
2014-06-30,
2014-07-01,
2014-07-02,
2014-07-03,
2014-07-04,
2014-07-07,
2014-07-08,
2014-07-09,
2014-07-10,
2014-07-11,
2014-07-14,
2014-07-15,
2014-07-16,
2014-07-17,
2014-07-18,
2014-07-21,
2014-07-22,
2014-07-23,
2014-07-24,
2014-07-25,
2014-07-28,
2014-07-29,
2014-07-30,
2014-07-31,
2014-08-01,
2014-08-04,
2014-08-05,
2014-08-06,
2014-08-07,
2014-08-08,
2014-08-11,
2014-08-12,
2014-08-13,
2014-08-14,
2014-08-15,
2014-08-18,
2014-08-19,
2014-08-20,
2014-08-21,
2014-08-22,
2014-08-25,
2014-08-26,
2014-08-27,
2014-08-28,
2014-08-29,
2014-09-01,
2014-09-02,
2014-09-03,
2014-09-04,
2014-09-05,-inf
2014-09-09,-1.343309065137562
2014-09-10,-0.4367900738657932
2014-09-11,-0.6418868980963025
2014-09-12,-0.18493866018097915
2014-09-15,0.21974148061104526
2014-09-16,1.135417409282102
2014-09-17,0.19658119658119724
2014-09-18,-0.42090545255524503
2014-09-19,-0.09561804053512628
2014-09-22,0.0
2014-09-23,-1.840236686390535
2014-09-24,
2014-09-25,
2014-09-26,
2014-09-29,
2014-09-30,
2014-10-08,
2014-10-09,
2014-10-10,
2014-10-13,
2014-10-14,
2014-10-15,-inf
2014-10-16,10.575388649559814
2014-10-17,0.0
2014-10-20,0.0
2014-10-21,-0.14564796905222469
2014-10-22,1.4465676567656751
2014-10-23,-11.241242450388238
2014-10-24,1.5145631067961192
2014-10-27,0.0
2014-10-28,0.08181818181818201
2014-10-29,-0.9075843877824059
2014-10-30,0.6622950819672137
2014-10-31,-2.5145631067961194
2014-11-03,
2014-11-04,
2014-11-05,
2014-11-06,
2014-11-07,inf
2014-11-10,
2014-11-11,
2014-11-12,
2014-11-13,
2014-11-14,-inf
2014-11-17,-1.2784188034188049
2014-11-18,-0.7810483655948381
2014-11-19,-1.041050037797293
2014-11-20,-0.1774851276146627
2014-11-21,0.13221905150156557
2014-11-24,-0.9138888888888885
2014-11-25,inf
2014-11-26,0.5840517241379325
2014-11-27,0.14507772020725515
2014-11-28,0.06060606060605798
2014-12-01,1.0169491525423817
2014-12-02,-inf
2014-12-03,0.0
2014-12-04,0.0
2014-12-05,305.32306763269014
2014-12-08,-0.017069403847897808
2014-12-09,0.9833333333333248
2014-12-10,0.0
2014-12-11,0.0
2014-12-12,-306.3199229786021
2014-12-15,-0.9998797486944838
2014-12-16,
2014-12-17,
2014-12-18,inf
2014-12-19,1.4032480399758764
2014-12-22,1.7175324675324688
2014-12-23,
2014-12-24,
2014-12-25,-inf
2014-12-26,-0.692566327504441
2014-12-29,-1.7130279630279608
2014-12-30,28.99810964080797
2014-12-31,0.0
2015-01-05,0.41320754716981023
2015-01-06,0.28617363344051355
2015-01-07,0.9954954954954919
2015-01-08,-29.999999999976215
2015-01-09,
2015-01-12,
2015-01-13,
2015-01-14,
2015-01-15,inf
2015-01-16,
2015-01-19,
2015-01-20,
2015-01-21,
2015-01-22,-inf
2015-01-23,0.38383838383838464
2015-01-26,-1.718369309347937
2015-01-27,0.0
2015-01-28,-0.6150106823160362
2015-01-29,-0.7246844069294176
2015-01-30,-1.3690235690235701
2015-02-02,58.00130344108601
2015-02-03,0.0
2015-02-04,0.22423398328690844
2015-02-05,0.5152603231597839
2015-02-06,0.9851851851851855
2015-02-09,-58.75000000000155
2015-02-10,
2015-02-11,
2015-02-12,
2015-02-13,inf
2015-02-16,1.0
2015-02-17,
2015-02-25,
2015-02-26,
2015-02-27,-inf
2015-03-02,0.3601398601398589
2015-03-03,0.4935732647814893
2015-03-04,-0.48330859985571695
2015-03-05,-0.3469386662904512
2015-03-06,0.3477553027285064
2015-03-09,-0.33691105642325025
2015-03-10,-0.4243337642139522
2015-03-11,-0.08437754658305593
2015-03-12,-0.0452601688066803
2015-03-13,-0.29911294732365185
2015-03-16,0.14580064012199506
2015-03-17,-0.023530545343655396
2015-03-18,-0.2942569096821718
2015-03-19,-0.19165843584448164
2015-03-20,0.22563966325434204
2015-03-23,-0.31860724842243904
2015-03-24,-0.3237231396210455
2015-03-25,0.15517649306242787
2015-03-26,0.21928948494792172
2015-03-27,-0.002530127530128018
2015-03-30,0.07128598963721684
2015-03-31,0.2799446863276665
2015-04-01,0.10865689269450984
2015-04-02,-0.20407892555131613
2015-04-03,-0.14875607931163304
2015-04-07,0.3052581070814487
2015-04-08,-0.10998910998911048
2015-04-09,-0.15560646164437236
2015-04-10,0.10634679623443567
2015-04-13,0.06605550376208769
2015-04-14,-0.6092506744192113
2015-04-15,0.1307001174925657
2015-04-16,0.06779211529280996
2015-04-17,0.014218129593645913
2015-04-20,0.07113682483485056
2015-04-21,0.3428578589868913
2015-04-22,-0.13458180794141658
2015-04-23,-0.11180191633848299
2015-04-24,-0.17015364498201221
2015-04-27,-0.22242083195409607
2015-04-28,0.6098490585087432
2015-04-29,0.34960845994243256
2015-04-30,0.4164839848982992
2015-05-04,0.4189834660134634
2015-05-05,0.2804503717816388
2015-05-06,-0.6152290525228619
2015-05-07,-0.18862764970789353
2015-05-08,-0.3431424531636561
2015-05-11,-0.11791525012141599
2015-05-12,0.28684581642629176
2015-05-13,0.1569816199107879
2015-05-14,-0.09332095453150979
2015-05-15,0.10710361929873886
2015-05-18,-0.20191007437457764
2015-05-19,-0.6414141542046017
2015-05-20,-0.2557828083785134
2015-05-21,0.044280442804430595
2015-05-22,0.023426581708792006
2015-05-25,0.13951680672269065
2015-05-26,0.35640986150765863
2015-05-27,-0.009125413191727438
2015-05-28,-0.12144212523719301
2015-05-29,-0.39111423233380666
2015-06-01,-0.18400608014257003
2015-06-02,-0.5107216299352253
2015-06-03,0.1583197111498321
2015-06-04,0.2436643474594126
2015-06-05,0.5650193529072114
2015-06-08,-0.35694630080981493
2015-06-09,0.2692324989112098
2015-06-10,0.1509351469516605
2015-06-11,-0.28763575605680736
2015-06-12,-0.6979752029256991
2015-06-15,0.47619047619047883
2015-06-16,2.669771485345308
2015-06-17,-0.0685587761674655
2015-06-18,0.7100943848984158
2015-06-19,0.45045045045045307
2015-06-23,0.41322314049586845
2015-06-24,-2.6540440354073307
2015-06-25,0.17357549857549584
2015-06-26,-0.5168062866038987
2015-06-29,0.0
2015-06-30,-0.6674604286314622
2015-07-01,-0.007394116604641288
2015-07-02,-0.6672232160604246
2015-07-03,0.024299348583546668
2015-07-06,0.0
2015-07-07,1.1509315030116252
2015-07-08,-0.06690928896811421
2015-07-09,1.0678831459428764
2015-07-10,-0.12314165497896068
2015-07-13,0.16666666666666644
2015-07-14,-1.0410394529712699
2015-07-15,0.1873638344226586
2015-07-16,-0.9352418696817838
2015-07-17,-0.11324278438030713
2015-07-20,-0.19599217986314638
2015-07-21,0.08392227737016562
2015-07-22,0.4662379421221861
2015-07-23,0.18751716247139727
2015-07-24,0.25615297235895634
2015-07-27,0.009191285008559105
2015-07-28,0.028459490405436695
2015-07-29,-0.7091624704240733
2015-07-30,0.10733316937202836
2015-07-31,-0.21523512896999492
2015-08-03,0.04860397907760082
2015-08-04,0.05272471599437621
2015-08-05,0.29716181643748096
2015-08-06,0.1968426641023315
2015-08-07,0.2330024454598113
2015-08-10,0.11923000697956901
2015-08-11,-0.033419473522841206
2015-08-12,0.0696943357960298
2015-08-13,-0.45819324392062777
2015-08-14,-0.04970976253298259
2015-08-17,-0.3303920655615563
2015-08-18,0.17148175725986586
2015-08-19,-0.10108898433771493
2015-08-20,0.3983526592382227
2015-08-21,-0.0849678800856529
2015-08-24,0.25444118661607396
2015-08-25,-0.06258921978833451
2015-08-26,-0.024751036540473337
2015-08-27,-0.28117986990496713
2015-08-28,-0.057428634075566753
2015-08-31,0.10543558709565103
2015-09-01,-0.375734393592854
2015-09-02,0.09121513735881233
2015-09-07,0.47404968981705886
2015-09-08,0.2984736238254606
2015-09-09,-0.3480592522263379
2015-09-10,0.32702860107968934
2015-09-11,-0.3760581015737726
2015-09-14,-0.5857754450265331
2015-09-15,-0.2990671428868317
2015-09-16,0.01531923065136398
2015-09-17,-0.38524781535588054
2015-09-18,0.27350632804894326
2015-09-21,-0.014225455539045556
2015-09-22,0.23691860465116454
2015-09-23,0.5335083114610675
2015-09-24,1.326290726817044
2015-09-25,0.3839346882849953
2015-09-28,0.22945422312270344
2015-09-29,-0.32196275946276176
2015-09-30,-0.5832159138002475
2015-10-08,-1.3064522232734177
2015-10-09,-0.996903247405424
2015-10-12,0.018867924528302094
2015-10-13,0.18803418803418848
2015-10-14,0.2052631578947363
2015-10-15,-0.2678334910122866
2015-10-16,0.6262135922330105
2015-10-19,1.2758620689654845
2015-10-20,0.0
2015-10-21,0.0
2015-10-22,0.14632034632032914
2015-10-23,0.0
2015-10-26,-2.2758620689654845
2015-10-27,
2015-10-28,
2015-10-29,
2015-10-30,
2015-11-02,
2015-11-03,
2015-11-04,
2015-11-05,
2015-11-06,
2015-11-09,
2015-11-10,
2015-11-11,
2015-11-12,
2015-11-13,
2015-11-16,
2015-11-17,
2015-11-18,
2015-11-19,
2015-11-20,
2015-11-23,
2015-11-24,
2015-11-25,
2015-11-26,
2015-11-27,-inf
2015-11-30,
2015-12-01,
2015-12-02,
2015-12-03,
2015-12-04,
2015-12-07,
2015-12-08,
2015-12-09,
2015-12-10,
2015-12-11,
2015-12-14,
2015-12-15,
2015-12-16,
2015-12-17,
2015-12-18,
2015-12-21,
2015-12-22,
2015-12-23,
2015-12-24,
2015-12-25,
2015-12-28,
2015-12-29,
2015-12-30,
2015-12-31,
2016-01-04,
2016-01-05,
2016-01-06,
2016-01-07,
2016-01-08,
2016-01-11,-inf
2016-01-12,-13.071559633027592
2016-01-13,-1.179622310057091
2016-01-14,-0.6269261192849239
2016-01-15,0.0
2016-01-18,-0.3325285592497845
2016-01-19,-0.12442026646996349
2016-01-20,0.8039278656126483
2016-01-21,-0.03871336359986424
2016-01-22,0.0
2016-01-25,-0.1362798001427573
2016-01-26,0.6427391587567464
2016-01-27,-0.6119500000000013
2016-01-28,0.08477128276192947
2016-01-29,0.10708401976935736
2016-02-01,-0.03814877128581588
2016-02-02,-0.6464236887894621
2016-02-03,-0.28174758909853126
2016-02-04,-0.3504538939321555
2016-02-05,-0.19119616930206648
2016-02-15,0.3886054421768731
2016-02-16,-0.09633557046979482
2016-02-17,0.32494758909853255
2016-02-18,0.33540372670807517
2016-02-19,-0.18293330501274646
2016-02-22,-1.2755102040816344
2016-02-23,
2016-02-24,
2016-02-25,
2016-02-26,
2016-02-29,inf
2016-03-01,
2016-03-02,
2016-03-03,
2016-03-04,
2016-03-07,-inf
2016-03-08,-125.00000000001583
2016-03-09,
2016-03-10,
2016-03-11,
2016-03-14,
2016-03-15,
2016-03-16,
2016-03-17,
2016-03-18,
2016-03-21,
2016-03-22,
2016-03-23,
2016-03-24,
2016-03-25,
2016-03-28,
2016-03-29,
2016-03-30,
2016-03-31,
2016-04-01,
2016-04-05,
2016-04-06,
2016-04-07,
2016-04-08,-inf
2016-04-11,-1.547293309726919
2016-04-12,-1.3207547169811293
2016-04-13,inf
2016-04-14,0.0042372881355915255
2016-04-15,0.7099608197709495
2016-04-18,1.3595276796891063
2016-04-19,1.0072727272727275
2016-04-20,-inf
2016-04-21,0.12556161497226934
2016-04-22,-0.401581254352549
2016-04-25,-0.7607096251631174
2016-04-26,-0.01433986508191511
2016-04-27,-0.39483793054716915
2016-04-28,-0.3460151193240758
2016-04-29,-0.01871070937023403
2016-05-03,-0.996478873239437
2016-05-04,
2016-05-05,inf
2016-05-06,0.21621621621621492
2016-05-09,0.0996168582375485
2016-05-10,1.0
2016-05-11,
2016-05-12,-inf
2016-05-13,
2016-05-16,
2016-05-17,
2016-05-18,inf
2016-05-19,1.0
2016-05-20,
2016-05-23,
2016-05-24,
2016-05-25,-inf
2016-05-26,0.1556195965417844
2016-05-27,0.2618453865336679
2016-05-30,0.09090909090909058
2016-05-31,-50.18115942028575
2016-06-01,-2.948420961304884
2016-06-02,0.3614535741899274
2016-06-03,-0.596250531228203
2016-06-06,-0.13921826965304968
2016-06-07,0.18115942028985454
2016-06-08,0.5464601769911512
2016-06-13,-1.3292559118484615
2016-06-14,0.30737811766750633
2016-06-15,-0.9516908212560409
2016-06-16,
2016-06-17,
2016-06-20,inf
2016-06-21,0.027027027027028805
2016-06-22,1.0
2016-06-23,
2016-06-24,
2016-06-27,-inf
2016-06-28,inf
2016-06-29,0.0
2016-06-30,0.0
2016-07-01,1.5769230769230445
2016-07-04,1.9253731343283393
2016-07-05,-inf
2016-07-06,0.0
2016-07-07,0.0
2016-07-08,-1.9243807040416914
2016-07-11,-1.7305679395231448
2016-07-12,7.618604651162906
2016-07-13,0.0
2016-07-14,0.0
2016-07-15,0.34745762711864703
2016-07-18,1.5864448051947997
2016-07-19,-8.094736842105375
2016-07-20,0.0
2016-07-21,1.8700000000000023
2016-07-22,0.0
2016-07-25,-1.1296820557491227
2016-07-26,0.5614035087719317
2016-07-27,0.0
2016-07-28,-2.8700000000000023
2016-07-29,inf
2016-08-01,0.34843205574912867
2016-08-02,0.0
2016-08-03,0.0
2016-08-04,1.0
2016-08-05,-inf
2016-08-08,
2016-08-09,
2016-08-10,
2016-08-11,
2016-08-12,
2016-08-15,
2016-08-16,
2016-08-17,
2016-08-18,
2016-08-19,
2016-08-22,
2016-08-23,
2016-08-24,
2016-08-25,-inf
2016-08-26,
2016-08-29,
2016-08-30,
2016-08-31,
2016-09-01,
2016-09-02,
2016-09-05,
2016-09-06,
2016-09-07,
2016-09-08,
2016-09-09,
2016-09-12,
2016-09-13,
2016-09-14,-inf
2016-09-19,-1.862100364224998
2016-09-20,-0.6315433095473737
2016-09-21,-1.0298746055472543
2016-09-22,-0.9704338214976501
2016-09-23,2.50358598207009
2016-09-26,0.2549575070821525
2016-09-27,-0.14493844821744437
2016-09-28,1.5630644855681237
2016-09-29,0.7272727272727275
2016-09-30,-2.8529680365296786
2016-10-10,0.0
2016-10-11,0.29702970297029707
2016-10-12,-2.0563380281690185
2016-10-13,
2016-10-14,
2016-10-17,
2016-10-18,
2016-10-19,
2016-10-20,
2016-10-21,
2016-10-24,
2016-10-25,
2016-10-26,
2016-10-27,
2016-10-28,
2016-10-31,
2016-11-01,
2016-11-02,
2016-11-03,
2016-11-04,
2016-11-07,
2016-11-08,
2016-11-09,
2016-11-10,
2016-11-11,
2016-11-14,
2016-11-15,
2016-11-16,-inf
2016-11-17,-1.3029271838245045
2016-11-18,-1.273722627737226
2016-11-21,
2016-11-22,
2016-11-23,
2016-11-24,
2016-11-25,
2016-11-28,
2016-11-29,
2016-11-30,
2016-12-01,
2016-12-02,
2016-12-05,-inf
2016-12-06,-1.1241236135002146
2016-12-07,-0.4133884080776365
2016-12-08,-0.3328912466843512
2016-12-09,-0.31574372466904066
2016-12-12,-0.21914750105950653
2016-12-13,0.2843129066087521
2016-12-14,0.12373191465405728
2016-12-15,-0.008446053216485387
2016-12-16,0.031522512184616484
2016-12-19,0.09681595715812932
2016-12-20,-0.5142026710349665
2016-12-21,-0.3139565874356694
2016-12-22,-0.17781883503796342
2016-12-23,-0.050394668967528866
2016-12-26,-0.1631375265162819
2016-12-27,0.18479444756859165
2016-12-28,0.22970352059575486
2016-12-29,0.12067593229914982
2016-12-30,-0.17467773162998163
2017-01-03,0.2224819322425494
2017-01-04,0.1530723665429644
2017-01-05,0.03864223092951458
2017-01-06,0.09610166012952644
2017-01-09,0.27002259603314327
2017-01-10,-0.09906681597610897
2017-01-11,-0.05411729994909262
2017-01-12,-0.06471630137481713
2017-01-13,-0.21687736498107824
2017-01-16,-0.12580923608114028
2017-01-17,0.15352004169215636
2017-01-18,-0.11781761996970005
2017-01-19,-0.23419857876036373
2017-01-20,0.24224720191106697
2017-01-23,0.18000880535608413
2017-01-24,-0.2418749049140417
2017-01-25,-0.14939605848696821
2017-01-26,0.38261067313523633
2017-02-03,-0.18830843342121434
2017-02-06,-0.3813533315432102
2017-02-07,-0.12850274725274474
2017-02-08,0.15183547953104087
2017-02-09,-0.49233090269047086
2017-02-10,-0.16419620479771352
2017-02-13,1.4111305962450975
2017-02-14,0.4194276987380384
2017-02-15,0.5201958384332925
2017-02-16,0.5456445993031355
2017-02-17,0.3640840056953077
2017-02-20,-1.365795015795014
2017-02-21,-0.27510414948028167
2017-02-22,-0.6621940848530636
2017-02-23,-0.2683944374209877
2017-02-24,-0.34268835065909764
2017-02-27,0.572407414543914
2017-02-28,0.2864959580323345
2017-03-01,0.10698813519631079
2017-03-02,-0.24222827320172452
2017-03-03,0.7509748316199967
2017-03-06,-0.49331276818308145
2017-03-07,-0.20675516583444703
2017-03-08,0.2021038597125575
2017-03-09,0.36739451025165265
2017-03-10,-0.6881562881562888
2017-03-13,0.5508468988556635
2017-03-14,-0.23689221181579806
2017-03-15,-0.25290726235905636
2017-03-16,-0.04394889268838588
2017-03-17,-0.004588205843436666
2017-03-20,-0.9834617092629734
2017-03-21,1.0226421939675718
2017-03-22,-0.012836148545647769
2017-03-23,-0.14705471287047372
2017-03-24,0.26653778931200955
2017-03-27,0.43364157520237057
2017-03-28,-0.7111246139045013
2017-03-29,0.6142970927917198
2017-03-30,0.002018920775855776
2017-03-31,-0.2512658227848166
2017-04-05,0.11188584629254003
2017-04-06,-0.639772971010898
2017-04-07,-1.4691358024691366
2017-04-10,
2017-04-11,
2017-04-12,inf
2017-04-13,0.5692883895131069
2017-04-14,1.0
2017-04-17,
2017-04-18,
2017-04-19,-inf
2017-04-20,
2017-04-21,
2017-04-24,
2017-04-25,
2017-04-26,
2017-04-27,
2017-04-28,
2017-05-02,
2017-05-03,
2017-05-04,
2017-05-05,
2017-05-08,
2017-05-09,-inf
2017-05-10,-1.2692307692307674
2017-05-11,
2017-05-12,inf
2017-05-15,1.0466321243523335
2017-05-16,1.0081319524357533
2017-05-17,1.0
2017-05-18,
2017-05-19,-inf
2017-05-22,-1.6108779344082003
2017-05-23,-0.7779454722492783
2017-05-24,0.0
2017-05-25,-1.1431535269709516
2017-05-26,
2017-05-31,
2017-06-01,
2017-06-02,
2017-06-05,
2017-06-06,
2017-06-07,
2017-06-08,
2017-06-09,
2017-06-12,
2017-06-13,
2017-06-14,
2017-06-15,
2017-06-16,
2017-06-19,
2017-06-20,
2017-06-21,
2017-06-22,
2017-06-23,
2017-06-26,
2017-06-27,
2017-06-28,
2017-06-29,
2017-06-30,
2017-07-03,
2017-07-04,
2017-07-05,
2017-07-06,
2017-07-07,
2017-07-10,
2017-07-11,
2017-07-12,
2017-07-13,
2017-07-14,
2017-07-17,
2017-07-18,
2017-07-19,
2017-07-20,
2017-07-21,
2017-07-24,
2017-07-25,
2017-07-26,
2017-07-27,
2017-07-28,
2017-07-31,
2017-08-01,
2017-08-02,
2017-08-03,
2017-08-04,
2017-08-07,
2017-08-08,
2017-08-09,
2017-08-10,
2017-08-11,
2017-08-14,
2017-08-15,-inf
2017-08-16,
2017-08-17,
2017-08-18,
2017-08-21,
2017-08-22,
2017-08-23,
2017-08-24,
2017-08-25,
2017-08-28,
2017-08-29,
2017-08-30,
2017-08-31,
2017-09-01,
2017-09-04,
2017-09-05,
2017-09-06,
2017-09-07,
2017-09-08,
2017-09-11,
2017-09-12,
2017-09-13,
2017-09-14,
2017-09-15,
2017-09-18,
2017-09-19,
2017-09-20,
2017-09-21,
2017-09-22,
2017-09-25,
2017-09-26,
2017-09-27,
2017-09-28,
2017-09-29,
2017-10-09,
2017-10-10,
2017-10-11,
2017-10-12,
2017-10-13,
2017-10-16,
2017-10-17,
2017-10-18,
2017-10-19,
2017-10-20,
2017-10-23,
2017-10-24,
2017-10-25,
2017-10-26,
2017-10-27,
2017-10-30,
2017-10-31,
2017-11-01,
2017-11-02,
2017-11-03,
2017-11-06,
2017-11-07,
2017-11-08,
2017-11-09,
2017-11-10,
2017-11-13,
2017-11-14,
2017-11-15,
2017-11-16,
2017-11-17,
2017-11-20,
2017-11-21,
2017-11-22,
2017-11-23,
2017-11-24,
2017-11-27,
2017-11-28,
2017-11-29,
2017-11-30,
2017-12-01,
2017-12-04,
2017-12-05,
2017-12-06,
2017-12-07,
2017-12-08,
2017-12-11,
2017-12-12,
2017-12-13,
2017-12-14,
2017-12-15,
2017-12-18,
2017-12-19,
2017-12-20,
2017-12-21,
2017-12-22,
2017-12-25,
2017-12-26,
2017-12-27,
2017-12-28,
2017-12-29,
2018-01-02,
2018-01-03,
2018-01-04,
2018-01-05,
2018-01-08,
2018-01-09,
2018-01-10,
2018-01-11,
2018-01-12,
2018-01-15,
2018-01-16,
2018-01-17,
2018-01-18,
2018-01-19,
2018-01-22,
2018-01-23,
2018-01-24,
2018-01-25,
2018-01-26,
2018-01-29,
2018-01-30,
2018-01-31,
2018-02-01,
2018-02-02,
2018-02-05,
2018-02-06,
2018-02-07,
2018-02-08,
2018-02-09,
2018-02-12,
2018-02-13,
2018-02-14,
2018-02-22,
2018-02-23,
2018-02-26,
2018-02-27,
2018-02-28,
2018-03-01,
2018-03-02,
2018-03-05,
2018-03-06,
2018-03-07,
2018-03-08,
2018-03-09,
2018-03-12,
2018-03-13,
2018-03-14,
2018-03-15,
2018-03-16,
2018-03-19,
2018-03-20,
2018-03-21,
2018-03-22,
2018-03-23,
2018-03-26,
2018-03-27,
2018-03-28,
2018-03-29,
2018-03-30,
2018-04-02,
2018-04-03,
2018-04-04,
2018-04-09,
2018-04-10,
2018-04-11,
2018-04-12,
2018-04-13,
2018-04-16,
2018-04-17,
2018-04-18,
2018-04-19,
2018-04-20,
2018-04-23,
2018-04-24,
2018-04-25,
2018-04-26,
2018-04-27,
2018-05-02,
2018-05-03,
2018-05-04,
2018-05-07,
2018-05-08,
2018-05-09,
2018-05-10,
2018-05-11,
2018-05-14,
2018-05-15,
2018-05-16,
2018-05-17,
2018-05-18,
2018-05-21,
2018-05-22,
2018-05-23,
2018-05-24,
2018-05-25,
2018-05-28,
2018-05-29,
2018-05-30,
2018-05-31,
2018-06-01,
2018-06-04,
2018-06-05,
2018-06-06,
2018-06-07,
2018-06-08,
2018-06-11,
2018-06-12,
2018-06-13,
2018-06-14,
2018-06-15,
2018-06-19,
2018-06-20,
2018-06-21,
2018-06-22,
2018-06-25,
2018-06-26,
2018-06-27,
2018-06-28,
2018-07-16,
2018-07-17,
2018-07-18,
2018-07-19,
2018-07-20,
2018-07-23,-inf
2018-07-24,-0.9346405228758244
2018-07-25,-0.052392344497604465
2018-07-26,-0.5150689501779335
2018-07-27,-0.39959471463469143
2018-07-30,0.12865822784810166
2018-07-31,0.05929864253393369
2018-08-01,-0.42886048227760887
2018-08-02,0.15937500000000016
2018-08-03,0.33912907268170744
2018-08-06,-0.0027816846382247296
2018-08-07,0.12213936430318291
2018-08-08,0.2820712057931585
2018-08-09,-0.07816901408450887
2018-08-10,-0.23848343685300466
2018-08-13,-0.054844423295529646
2018-08-14,-0.29305864681439237
2018-08-15,-0.13454271919389266
2018-08-16,0.3444083303238229
2018-08-17,-0.012328251458685095
2018-08-20,0.17875472815821705
2018-08-21,0.16591928251121377
2018-08-22,-0.03754838709677841
2018-08-23,-0.5899700005660243
2018-08-24,0.030256977065489146
2018-08-27,-0.3004535147392322
2018-08-28,-0.029629629629631546
2018-08-29,0.16651908396946552
2018-08-30,0.3769335313017981
2018-08-31,-0.11383468967545876
2018-09-03,0.20740740740740946
2018-09-04,0.0830104125477785
2018-09-05,0.0963998349494537
2018-09-06,-0.18990804928722965
2018-09-07,0.22396896692527268
2018-09-10,0.00839220723613656
2018-09-11,-0.08643863415781686
2018-09-12,-0.10908985908985878
2018-09-13,0.12971595500031197
2018-09-14,-0.08978206968550147
2018-09-17,-0.13631243515636443
2018-09-18,0.0723836939362971
2018-09-19,-0.29766689766689375
2018-09-20,-0.06783344772363073
2018-09-21,-0.1251546391752543
2018-09-25,0.2648654375927051
2018-09-26,-0.05336093041592715
2018-09-27,0.3695104357025993
2018-09-28,0.0185333868593605
2018-10-08,0.30987341772151367
2018-10-09,0.1255055389484847
2018-10-10,0.09362692445399315
2018-10-11,0.1102933756702067
2018-10-12,0.09456936905889698
2018-10-15,-0.21924404709214418
2018-10-16,-0.4530473971426844
2018-10-17,-0.07789692148045627
2018-10-18,-0.4450116588141607
2018-10-19,-0.18594460440721303
2018-10-22,0.10231180584121724
2018-10-23,0.05117169725466662
2018-10-24,-0.04305744566786611
2018-10-25,0.30203045685279245
2018-10-26,0.12306870056829544
2018-10-29,-0.052670906200317884
2018-10-30,0.14945683745788155
2018-10-31,-0.013259318325868123
2018-11-01,-0.03009588268471143
2018-11-02,0.08894095730123264
2018-11-05,-0.08370310609116685
2018-11-06,-0.10854155123435505
2018-11-07,0.09056265212215936
2018-11-08,-0.14643990929705714
2018-11-09,-0.18071679576104283
2018-11-12,0.20561293060762664
2018-11-13,0.17602618571357675
2018-11-14,0.17556197954869168
2018-11-15,0.002512735568961366
2018-11-16,0.01173591982652538
2018-11-19,-0.2577667848042444
2018-11-20,-0.20310462520321676
2018-11-21,-0.23033647819654823
2018-11-22,0.04391003485908122
2018-11-23,0.1827940421091004
2018-11-26,0.17403374921447903
2018-11-27,0.14508832764784926
2018-11-28,-0.10806024412874699
2018-11-29,0.10921935627079551
2018-11-30,-0.2891240752883092
2018-12-03,0.07344742521550413
2018-12-04,-0.087783336736778
2018-12-05,0.0789636561695398
2018-12-06,-0.08724442436847718
2018-12-07,0.2648918917663028
2018-12-10,-0.23022084424510342
2018-12-11,0.043783672185300826
2018-12-12,-0.06165875787149076
2018-12-13,0.08607639500088093
2018-12-14,-0.09202133509292638
2018-12-17,-0.007555993108544101
2018-12-18,0.028495542801320092
2018-12-19,0.29598702598254223
2018-12-20,-0.26800587947084703
2018-12-21,-0.04077615298087835
2018-12-24,0.1248012718600986
2018-12-25,0.11706687142258598
2018-12-26,-0.33708291639350113
2018-12-27,0.5271043079241122
2018-12-28,-0.017406274919860614
2019-01-02,-0.02735773748432093
2019-01-03,-0.38946328799593455
2019-01-04,0.21129099211291197
2019-01-07,-0.5931643625191976
2019-01-08,0.05676717648548558
2019-01-09,-0.0019418042719711644
2019-01-10,0.3465406933492008
2019-01-11,-0.14810606060606094
2019-01-14,0.3050880626223064
2019-01-15,-0.01702545820192891
2019-01-16,-0.05869832453104948
2019-01-17,-0.31322740863376564
2019-01-18,0.4559210526315747
2019-01-21,-0.028714436248682442
2019-01-22,0.022259218152668847
2019-01-23,0.1371904024767803
2019-01-24,0.23492599989757673
2019-01-25,-0.4380589356399327
2019-01-28,0.03765545831414392
2019-01-29,-0.03838615995866106
2019-01-30,-0.0855027594561845
2019-01-31,0.012517634987815107
2019-02-01,0.05563228076746215
2019-02-11,0.1277728633641809
2019-02-12,0.025060971053184073
2019-02-13,0.03413771583107879
2019-02-14,0.031608537220198456
2019-02-15,0.02918998401963541
2019-02-18,-0.3534625097125125
2019-02-19,0.06443996473771922
2019-02-20,-0.011927134374821464
2019-02-21,-0.11108477923543619
2019-02-22,-0.17035679557184394
2019-02-25,0.3408150806109964
2019-02-26,-0.11658929005358622
2019-02-27,-0.03361508862675473
2019-02-28,-0.08413323249755827
2019-03-01,0.33699059561128814
2019-03-04,-0.3591911489870613
2019-03-05,-0.022803961266223763
2019-03-06,0.10022438294689157
2019-03-07,0.06606768493560916
2019-03-08,-0.11869525823014697
2019-03-11,0.2965544871794799
2019-03-12,0.14016083885013356
2019-03-13,-0.09781379570297563
2019-03-14,0.08509485094851144
2019-03-15,-0.14124792358803742
2019-03-18,-0.20259533898304682
2019-03-19,-0.02087666184019822
2019-03-20,-0.033138585249401886
2019-03-21,0.07327364412884087
2019-03-22,0.015624999999997322
2019-03-25,0.20231124807396106
2019-03-26,-0.09590929983147126
2019-03-27,0.050903119868635834
2019-03-28,-0.2211704274445043
2019-03-29,0.17288961038961453
2019-04-01,-0.19681020733652427
2019-04-02,0.07802648171500738
2019-04-03,0.024197013642712224
2019-04-04,0.09497643816128978
2019-04-08,-0.3312675121787196
2019-04-09,0.050722251879142005
2019-04-10,-0.0918925727811989
2019-04-11,-0.0296121810472339
2019-04-12,0.047035347702561944
2019-04-15,0.40191238454772515
2019-04-16,0.07714303176793086
2019-04-17,0.10866045402276103
2019-04-18,0.06101572283150419
2019-04-19,0.07100382171698032
2019-04-22,-0.053498250874554676
2019-04-23,-0.11212541984875826
2019-04-24,-0.1453370267774654
2019-04-25,0.07609705730511318
2019-04-26,-0.15234457323499218
2019-04-29,-0.23385807096452602
2019-04-30,0.033394225444084276
2019-05-06,0.273636035168013
2019-05-07,-0.16011396011395865
2019-05-08,-0.03626489422063307
2019-05-09,0.022450871338528508
2019-05-10,0.18647253294687674
2019-05-13,-0.2199253134169118
2019-05-14,0.18494700488269344
2019-05-15,0.1472660069945127
2019-05-16,0.16281833616298702
2019-05-17,-0.15032634833390598
2019-05-20,0.07046214768925821
2019-05-21,-0.31974767667620635
2019-05-22,-0.03272548212368801
2019-05-23,-0.025874742722727453
2019-05-24,0.05283690237432886
2019-05-27,0.0033279000271686406
2019-05-28,0.1742947112875532
2019-05-29,-0.11503362151776808
2019-05-30,-0.05307262569832832
2019-05-31,0.03783741613356483
2019-06-03,0.09998634998634756
2019-06-04,0.012793542205303467
2019-06-05,0.08762517882689529
2019-06-06,-0.021367521367516993
2019-06-10,-0.2694580015412311
2019-06-11,-0.37576412776412627
2019-06-12,0.09467853335187448
2019-06-13,0.16823211616778128
2019-06-14,0.037716295209483525
2019-06-17,0.1597749862439586
2019-06-18,0.3137534246575354
2019-06-19,-0.1279239366260058
2019-06-20,-0.24320458993359553
2019-06-21,-0.10085581609548519
2019-06-24,0.1445246442565455
2019-06-25,-0.13698630136986456
2019-06-26,0.0032455960749510557
2019-06-27,0.049722544439914876
2019-06-28,0.07839083430245362
2019-07-01,-0.015384615384619826
2019-07-02,0.18789954337899367
2019-07-03,0.0744507550741827
2019-07-04,0.039737426555341765
2019-07-05,-0.014621119237874085
2019-07-08,-0.1288687782805345
2019-07-09,-0.11426282051281615
2019-07-10,-0.06929381867639585
2019-07-11,0.1942957178096835
2019-07-12,0.07462954275780559
2019-07-15,0.009812834224595363
2019-07-16,-0.01418322061250264
2019-07-17,0.028130916881797467
2019-07-18,-0.39878759632408
2019-07-19,0.04392032027617613
2019-07-22,0.06803863893292318
2019-07-23,-0.012973100788869318
2019-07-24,-0.07183808312849653
2019-07-25,0.19643639638120386
2019-07-26,-0.2569637294789908
2019-07-29,-0.17970339373647767
2019-07-30,0.006766863736733096
2019-07-31,0.16685260593889645
2019-08-01,0.05506561309439874
2019-08-02,0.551126502275925
2019-08-05,0.19841641777472874
2019-08-06,0.020047467180893404
2019-08-07,-0.10532266087821565
2019-08-08,-0.1208915145005389
2019-08-09,-0.577720449030742
2019-08-12,-0.14965858363671344
2019-08-13,0.05811006410066956
2019-08-14,-0.09201423645868057
2019-08-15,0.12884835350069385
2019-08-16,0.059371514015139154
2019-08-19,0.07112590294112191
2019-08-20,-0.18004573680547198
2019-08-21,0.030020342923567388
2019-08-22,-0.11541297935103106
2019-08-23,0.1975198714329212
2019-08-26,0.0732553551950691
2019-08-27,0.2164255411726319
2019-08-28,0.10407790626902412
2019-08-29,0.020708582834328648
2019-08-30,-0.10172728481464392
2019-09-02,-0.15212962855180934
2019-09-03,-0.15497096812418787
2019-09-04,-0.1379057062847172
2019-09-05,-0.027041916167664135
2019-09-06,0.0011692750494703419
2019-09-09,0.077689923115789
2019-09-10,0.10189750485582133
2019-09-11,0.1042579075425729
2019-09-12,0.13816393442622915
2019-09-16,0.17978770455550608
2019-09-17,0.2592309651133197
2019-09-18,0.1830842391304342
2019-09-19,-0.02515923566878501
2019-09-20,-0.1458384526275133
2019-09-23,-0.26602219835302454
2019-09-24,-0.4241327300150841
2019-09-25,-0.4549575617283947
2019-09-26,-0.05550743099787673
2019-09-27,0.08986255238931914
2019-09-30,0.21068758081744376
2019-10-08,0.02960812772133639
2019-10-09,0.17137751786874386
2019-10-10,0.06865116279069321
2019-10-11,-0.001780626780629832
2019-10-14,-0.13540006670866012
2019-10-15,0.19102451066831405
2019-10-16,0.017017543859654455
2019-10-17,0.060163652024121494
2019-10-18,-0.1454508856682728
2019-10-21,0.11388815615932324
2019-10-22,-0.09706396961550318
2019-10-23,0.035215311004782326
2019-10-24,-0.060007122507123596
2019-10-25,0.16567505720823822
2019-10-28,-0.18262032085561464
2019-10-29,0.07627434535458319
2019-10-30,-0.059571746648353054
2019-10-31,-0.1212098087098098
2019-11-01,-0.17239205798928914
2019-11-04,0.15670995670995463
2019-11-05,-0.06307977736549836
2019-11-06,0.1784503953751117
2019-11-07,0.30917320073946786
2019-11-08,0.33188169116313404
2019-11-11,0.17738095238095403
2019-11-12,0.04947433518862729
2019-11-13,-0.037170882808467226
2019-11-14,-0.25488288557958505
2019-11-15,0.06933574152116886
2019-11-18,-0.3154392764857888
2019-11-19,-0.011324984539270833
2019-11-20,-0.09387222946545017
2019-11-21,0.17418076675947539
2019-11-22,-0.5010951965364407
2019-11-25,0.05070417714804
2019-11-26,-0.0091300940438886
2019-11-27,-0.10415811389361337
2019-11-28,-0.2176037304649586
2019-11-29,0.2186965326933422
2019-12-02,0.22634883374532053
2019-12-03,-0.014698296022629821
2019-12-04,0.18689743944473233
2019-12-05,0.03146069087364377
2019-12-06,-0.08996738070837719
2019-12-09,-0.2786137344075711
2019-12-10,-0.008285146176973623
2019-12-11,0.060906659570441044
2019-12-12,0.10620258813029891
2019-12-13,0.04810753448885879
2019-12-16,0.10013008130081306
2019-12-17,0.15143171806167297
2019-12-18,-0.2879871551598311
2019-12-19,0.09180310987540051
2019-12-20,0.16447456022251303
2019-12-23,-0.1267741490974268
2019-12-24,-0.20961538461538431
2019-12-25,0.23271889400921214
2019-12-26,-0.21020613373554692
2019-12-27,-0.11738115830871981
2019-12-30,0.25966970882225443
2019-12-31,0.3243157591472191
2020-01-02,-0.12278808804488159
2020-01-03,0.2423254652179333
2020-01-06,0.1968100828810973
2020-01-07,-0.095154081392613
2020-01-08,-0.024788093830080404
2020-01-09,0.2535255815982619
2020-01-10,-0.20109600045905626
2020-01-13,-0.2907245698840917
2020-01-14,-0.06659694823406662
2020-01-15,-0.3471874129768858
2020-01-16,-0.4216782601038983
2020-01-17,0.06327421171170965
2020-01-20,0.02312647782656968
2020-01-21,-0.03132940591951015
2020-01-22,0.0051075022173295015
2020-01-23,0.42481020836698136
2020-02-03,-0.12811927655677371
2020-02-04,0.24550850936187707
2020-02-05,0.07823280499175185
2020-02-06,0.07104518107820923
2020-02-07,-0.3728655808125987
2020-02-10,0.12937062937062851
2020-02-11,-0.4019422819847467
2020-02-12,-0.07125997768431973
2020-02-13,-0.01683892441096827
2020-02-14,0.19071571571571574
2020-02-17,0.012193688664276198
2020-02-18,0.23608783104257813
2020-02-19,0.03642395855510857
2020-02-20,0.0685945611634911
2020-02-21,-0.06262183235867487
2020-02-24,0.12357693340771503
2020-02-25,0.1370397337216535
2020-02-26,0.11518721827999827
2020-02-27,0.04163389297241088
2020-02-28,0.18618027103687346
2020-03-02,-0.06125636348462639
2020-03-03,-0.08575848764704258
2020-03-04,-0.21191037554127462
2020-03-05,-0.0773673313719071
2020-03-06,-0.18326011163052439
2020-03-09,-0.41106794879959224
2020-03-10,-0.0565026328749446
2020-03-11,0.39671974859645
2020-03-12,0.24741732379729792
2020-03-13,0.1552403934910459
2020-03-16,0.4863733964653417
2020-03-17,-0.12376662376662634
2020-03-18,-0.3633909844238914
2020-03-19,-0.22614060258249605
2020-03-20,-0.22660053775161657
2020-03-23,-0.14510667734653726
2020-03-24,0.11058077199809468
2020-03-25,-0.038765540205781795
2020-03-26,-0.10210987266718957
2020-03-27,0.00649042965701227
2020-03-30,-0.15854963423623047
2020-03-31,0.18082290945657598
2020-04-01,0.1086155951748396
2020-04-02,0.40039468154023306
2020-04-03,0.2119495551972089
2020-04-07,0.13435608584913364
2020-04-08,-0.27746930022171035
2020-04-09,-0.029459922351620812
2020-04-10,-0.5274176827310331
2020-04-13,-0.1213958810068647
2020-04-14,-0.04761904761904695
2020-04-15,0.09804958075100148
2020-04-16,0.30965454712156604
2020-04-17,0.25399869934226144
2020-04-20,-0.09123253688471028
2020-04-21,0.21484312788660448
2020-04-22,0.03536477848798784
2020-04-23,-0.22799227799227895
2020-04-24,0.028349238319027453
2020-04-27,0.24020951898189663
2020-04-28,-0.16947127127879358
2020-04-29,-0.05854565166886089
2020-04-30,-0.22592592592592536
2020-05-06,0.002125319541049185
2020-05-07,-0.2600586363919898
2020-05-08,-0.03787626577888703
2020-05-11,0.010949856609020238
2020-05-12,0.1955337690631819
2020-05-13,-0.062157879573609416
2020-05-14,0.07260911424903685
2020-05-15,0.04012345679012308
2020-05-18,0.11642319117925354
2020-05-19,0.04642989271179995
2020-05-20,-0.06580440208758766
2020-05-21,0.033108339029391934
2020-05-22,0.07260726072607311
2020-05-25,-0.18342294383816976
2020-05-26,-0.15999746739267945
2020-05-27,0.09514913143231604
2020-05-28,-0.005906455168447917
2020-05-29,-0.30279593997135584
2020-06-01,0.17621417797888472
2020-06-02,0.049116682216268866
2020-06-03,0.2028690662493486
2020-06-04,0.09217913190804947
2020-06-05,0.2374614065180097
2020-06-08,-0.15450909605719693
2020-06-09,0.0909968954812011
2020-06-10,-0.3573080640706988
2020-06-11,-0.07003891050583547
2020-06-12,0.2264935064935064
2020-06-15,0.12452973589207791
2020-06-16,0.00335110434120333
2020-06-17,0.16016925638179824
2020-06-18,-0.05607476635514035
2020-06-19,-0.3327761347563319
2020-06-22,-0.1327549643339116
2020-06-23,-0.1361191237233968
2020-06-24,-0.08702016916070288
2020-06-29,0.1775700934579454
2020-06-30,0.003176567656764148
2020-07-01,-0.013352239158691492
2020-07-02,0.10671467574091059
2020-07-03,0.018472906403942148
2020-07-06,-0.14243773547976746
2020-07-07,0.1813948306595381
2020-07-08,0.12728428412521886
2020-07-09,-0.09085521949369559
2020-07-10,0.35860568627941
2020-07-13,0.0326611583769614
2020-07-14,-0.012202423967129714
2020-07-15,0.013218981465073477
2020-07-16,0.12517648568861567
2020-07-17,-0.35110528901260624
2020-07-20,-0.025324192176870153
2020-07-21,-0.1595659699107996
2020-07-22,-0.12547848513641874
2020-07-23,-0.08276184967914406
2020-07-24,0.043279569892473016
2020-07-27,-0.09143657462985112
2020-07-28,0.05334304678646935
2020-07-29,0.048507052573731294
2020-07-30,0.03824107107067123
2020-07-31,-0.02598039215686346
2020-08-03,0.16595572239047726
2020-08-04,-0.05804524114383543
2020-08-05,0.03520694941236775
2020-08-06,0.07818191145539313
2020-08-07,-0.01636976557184345
2020-08-10,-0.0871891027607893
2020-08-11,0.12004674315860592
2020-08-12,0.14019874646943029
2020-08-13,-0.20049701495885908
2020-08-14,0.0506834910620399
2020-08-17,-0.03329907090807332
2020-08-18,0.025160990284422334
2020-08-19,-0.37916418581887845
2020-08-20,0.34445831229948126
2020-08-21,0.09865470852017949
2020-08-24,0.3207989578810266
2020-08-25,0.029843752288069965
2020-08-26,0.28287745820254967
2020-08-27,-0.3306357481908003
2020-08-28,-0.18927970852018006
2020-08-31,-0.42960936952100465
2020-09-01,-0.17505148573109763
2020-09-02,-0.07788331071913165
2020-09-03,0.19581377151799723
2020-09-04,0.08640559071730082
2020-09-07,0.29550352379288103
2020-09-08,0.004442925495557595
2020-09-09,0.22394313505424626
2020-09-10,-0.2030242700037935
2020-09-11,-0.03394852964859913
2020-09-14,-0.24219800914716016
2020-09-15,0.14476212953909198
2020-09-16,-0.3583036897537846
2020-09-17,0.25580204778157123
2020-09-18,0.1816461998008654
2020-09-21,0.09606795823525885
2020-09-22,0.30992109013800884
2020-09-23,0.1355452057425463
2020-09-24,-0.23357348703170072
2020-09-25,-0.22523926715887477
2020-09-28,0.029285379446845082
2020-09-29,-0.7004204440940753
2020-09-30,0.032225593534750144
2020-10-09,0.21857348703169915
2020-10-12,0.0509240018840226
2020-10-13,-0.037546699875466355
2020-10-14,0.3181846982417221
2020-10-15,0.07955830346188003
2020-10-16,-0.031103896103896633
2020-10-19,0.03868014166018636
2020-10-20,0.085638486027592
2020-10-21,0.014018691588785832
2020-10-22,-0.15728672985782077
2020-10-23,-0.19409218232747466
2020-10-26,0.26370858688303156
2020-10-27,-0.15667084350062818
2020-10-28,0.10150375939849604
2020-10-29,0.028370307167237208
2020-10-30,0.24920667913808564
2020-11-02,-0.26850294365012695
2020-11-03,0.21380660450260253
2020-11-04,-0.1696236504066701
2020-11-05,-0.0038820030736696903
2020-11-06,-0.24107747000762497
2020-11-09,-0.06596268777257411
2020-11-10,-0.044830141664966225
2020-11-11,0.04501758077715149
2020-11-12,0.07855223644697279
2020-11-13,0.010638297872340913
2020-11-16,-0.07694623257537019
2020-11-17,-0.29831365451463576
2020-11-18,0.10731283654681018
2020-11-19,-0.06966675413277092
2020-11-20,0.02642857142856983
2020-11-23,0.09797532310621065
2020-11-24,0.4844728775156585
2020-11-25,0.01578947368421177
2020-11-26,-0.006446908937413558
2020-11-27,-0.024672131147541174
2020-11-30,0.15642226168785092
2020-12-01,-0.3595973995118681
2020-12-02,-0.17488986784140714
2020-12-03,0.13557312252964562
2020-12-04,0.28612234759775823
2020-12-07,-0.2085346248170898
2020-12-08,0.2534901310852984
2020-12-09,0.08310307305238901
2020-12-10,-0.08846806159310394
2020-12-11,-0.25906343568939477
2020-12-14,0.23007312925025483
2020-12-15,-0.25657291483902805
2020-12-16,-0.03936585318606015
2020-12-17,0.17174780435837667
2020-12-18,-0.047060693804300176
2020-12-21,0.0400434536179885
2020-12-22,0.27843841466001173
2020-12-23,0.08526520208763286
2020-12-24,-0.3085364162765667
2020-12-25,0.13662226985099019
2020-12-28,-0.3510072953617577
2020-12-29,-0.3437844846612237
2020-12-30,-0.09017812788304459
2020-12-31,0.1082498707902049
2021-01-04,0.15374368471497996
2021-01-05,0.21523371370232947
2021-01-06,0.24044772973624173
2021-01-07,0.12414847532489426
2021-01-08,0.024149659863945287
2021-01-11,-0.19359984294093163
2021-01-12,-0.023913896443019396
2021-01-13,-0.13622667340528435
2021-01-14,-0.1796670599702444
2021-01-15,0.06642662514597171
2021-01-18,-0.13907189401303194
2021-01-19,-0.1684787085083586
2021-01-20,0.03249183722226827
2021-01-21,0.05229844413012535
2021-01-22,-0.06985201016987062
2021-01-25,0.03938710283887974
2021-01-26,0.19286311015634217
2021-01-27,0.014874915483433643
2021-01-28,-0.06071428571428424
2021-01-29,-0.15482858323006832
2021-02-01,0.16589102191196348
2021-02-02,0.061622697859631835
2021-02-03,0.0328821794204383
2021-02-04,0.17860262008733682
2021-02-05,0.13491677912730496
2021-02-08,-0.003339581582745152
2021-02-09,-0.044746716697936346
2021-02-10,0.848543845534999
2021-02-18,-0.06102449508733721
2021-02-19,0.14287379455578209
2021-02-22,-0.11936259560715369
2021-02-23,0.06417149159084648
2021-02-24,-1.2324252105721758
2021-02-25,0.0078025856598984665
2021-02-26,-0.21331312593831298
2021-03-01,0.2553658074911225
2021-03-02,-0.16006604647416556
2021-03-03,0.419672449314741
2021-03-04,-0.01647202469107889
2021-03-05,0.2720641269424947
2021-03-08,-0.21899744137106
2021-03-09,-0.058024167903327976
2021-03-10,0.02400347296743588
2021-03-11,-0.0380915653462506
2021-03-12,-0.3357310647785628
2021-03-15,0.013035381750465994
2021-03-16,0.0820754716981121
2021-03-17,-0.11613109448512174
2021-03-18,0.054182879377430215
2021-03-19,0.3746908451048433
2021-03-22,-0.07768924302788953
2021-03-23,-0.03336525530787581
2021-03-24,0.02038646399548776
2021-03-25,-0.04588167053364153
2021-03-26,-0.4376603860825331
2021-03-29,0.11985791772668361
2021-03-30,0.1313312276058378
2021-03-31,-0.09199092970521638
2021-04-01,0.057026248846895715
2021-04-02,0.3237352584591632
2021-04-06,-0.17567652810193596
2021-04-07,-0.09353290567116956
2021-04-08,0.18129531155228398
2021-04-09,-0.11082439464792442
2021-04-12,-0.28726105111910416
2021-04-13,0.1518144640617548
2021-04-14,0.002364935592964759
2021-04-15,0.14077876252179078
2021-04-16,0.1697718408745485
2021-04-19,0.11517128498009112
2021-04-20,0.026469508744372084
2021-04-21,0.00449579831932748
2021-04-22,-0.2561180091266056
2021-04-23,-0.18545347032301007
2021-04-26,0.2536776299923941
2021-04-27,0.03300165837479253
2021-04-28,-0.05384388807069229
2021-04-29,-0.05784677532998165
2021-04-30,0.20045318890239822
2021-05-06,-0.30224581759801444
2021-05-07,-0.20161678706570474
2021-05-10,0.16624166697023757
2021-05-11,0.253054192335803
2021-05-12,-0.03786952089704322
2021-05-13,0.268223925548466
2021-05-14,0.2871499712566069
2021-05-17,-0.1114637129654794
2021-05-18,-0.2081538480419221
2021-05-19,0.024287018024184454
2021-05-20,-0.27226329782072867
2021-05-21,-0.26479087740208407
2021-05-24,-0.023959276018100044
2021-05-25,0.042333361257713704
2021-05-26,-0.3625190924631555
2021-05-27,0.10080939094588079
2021-05-28,0.16270440522932175
2021-05-31,-0.01257918552036074
2021-06-01,0.06599033816425115
2021-06-02,0.3169652662294867
2021-06-03,0.08008948545861182
2021-06-04,-0.10099721706864509
2021-06-07,0.15680473372780956
2021-06-08,-0.041375661375661586
2021-06-09,0.03325511230305236
2021-06-10,0.003721682847897839
2021-06-11,0.02163213770356582
2021-06-15,-0.18993672875357054
2021-06-16,-0.00529100529100484
2021-06-17,-0.18122545168892473
2021-06-18,-0.051104602958089176
2021-06-21,0.06949194092051222
2021-06-22,0.14100227384719655
2021-06-23,-0.043269230769230754
2021-06-24,0.10455261381534578
2021-06-25,-0.12651566675597548
2021-06-28,-0.02900498263626718
2021-06-29,-0.08853442342000659
2021-06-30,0.046054746089564697
2021-07-01,-0.010315466219989832
2021-07-02,0.04316506783181254
2021-07-05,-0.14139398776270293
2021-07-06,0.005612169546593845
2021-07-07,0.32940626550158436
2021-07-08,0.056762353613254435
2021-07-09,0.08357904748964004
2021-07-12,0.13100934153565733
2021-07-13,-0.06686473707750122
2021-07-14,-0.5738370250378564
2021-07-15,0.15618491568994775
2021-07-16,-0.06433012229282015
2021-07-19,0.07308226578175707
2021-07-20,0.21010798032074476
2021-07-21,0.2009753877566079
2021-07-22,-0.3747580202037281
2021-07-23,0.09556419582758646
2021-07-26,-0.2128848973607042
2021-07-27,-0.3023681662118133
2021-07-28,0.04066985645933019
2021-07-29,0.030730260961770034
2021-07-30,-0.15074626865671753
2021-08-02,0.3046085858585855
2021-08-03,0.3872307111601966
2021-08-04,0.028268551236749363
2021-08-05,0.19915036393646515
2021-08-06,0.21290322580645132
2021-08-09,-0.055980927285274956
2021-08-10,-0.3082857020989559
2021-08-11,-0.01742512862861996
2021-08-12,-0.028836073313933508
2021-08-13,-0.2095531616066152
2021-08-16,-0.1850069329686399
2021-08-17,0.08062153199600615
2021-08-18,-0.07375732989289868
2021-08-19,0.07661818204099775
2021-08-20,0.12522136437159231
2021-08-23,-0.06232302639030582
2021-08-24,0.136746807085615
2021-08-25,0.07549252363697159
2021-08-26,-0.25282575774202587
2021-08-27,0.025580195977307815
2021-08-30,0.047776086588872835
2021-08-31,-0.30583104548977336
2021-09-01,0.07833047455688685
2021-09-02,0.15641821946169762
2021-09-03,-0.033659821270047866
2021-09-06,0.2675221433679924
2021-09-07,0.18891289058575286
2021-09-08,-0.10097620500304896
2021-09-09,-0.023446327683615792
2021-09-10,-0.030730711128517947
2021-09-13,-0.14392743387342455
2021-09-14,0.06915083400231893
2021-09-15,-0.06355251780788172
2021-09-16,0.04982601863284432
2021-09-17,0.038810336421260264
2021-09-22,-0.010876968922943951
2021-09-23,0.11812225998719203
2021-09-24,0.22111963190184186
2021-09-27,0.08985124586994303
2021-09-28,0.08681318681318353
2021-09-29,0.0746700723712182
2021-09-30,-0.30133933752698305
2021-10-08,-0.08304006968641046
2021-10-11,-0.13780758711922547
2021-10-12,-0.18939777327935153
2021-10-13,-0.09263489924664525
2021-10-14,0.15800878748001573
2021-10-15,-0.1559740734084321
2021-10-18,-0.05003507131166764
2021-10-19,0.20385811913504776
2021-10-20,-0.19437344049428915
2021-10-21,0.02445727550111696
2021-10-22,0.16724229843464783
2021-10-25,0.06216527155155236
2021-10-26,-0.27142202217220945
2021-10-27,0.29738556240309166
2021-10-28,0.09088819991898461
2021-10-29,-0.09972815533980553
2021-11-01,-0.049843167426170176
2021-11-02,0.14500171846614424
2021-11-03,-0.07633579627637252
2021-11-04,-0.35753413782152865
2021-11-05,0.16570040485829934
2021-11-08,0.22170096500407024
2021-11-09,-0.03650736430116279
2021-11-10,-0.13441950328823382
2021-11-11,0.2325852521130842
2021-11-12,-0.3423582995951413
2021-11-15,-0.38072410471937623
2021-11-16,0.26761878924114385
2021-11-17,-0.004276015675476724
2021-11-18,-0.024929608655759057
2021-11-19,0.40747607655502116
2021-11-22,0.24496059147659754
2021-11-23,-0.3951859019688111
2021-11-24,0.2723774889442593
2021-11-25,-0.13133995634386647
2021-11-26,-0.2522727272727247
2021-11-29,0.034607576980457584
2021-11-30,0.37550925724558915
2021-12-01,-0.2654030015500633
2021-12-02,0.19531324847228165
2021-12-03,0.08782316211482633
2021-12-06,-0.20509806524706042
2021-12-07,-0.3438379572795949
2021-12-08,0.033857217014758474
2021-12-09,-0.15654406826563624
2021-12-10,-0.23458272858242163
2021-12-13,0.1332000837105261
2021-12-14,-0.047668187058236555
2021-12-15,0.0806562439683465
2021-12-16,0.17214917523308576
2021-12-17,0.13396168473767475
2021-12-20,0.2482714362605061
2021-12-21,0.3903453367238132
2021-12-22,-0.0006238456802800489
2021-12-23,-0.10235261036648141
2021-12-24,0.0737734914860178
2021-12-27,-0.43333483395609285
2021-12-28,-0.173805013115711
2021-12-29,-0.08876931870009795
2021-12-30,-0.09175272622228611
2021-12-31,0.03902439024390296
2022-01-04,0.21064849671234495
2022-01-05,-0.16245629111598203
2022-01-06,0.1750497300369414
2022-01-07,0.09836065573770227
2022-01-10,-0.09454545454545288
2022-01-11,-0.11196633825944481
2022-01-12,0.15816137959632648
2022-01-13,-0.1736111111111064
2022-01-14,-0.009999999999995105
2022-01-17,0.13427609427609205
2022-01-18,0.24651098901099333
2022-01-19,-0.05406836249370558
2022-01-20,0.08938172043010245
2022-01-21,0.11994764397905355
2022-01-24,-0.12257798106854757
2022-01-25,-0.19770724421210337
2022-01-26,0.04353231363368817
2022-01-27,-0.06111154928095977
2022-01-28,-0.10994764397905808
2022-02-07,0.033365177931695016
2022-02-08,-0.006229977256605686
2022-02-09,-0.07480087653688915
2022-02-10,0.1058551732034704
2022-02-11,-0.010282776349614565
2022-02-14,0.2416899556140029
2022-02-15,0.10445004198152555
2022-02-16,0.10637884489528956
2022-02-17,-0.0069303351104716
2022-02-18,0.025907776349618303
2022-02-21,-0.32025752025751686
2022-02-22,0.1012300123001258
2022-02-23,-0.14352846070300562
2022-02-24,0.12907661705543208
2022-02-25,0.16118659420289605
2022-02-28,0.1744894951791499
2022-03-01,-0.24172218232249626
2022-03-02,0.25355450236966903
2022-03-03,-0.1823844627364998
2022-03-04,-0.21877679379348072
2022-03-07,-0.015515136204792543
2022-03-08,0.3563058183163354
2022-03-09,-0.11294448708109434
2022-03-10,0.13427926032821672
2022-03-11,0.16402495801397696
2022-03-14,-0.15912447640492877
2022-03-15,-0.287984902116594
2022-03-16,-0.0906225485892624
2022-03-17,-0.2925374328292679
2022-03-18,-0.2919699380641133
2022-03-21,0.11423148741816155
2022-03-22,-0.09328224126691326
2022-03-23,0.04074652284984577
2022-03-24,0.12867177522349965
2022-03-25,0.18356871622608453
2022-03-28,-0.11853667299919754
2022-03-29,-0.059877054666893345
2022-03-30,0.11153846153845896
2022-03-31,0.06714250401680771
2022-04-01,-0.009416755037114689
2022-04-06,0.15395577345386058
2022-04-07,0.27285459026497016
2022-04-08,-0.2661353046487009
2022-04-11,-0.178566799489889
2022-04-12,0.0492553360997085
2022-04-13,-0.0914173120032225
2022-04-14,-0.27322685175351275
2022-04-15,0.29544982966523237
2022-04-18,0.23850963682409798
2022-04-19,-0.1731359438330617
2022-04-20,-0.04739939775527036
2022-04-21,0.21375570682181408
2022-04-22,-0.22381716893551665
2022-04-25,-0.06944948791623076
2022-04-26,0.22668489664580704
2022-04-27,0.20602736716567616
2022-04-28,-0.04294226031630633
2022-04-29,0.1108640602804026
2022-05-05,-0.17379559407728698
2022-05-06,-0.06557687614790765
2022-05-09,-0.23535702499362882
2022-05-10,0.255139991305888
2022-05-11,-0.029767792379068576
2022-05-12,0.1541023109828659
2022-05-13,-0.05502195326729886
2022-05-16,0.056821416968386544
2022-05-17,-0.5008949127651261
2022-05-18,-0.07369138677732182
2022-05-19,0.12617941015722534
2022-05-20,-0.022651985115411045
2022-05-23,0.05346346870598525
2022-05-24,0.24670026584247415
2022-05-25,0.04910008208372599
2022-05-26,-0.31558855654975376
2022-05-27,-0.025714760574050227
2022-05-30,0.03137023546914165
2022-05-31,0.16023332853233488
2022-06-01,0.16604470071537286
2022-06-02,0.3701347429456628
2022-06-06,0.02871637964396282
2022-06-07,-0.07475747574757323
2022-06-08,-0.2838368038583091
2022-06-09,-0.16324515520226052
2022-06-10,-0.32650936123885643
2022-06-13,0.057692920918366974
2022-06-14,0.0836854601794838
2022-06-15,0.12468258560274523
2022-06-16,-0.006176579196380479
2022-06-17,0.1044394115434069
2022-06-20,0.16641929499072525
2022-06-21,-0.07479062304037243
2022-06-22,0.11701864252588066
2022-06-23,-0.025970685303824383
2022-06-24,0.054693053746967486
2022-06-27,-0.2769951769951783
2022-06-28,0.016357688113413323
2022-06-29,-0.3060668394197633
2022-06-30,0.06789703929380539
2022-07-01,-0.00564105683638573
2022-07-04,0.06064079346522097
2022-07-05,0.031331592689295217
2022-07-06,0.4866388453699716
2022-07-07,-0.018832007875832703
2022-07-08,-0.10199115464191447
2022-07-11,0.03904361898069754
2022-07-12,-0.05093943582655029
2022-07-13,-0.44718187874750226
2022-07-14,-0.04460729217123914
2022-07-15,0.18835091593773753
2022-07-18,0.05643611680893983
2022-07-19,-0.06301018261381829
2022-07-20,0.0387134502923981
2022-07-21,0.025482319678389227
2022-07-22,-0.07010213241645752
2022-07-25,-0.21470449393019414
2022-07-26,0.12267737293208311
2022-07-27,0.1355924285273346
2022-07-28,0.19647127483915283
2022-07-29,-0.19458580225397765
2022-08-01,0.24691081879537735
2022-08-02,0.0035555450177488235
2022-08-03,-0.10744905488608086
2022-08-04,-0.1489804423932421
2022-08-05,0.16118076234672554
2022-08-08,-0.09093423537063942
2022-08-09,-0.06845961269565327
2022-08-10,0.031989974591324334
2022-08-11,-0.08763941922661934
2022-08-12,-0.008893132128727693
2022-08-15,-0.17186991294500586
2022-08-16,-0.055692192254783245
2022-08-17,0.06796457296945407
2022-08-18,-0.12721121880414202
2022-08-19,0.07500877673825708
2022-08-22,0.19910293403422766
2022-08-23,0.32663066275167824
2022-08-24,-0.0592350639544198
2022-08-25,0.1990579503282936
2022-08-26,-0.18025307978849586
2022-08-29,0.0024586637162651026
2022-08-30,-0.4276005993150688
2022-08-31,0.1725646305793473
2022-09-01,0.048823494721941495
2022-09-02,0.09692540294768501
2022-09-05,-0.08795473920793151
2022-09-06,0.1596090390960909
2022-09-07,-0.1368887778679829
2022-09-08,-0.03627869185456107
2022-09-09,-0.005772696553277099
2022-09-13,0.03227762265655962
2022-09-14,0.005138033682665945
2022-09-15,-0.13625056535504124
2022-09-16,-0.14178743961352608
2022-09-19,0.17317498658078093
2022-09-20,0.09552996291235548
2022-09-21,0.06203536708749148
2022-09-22,0.13632083547337553
2022-09-23,0.1083502641202785
2022-09-26,-0.06219515041191097
2022-09-27,-0.15141905006042325
2022-09-28,-0.1341644794400677
2022-09-29,-0.042085802213951445
2022-09-30,0.017530742744709858
2022-10-10,-0.23218989013770197
2022-10-11,0.17443272053015244
2022-10-12,0.17203987357159894
2022-10-13,0.07293668391229119
2022-10-14,0.03259471636289308
2022-10-17,0.07209346058013054
2022-10-18,-0.2475773091498137
2022-10-19,-0.17872208025380493
2022-10-20,0.01573987295636972
2022-10-21,0.04666406629056394
2022-10-24,0.030266221277458462
2022-10-25,0.16696838880378428
2022-10-26,0.21375291375291056
2022-10-27,-0.06631883329142514
2022-10-28,-0.24401078611891042
2022-10-31,0.156225908059648
2022-11-01,0.22239635995955837
2022-11-02,-0.1356338251626197
2022-11-03,-0.07839102369709525
2022-11-04,0.2775768389917703
2022-11-07,-0.19799280584748752
2022-11-08,-0.4697576353066426
2022-11-09,0.04900540503905629
2022-11-10,0.13999791035419434
2022-11-11,-0.07653972813901394
2022-11-14,0.17007262286775698
2022-11-15,0.27116428492301137
2022-11-16,-0.07087924075488221
2022-11-17,0.01101708519665339
2022-11-18,-0.1198067792139284
2022-11-21,-0.0808379385683049
2022-11-22,-0.01568627450980572
2022-11-23,0.012709873114879401
2022-11-24,-0.17371009990253422
2022-11-25,0.030950375745014518
2022-11-28,0.060276216151557954
2022-11-29,0.03085921063704577
2022-11-30,0.04681798978377004
2022-12-01,0.11526144801980215
2022-12-02,0.087757482892512
2022-12-05,-0.2071422624029864
2022-12-06,-0.09806654438711557
2022-12-07,-0.09443495094762253
2022-12-08,-0.011009707236425864
2022-12-09,-0.06224533958784607
2022-12-12,0.05548798583572968
2022-12-13,-0.0250117761160984
2022-12-14,0.03479631102729242
2022-12-15,0.02955736845415937
2022-12-16,0.10407669663659491
2022-12-19,0.18154260119158544
2022-12-20,0.1807506375851697
2022-12-21,0.09511113791959425
2022-12-22,-0.028641449501227247
2022-12-23,-0.21012269938650296
2022-12-26,-0.19977761074425718
2022-12-27,-0.23618314650604932
2022-12-28,-0.07029440124221992
2022-12-29,0.00811359026369125
2022-12-30,0.2128427785160783
2023-01-03,0.24395003903200335
2023-01-04,0.2587968844942794
2023-01-05,-0.0331971647761123
2023-01-06,-0.021834061135371466
2023-01-09,-0.15301769817719502
2023-01-10,-0.24118231495280495
2023-01-11,-0.47409676209526086
2023-01-12,0.2564784651398824
2023-01-13,0.03486337709628402
2023-01-16,0.0926877583830976
2023-01-17,0.021943573667713198
2023-01-18,0.6952153110047863
2023-01-19,-0.08520462719937916
2023-01-20,0.04850914557754775
2023-01-30,0.05916265569557741
2023-01-31,0.08232429586733139
2023-02-01,-0.49169662728984875
2023-02-02,-0.082420073060821
2023-02-03,-0.136227258218957
2023-02-06,-0.0893704332971237
2023-02-07,0.05646104119386576
2023-02-08,0.142797105758746
2023-02-09,-0.2028624432037111
2023-02-10,0.044985826383466966
2023-02-13,-0.08990345016930505
2023-02-14,-0.2219324958761575
2023-02-15,-0.028025878650113936
2023-02-16,0.2325327968481451
2023-02-17,0.029702970297029736
2023-02-20,0.16671479912719728
2023-02-21,0.18143818925281652
2023-02-22,-0.04369102043520211
2023-02-23,-0.158320363758429
2023-02-24,0.1324503311258275
2023-02-27,-0.04308727794328615
2023-02-28,-0.06341642228738402
2023-03-01,0.021685939332992316
2023-03-02,0.10285719549038559
2023-03-03,-0.17449237316786936
2023-03-06,-0.06058772846431651
2023-03-07,0.16030450132391472
2023-03-08,0.13012170385395672
2023-03-09,-0.10185807566737126
2023-03-10,0.28916847882365093
2023-03-13,0.04517284717507248
2023-03-14,-0.10575904677846287
2023-03-15,-0.13046233008217079
2023-03-16,0.30139477369023937
2023-03-17,-0.3897119881124072
2023-03-20,-0.042649718495508825
2023-03-21,-0.10264632627646497
2023-03-22,0.045584992631495
2023-03-23,-0.4561599108067209
2023-03-24,0.26596217470742123
2023-03-27,0.0432757007549049
2023-03-28,0.13062482925496777
2023-03-29,-0.015385031364915359
2023-03-30,0.22498586772187767
2023-03-31,-0.30115440115440145
2023-04-03,0.3856456580445023
2023-04-04,-0.01867319550877136
2023-04-06,-0.014296676143069603
2023-04-07,0.119958163459208
2023-04-10,0.24576815082230408
2023-04-11,-0.6455693621186567
2023-04-12,-0.003093186257610455
2023-04-13,0.006744445764751639
2023-04-14,-0.16935419452047024
2023-04-17,-0.09897628853748354
2023-04-18,0.18442632539422366
2023-04-19,-0.14740970072239476
2023-04-20,0.18200109749405827
2023-04-21,0.05374128091312874
2023-04-24,0.09501030573685988
2023-04-25,0.3045995202238948
2023-04-26,0.17604257322623415
2023-04-27,-0.12316255612276618
2023-04-28,0.018311240787784875
2023-05-04,-0.05365094626050077
2023-05-05,-0.30310126321610975
2023-05-08,0.08225504598233255
2023-05-09,-0.18404730573552386
2023-05-10,0.04496189630401
2023-05-11,-0.04215310500034989
2023-05-12,-0.030167281484909672
2023-05-15,-0.18322766207591717
2023-05-16,0.2691781451094303
2023-05-17,-0.07349665924275885
2023-05-18,0.15706439905795214
2023-05-19,0.08364266161110401
2023-05-22,0.15972603007990122
2023-05-23,-0.19496774252966312
2023-05-24,0.016412339922046194
2023-05-25,-0.20583483627283095
2023-05-26,0.11291048133153597
2023-05-29,-0.26463210373597423
2023-05-30,0.1526217384078407
2023-05-31,0.041349980427978196
2023-06-01,0.23175977565118072
2023-06-02,-0.066557396679989
2023-06-05,0.10344110344110397
2023-06-06,-0.12220526823000238
2023-06-07,-0.044631373252475126
2023-06-08,-0.3523166884894628
2023-06-09,-0.13034949422228376
2023-06-12,0.2019603821634288
2023-06-13,0.004997476022212961
2023-06-14,0.002353437507756089
2023-06-15,0.30816851448696364
2023-06-16,0.059205086533802284
2023-06-19,-0.24399430954767526
2023-06-20,0.005261405261403573
2023-06-21,0.002014060627004045
2023-06-26,-0.1981886017381952
2023-06-27,0.004478973256454934
2023-06-28,0.02142129701551926
2023-06-29,0.18610072098444327
2023-06-30,-0.10772673031025987
2023-07-03,0.04605667578612942
2023-07-04,-0.006063153306713899
2023-07-05,-0.023712737127373498
2023-07-06,-0.4513813017012638
2023-07-07,0.3436320754716935
2023-07-10,0.1868328746424905
2023-07-11,-0.014531488190687815
2023-07-12,0.1618859498454146
2023-07-13,0.33464323560578957
2023-07-14,-0.19339622641509263
2023-07-17,-0.1175200278648543
2023-07-18,0.0321869663635233
2023-07-19,-0.046398511187240594
2023-07-20,0.012598394814018546
2023-07-21,-0.20394083520618828
2023-07-24,-0.13719923487365548
2023-07-25,0.01853821776034782
2023-07-26,-0.042680740441939716
2023-07-27,-0.06245330776178668
2023-07-28,0.1929225434014977
2023-07-31,0.08321703367955767
2023-08-01,0.1380171337552178
2023-08-02,0.2602674546729501
2023-08-03,0.08218065974720075
2023-08-04,0.09358319462778475
2023-08-07,0.13712232728724658
2023-08-08,-0.14782305816788505
2023-08-09,-0.2660009821574754
2023-08-10,-0.06796171171170941
2023-08-11,-0.1965894116735109
2023-08-14,-0.17657897890700303
2023-08-15,0.021982865351258336
2023-08-16,-0.06461063426275783
2023-08-17,-0.0210021623269769
2023-08-18,0.12447937989595337
2023-08-21,0.4577310632723257
2023-08-22,0.009077740709347634
2023-08-23,0.09462939598883566
2023-08-24,0.0012571374513516784
2023-08-25,-0.01805889336014385
2023-08-28,-0.6481324409166178
2023-08-29,-0.049691358024692725
2023-08-30,0.02368052414363038
2023-08-31,-0.04724440402765487
2023-09-01,0.018619237911507415
2023-09-04,0.28789760347839755
2023-09-05,-0.020904075036786436
2023-09-06,0.14337137040386463
2023-09-07,0.05217715784100892
2023-09-08,-0.10835371366012386
2023-09-11,-0.0024782010185445784
2023-09-12,-0.011612804924791692
2023-09-13,-0.42510759683715393
2023-09-14,-0.00859140859140794
2023-09-15,-0.019344719414435163
2023-09-18,-0.0758215962441307
2023-09-19,0.27525335076822355
2023-09-20,0.40674817212034153
2023-09-21,0.03437738731856143
2023-09-22,0.19151281344723775
2023-09-25,-0.0017647058823527795
2023-09-26,-0.27263568350155515
2023-09-27,-0.0624574705939555
2023-09-28,0.02187885643767823
2023-10-09,0.011858518107455807
2023-10-10,0.10094503375120442
2023-10-11,0.00185619571960155
2023-10-12,-0.24237898097789107
2023-10-13,-0.08210418222554078
2023-10-16,-0.27341386212353735
2023-10-17,-0.04918032786885209
2023-10-18,0.17142873701780614
2023-10-19,0.12133774508463377
2023-10-20,0.11806992413390874
2023-10-23,0.3160785065848365
2023-10-24,-0.015184381778743008
2023-10-25,-0.1781657276565715
2023-10-26,0.09475148932469522
2023-10-27,-0.11659761004023386
2023-10-30,-0.38854979480954965
2023-10-31,0.05330754893416981
2023-11-01,0.07924537693820276
2023-11-02,-0.08773443531175029
2023-11-03,0.026031192603430356
2023-11-06,0.39624628750114943
2023-11-07,0.02041341821042616
2023-11-08,0.10464995183420116
2023-11-09,-0.022921302393168235
2023-11-10,-0.027295164682854485
2023-11-13,-0.3087136717151111
2023-11-14,-0.17709328639678024
2023-11-15,-0.3437222087476717
2023-11-16,0.22111192975992963
2023-11-17,0.274295399250981
2023-11-20,0.27052650957290475
2023-11-21,0.10948640624634697
2023-11-22,0.28108314263920353
2023-11-23,-0.016547203926126686
2023-11-24,-0.28399592735538903
2023-11-27,-0.11901981314433038
2023-11-28,-0.0043654057912353595
2023-11-29,-0.018983340604935263
2023-11-30,-0.34791559444158304
2023-12-01,0.16786736743152716
2023-12-04,0.007062532084187615
2023-12-05,0.05351586089645788
2023-12-06,-0.07555685507148656
2023-12-07,0.30100336638446734
2023-12-08,-0.2685135892208241
2023-12-11,-0.1938807292298951
2023-12-12,-0.012315489872371278
2023-12-13,0.07998081772168661
2023-12-14,-0.3030467210397631
2023-12-15,0.11662041815929416
2023-12-18,0.17531909950133162
2023-12-19,-0.08214533510084153
2023-12-20,-0.11112328264870729
2023-12-21,0.2655615147082731
2023-12-22,0.1910830999066314
2023-12-25,0.1637839863430066
2023-12-26,0.06843218690081629
2023-12-27,0.006161043023998829
2023-12-28,-0.06037944187914106
2023-12-29,-0.1732229123533485
2024-01-02,-0.2507453666398087
2024-01-03,0.04728181108508547
2024-01-04,0.2788422481924668
2024-01-05,-0.04557007988380703
2024-01-08,-0.008861811132650516
2024-01-09,0.039578005115092636
2024-01-10,-0.14976870748299065
2024-01-11,-0.3305582639566006
2024-01-12,-0.011035243809918261
2024-01-15,0.023354564755843226
2024-01-16,0.0879515781467832
2024-01-17,0.08286434350899012
2024-01-18,0.05062920690664274
2024-01-19,0.11332801276935482
2024-01-22,-0.06111111111111733
2024-01-23,-0.06031551172158204
2024-01-24,-0.05820577973315742
2024-01-25,-0.06716411109569653
2024-01-26,0.028108100884027945
2024-01-29,0.12195213362898741
2024-01-30,-0.1140575752969365
2024-01-31,0.19591966751668008
2024-02-01,0.2458614575421632
2024-02-02,-0.034747939918230664
2024-02-05,-0.1534336151104663
2024-02-06,0.16562673133338895
2024-02-07,-0.23888443017656016
2024-02-08,-0.1607543201793553
2024-02-19,-0.24839528977141767
2024-02-20,-0.003792949576085447
2024-02-21,-0.0067897635244542585
2024-02-22,0.12829329717163981
2024-02-23,-0.094140593901761
2024-02-26,0.1348260695721727
2024-02-27,0.2553599011430411
2024-02-28,-0.0842084562438562
2024-02-29,0.025177247824678967
2024-03-01,0.1260925256178425
2024-03-04,0.03977147879586368
2024-03-05,-0.19988344988345752
2024-03-06,0.15262341148345368
2024-03-07,-0.0036255236867458046
2024-03-08,0.050250885478160076
2024-03-11,0.012977262977266944
2024-03-12,-0.002569169960469589
2024-03-13,-0.06646821511104171
2024-03-14,-0.039103448275868265
2024-03-15,-0.07717888775476785
2024-03-18,-0.012232716778169814
2024-03-19,0.10597826086956431
2024-03-20,-0.11541079241614009
2024-03-21,-0.059555555555553065
2024-03-22,0.07658055560563315
2024-03-25,-0.07869205892921423
2024-03-26,0.05178571428571484
2024-03-27,0.1763700351935618
2024-03-28,0.10243055555555686
2024-03-29,0.10479840615924704
2024-04-01,0.11569822195211318
2024-04-02,-0.17056713719005465
2024-04-03,-0.16799686662625807
2024-04-08,0.15704239231634476
2024-04-09,-0.17443185825726543
2024-04-10,0.01239754029334406
2024-04-11,0.08059753232682866
2024-04-12,0.16300054412251835
2024-04-15,-0.2066421879566707
2024-04-16,0.13546684724674682
2024-04-17,-0.08311454914830266
2024-04-18,0.05558079779400654
2024-04-19,0.20930858409524167
2024-04-22,-0.010142851418500087
2024-04-23,-0.17918307537320358
2024-04-24,0.1604492042243041
2024-04-25,-0.16427751762942075
2024-04-26,-0.5395058261968275
2024-04-29,-0.025892042863656227
2024-04-30,0.03767946176488197
2024-05-06,-0.22432347775502923
2024-05-07,0.043882168045321746
2024-05-08,0.07883880825057024
2024-05-09,-0.07751937984495891
2024-05-10,0.04371816638370081
2024-05-13,0.2928061039118282
2024-05-14,0.0038684057375667144
2024-05-15,0.20036047602587442
2024-05-16,0.22250617599454497
2024-05-17,-0.06175206227489283
2024-05-20,-0.20793554271814974
2024-05-21,0.14734432234432362
2024-05-22,0.029501302067419438
2024-05-23,-0.024901805022286547
2024-05-24,0.11983250013835539
2024-05-27,-0.06257189285909796
2024-05-28,0.020339845339842955
2024-05-29,-0.07256189913094457
2024-05-30,-0.21550251639469276
2024-05-31,0.06180260307220996
2024-06-03,0.20272189829407913
2024-06-04,-0.09864672364672168
2024-06-05,-0.03532096101930599
2024-06-06,0.1224949721992182
2024-06-07,-0.23267388328978378
2024-06-11,-0.23262744883590883
2024-06-12,-0.2258597883597901
2024-06-13,0.16212996210680325
2024-06-14,0.0018138219380256886
2024-06-17,0.1903976500710774
2024-06-18,0.20214147967047238
2024-06-19,0.27491305510968445
2024-06-20,-0.18930368524465238
2024-06-21,-0.02355776279138262
2024-06-24,-0.1641885358124201
2024-06-25,-0.19493501529052237
2024-06-26,-0.1828592755559032
2024-06-27,0.05196826519783551
2024-06-28,0.029473614674053343
2024-07-01,0.010349480810576045
2024-07-02,0.17007978723403952
2024-07-03,0.07739860139859961
2024-07-04,-0.009025961599788298
2024-07-05,0.058574417909455626
2024-07-08,0.210886612281033
2024-07-09,-0.20668693009118194
2024-07-10,0.1703414634146364
2024-07-11,0.1806185327287456
2024-07-12,-0.02394700211372943
2024-07-15,-0.18211677101119073
2024-07-16,0.16452896948253035
2024-07-17,-0.16149297856615047
2024-07-18,-0.18679759956355016
2024-07-19,-0.049722465673386826
2024-07-22,0.11312413314840383
2024-07-23,-0.033720019396475696
2024-07-24,-0.06411677753141244
2024-07-25,0.0870606214977015
2024-07-26,0.12563069114793657
2024-07-29,-0.11975943599475859
2024-07-30,0.13370991383933745
2024-07-31,0.09514130855594578
2024-08-01,-0.11117303589991004
2024-08-02,-0.06917343041328582
2024-08-05,0.21882467326450827
2024-08-06,-0.13713985588892744
2024-08-07,0.036158988246093746
2024-08-08,0.011403384301869615
2024-08-09,-0.14028045508415893
2024-08-12,-0.3761655608943456
2024-08-13,0.07902328532234854
2024-08-14,-0.12121439405622025
2024-08-15,0.1684782608695677
2024-08-16,0.1509188614451749
2024-08-19,0.21412798471824063
2024-08-20,-0.0012222043260324833
2024-08-21,0.07984905660377585
2024-08-22,-0.09069920844327319
2024-08-23,-0.13223172151743495
2024-08-26,0.008037289190769062
2024-08-27,-0.23445409371662396
2024-08-28,-0.05687128712871492
2024-08-29,-0.21423158740448117
2024-08-30,0.07152544562129123
2024-09-02,0.21127062352688913
2024-09-03,0.12004781420765592
2024-09-04,0.23301780727523375
2024-09-05,0.2570912896749126
2024-09-06,0.0957527837220212
2024-09-09,-0.29955229955230245
2024-09-10,0.19128787878787362
2024-09-11,-0.1568879997807679
2024-09-12,-0.03841957373031128
2024-09-13,-0.1064045791839479
2024-09-18,-0.04100213408089051
2024-09-19,-0.18209998781379594
2024-09-20,-0.13076552316687495
2024-09-23,-0.16335151199715553
2024-09-24,0.02331002331002348
2024-09-25,0.20942933097783853
2024-09-26,0.30826761064404334
2024-09-27,0.08293752283522558
2024-09-30,0.32257352059509864
2024-10-08,-0.11521294192609989
2024-10-09,-0.038776413099174824
2024-10-10,-0.39147892048029787
2024-10-11,0.10987464856752392
2024-10-14,-0.2868518175836801
2024-10-15,0.47022649206160105
2024-10-16,-0.1748677150147015
2024-10-17,0.09676137973501087
2024-10-18,-0.14778578875666373
2024-10-21,0.0938149972632711
2024-10-22,-0.5608959030766765
2024-10-23,0.31153086419752957
2024-10-24,-0.07632473063228752
2024-10-25,0.03564104282554458
2024-10-28,0.1980150680962057
2024-10-29,0.2107723284912974
2024-10-30,-0.36054789582769997
2024-10-31,0.14055382402301425
2024-11-01,0.025790888190917526
2024-11-04,-0.4515445284258942
2024-11-05,-0.016042391906998084
2024-11-06,0.3697839489234011
2024-11-07,0.19253060928783794
2024-11-08,-0.023384474990020502
2024-11-11,0.264107227924296
2024-11-12,0.0009742993085287179
2024-11-13,-0.35586717436264215
2024-11-14,-0.41774665650206
2024-11-15,0.32000530343208095
2024-11-18,0.021745407698632917
2024-11-19,0.16763668058426018
2024-11-20,0.12875105470789827
2024-11-21,0.1875755625963375
2024-11-22,-0.5399115799977969
2024-11-25,-0.09825451220531828
2024-11-26,-0.21452392735679843
2024-11-27,0.21887861412621792
2024-11-28,-0.03405305226326719
2024-11-29,0.1930867867664981
2024-12-02,0.05100522853769511
2024-12-03,0.053698360453884604
2024-12-04,-0.30663751987281246
2024-12-05,0.43074920989031534
2024-12-06,0.09078163943506186
2024-12-09,-0.018571428571430258
2024-12-10,-0.1249752426223048
2024-12-11,0.0651633228320325
2024-12-12,-0.3362470862470858
2024-12-13,-0.09165019762846335
2024-12-16,-0.006349206349203416
2024-12-17,0.1415001407261471
2024-12-18,0.08515257748386554
2024-12-19,-0.42840881859573954
2024-12-20,0.223672367236733
2024-12-23,0.12315592903828308
2024-12-24,-0.032462914041859275
2024-12-25,-0.010711729215664816
2024-12-26,0.35163254143778294
2024-12-27,-0.13541626536195278
2024-12-30,-0.14793678665496188
2024-12-31,0.1661304161304129
