date,FCT_Demark_Atr_Dfive
2010-01-04,
2010-01-05,
2010-01-06,
2010-01-07,
2010-01-08,
2010-01-11,
2010-01-12,
2010-01-13,
2010-01-14,
2010-01-15,0.3086419753086429
2010-01-18,0.2368421052631582
2010-01-19,0.2727272727272714
2010-01-20,0.0
2010-01-21,0.10552763819095215
2010-01-22,0.19463087248322591
2010-01-25,0.17058823529412145
2010-01-26,0.3316326530612282
2010-01-27,0.5416666666666732
2010-01-28,0.5634920634920714
2010-01-29,0.4772727272727282
2010-02-01,0.790055248618786
2010-02-02,0.6524390243902441
2010-02-03,0.7692307692307656
2010-02-04,0.4391534391534378
2010-02-05,0.4585635359116026
2010-02-08,0.016129032258065876
2010-02-09,0.015625000000001388
2010-02-10,0.0
2010-02-11,0.0
2010-02-12,0.08130081300813133
2010-02-22,0.6744186046511661
2010-02-23,0.6987951807228844
2010-02-24,0.7093023255813952
2010-02-25,0.7608695652173939
2010-02-26,0.5217391304347871
2010-03-01,0.0991735537190145
2010-03-02,0.1869158878504721
2010-03-03,0.13385826771653903
2010-03-04,0.140624999999994
2010-03-05,0.17999999999999378
2010-03-08,0.4909090909090901
2010-03-09,0.3653846153846093
2010-03-10,0.6969696969696856
2010-03-11,0.3023255813953455
2010-03-12,0.28888888888888425
2010-03-15,0.08695652173912229
2010-03-16,0.09090909090908433
2010-03-17,0.42857142857143177
2010-03-18,0.612981690352031
2010-03-19,0.7423799083797571
2010-03-22,0.9271718343417982
2010-03-23,0.9686336590425396
2010-03-24,0.33027331887203876
2010-03-25,0.2817100634666936
2010-03-26,0.49917595608562304
2010-03-29,0.6075594106222393
2010-03-30,0.6730614336970109
2010-03-31,0.7272727272727229
2010-04-01,0.7499999999999962
2010-04-02,0.5555555555555465
2010-04-06,0.29411764705880916
2010-04-07,0.09302325581395203
2010-04-08,0.11428571428571213
2010-04-09,0.0
2010-04-12,0.0
2010-04-13,0.0
2010-04-14,0.44897959183673913
2010-04-15,0.4888888888888949
2010-04-16,0.41509433962264464
2010-04-19,0.5510204081632762
2010-04-20,0.7446808510638205
2010-04-21,0.27083333333331444
2010-04-22,0.27083333333331444
2010-04-23,0.36111111111108973
2010-04-26,0.1951219512194819
2010-04-27,0.0
2010-04-28,0.8846153846153901
2010-04-29,0.8155245112014823
2010-04-30,0.8450997389349801
2010-05-04,0.9099720685011753
2010-05-05,0.9434628744973578
2010-05-06,0.4441114192429032
2010-05-07,0.6164838062630755
2010-05-10,0.5272808608045552
2010-05-11,0.4532751432022777
2010-05-12,0.3438804430402851
2010-05-13,0.5148514851485199
2010-05-14,0.0
2010-05-17,0.6453201970443361
2010-05-18,0.6715686274509808
2010-05-19,0.723222945230354
2010-05-20,0.8414888748447281
2010-05-21,1.0
2010-05-24,0.5084181952585047
2010-05-25,0.5438468588178197
2010-05-26,0.4846402296457471
2010-05-27,0.43312425868966503
2010-05-28,0.11351116960542405
2010-05-31,0.18366339600821888
2010-06-01,0.0
2010-06-02,0.30967741935483767
2010-06-03,0.2909090909090887
2010-06-04,0.36923076923076803
2010-06-07,0.6119402985074659
2010-06-08,0.7669172932330803
2010-06-09,0.6136363636363629
2010-06-10,0.750000000000002
2010-06-11,0.9600000000000025
2010-06-17,0.8837209302325598
2010-06-18,0.33962264150943683
2010-06-21,0.31578947368421617
2010-06-22,0.04411764705883246
2010-06-23,0.07142857142856161
2010-06-24,0.0471698113207482
2010-06-25,0.062499999999992506
2010-06-28,0.043859649122800985
2010-06-29,0.2905982905982883
2010-06-30,0.29661016949152585
2010-07-01,0.4375000000000001
2010-07-02,0.6132075471698086
2010-07-05,1.0
2010-07-06,0.579710144927532
2010-07-07,0.38636363636364224
2010-07-08,0.369565217391309
2010-07-09,0.04347826086957568
2010-07-12,0.08333333333332427
2010-07-13,0.43269230769230954
2010-07-14,0.6046511627906963
2010-07-15,0.6341463414634153
2010-07-16,1.0
2010-07-19,1.0
2010-07-20,0.6206896551724075
2010-07-21,0.5802469135802364
2010-07-22,0.5731707317073036
2010-07-23,0.5512820512820398
2010-07-26,0.3396226415094318
2010-07-27,0.9130434782608361
2010-07-28,0.9761904761904658
2010-07-29,1.0
2010-07-30,1.0
2010-08-02,0.5109341307864799
2010-08-03,0.541444184741329
2010-08-04,0.4911127897785855
2010-08-05,0.34291413863428266
2010-08-06,0.37123477011320355
2010-08-09,0.5751819584054788
2010-08-10,0.4505299468662274
2010-08-11,0.14376245153062808
2010-08-12,0.31320661071792716
2010-08-13,0.17500000000000016
2010-08-16,0.3134328358208996
2010-08-17,0.2692307692307742
2010-08-18,0.4915254237288168
2010-08-19,0.538461538461541
2010-08-20,0.8936773375548921
2010-08-23,0.9031807767259468
2010-08-24,1.0
2010-08-25,1.0
2010-08-26,0.7130319589335976
2010-08-27,0.258362363006754
2010-08-30,0.15039714963097053
2010-08-31,0.2096237573425484
2010-09-01,0.18471979434447455
2010-09-02,0.2677165354330703
2010-09-03,0.725490196078445
2010-09-06,1.0
2010-09-07,0.6129032258064646
2010-09-08,0.2804878048780584
2010-09-09,0.8121019108280297
2010-09-10,0.8138801261829689
2010-09-13,0.7121661721068261
2010-09-14,0.7955182072829124
2010-09-15,0.8879056047197615
2010-09-16,0.1942028985507215
2010-09-17,0.2445652173913026
2010-09-20,0.2973113047893039
2010-09-21,0.17438592914074874
2010-09-27,0.12346048233293225
2010-09-28,0.548169478808756
2010-09-29,0.3044685470481678
2010-09-30,0.28458761482173117
2010-10-08,0.4800683115365558
2010-10-11,0.8816187294634663
2010-10-12,0.8803197394509297
2010-10-13,1.0
2010-10-14,1.0
2010-10-15,1.0
2010-10-18,0.5667500796062825
2010-10-19,0.5909110228523058
2010-10-20,0.5208264188516306
2010-10-21,0.45623420707973594
2010-10-22,0.5380698956752216
2010-10-25,0.905405405405414
2010-10-26,0.5243902439024435
2010-10-27,0.33846153846155386
2010-10-28,0.30985915492959015
2010-10-29,0.0
2010-11-01,0.0
2010-11-02,0.0
2010-11-03,0.0
2010-11-04,0.0
2010-11-05,0.34285714285713903
2010-11-08,0.6098901098901093
2010-11-09,0.813453886625889
2010-11-10,0.9624929946794131
2010-11-11,1.0
2010-11-12,1.0
2010-11-15,1.0
2010-11-16,0.7325288081178694
2010-11-17,0.5980366229464535
2010-11-18,0.32763221283833494
2010-11-19,0.051791398503288295
2010-11-22,0.0
2010-11-23,0.10025062656641637
2010-11-24,0.10309278350515476
2010-11-25,0.13468013468013407
2010-11-26,0.22727272727272405
2010-11-29,0.3124999999999938
2010-11-30,0.0
2010-12-01,0.07207207207207712
2010-12-02,0.07547169811321403
2010-12-03,0.15116279069768265
2010-12-06,0.1413043478260964
2010-12-07,0.27083333333335746
2010-12-08,0.12500000000000772
2010-12-09,0.1219512195121984
2010-12-10,0.0
2010-12-13,0.2741935483870888
2010-12-14,0.3090909090909015
2010-12-15,0.38709677419353605
2010-12-16,0.666666666666667
2010-12-17,0.8059701492537396
2010-12-20,0.7719298245614151
2010-12-21,0.7719298245614037
2010-12-22,0.8194444444444471
2010-12-23,0.37662337662338413
2010-12-24,0.4878048780487845
2010-12-27,0.30275229357798145
2010-12-28,0.43442622950819776
2010-12-29,0.40517241379310187
2010-12-30,0.6909090909090831
2010-12-31,0.5555555555555524
2011-01-04,0.8043478260869608
2011-01-05,0.54545454545454
2011-01-06,0.25165562913906675
2011-01-07,0.18115942028985751
2011-01-10,0.3790849673202595
2011-01-11,0.30049359633307
2011-01-12,0.4791368760855048
2011-01-13,0.8309784091529244
2011-01-14,0.5415655331131983
2011-01-17,0.34408793914333674
2011-01-18,0.40322213735234286
2011-01-19,0.14320360642108534
2011-01-20,0.0
2011-01-21,0.42917813431102636
2011-01-24,0.4624999999999981
2011-01-25,0.6742424242424223
2011-01-26,0.8373493975903579
2011-01-27,0.9119496855345899
2011-01-28,0.850393700787408
2011-01-31,0.9652777777777857
2011-02-01,0.6083916083916174
2011-02-09,0.25170068027211734
2011-02-10,0.3529411764705957
2011-02-11,0.340909090909094
2011-02-14,0.1746987951807236
2011-02-15,0.2833333333333256
2011-02-16,0.6483516483516335
2011-02-17,0.35714285714283805
2011-02-18,0.394736842105246
2011-02-21,0.5535714285714102
2011-02-22,0.7950819672131131
2011-02-23,0.6857142857142924
2011-02-24,0.9075630252100909
2011-02-25,0.9322033898305171
2011-02-28,0.9237288135593326
2011-03-01,0.3247863247863316
2011-03-02,0.29007633587786624
2011-03-03,0.016393442622953853
2011-03-04,0.0
2011-03-07,0.0
2011-03-08,0.0
2011-03-09,0.12499999999999484
2011-03-10,0.3333333333333146
2011-03-11,0.9117647058823473
2011-03-14,0.9784946236559094
2011-03-15,0.9816513761467851
2011-03-16,0.985185185185182
2011-03-17,1.0
2011-03-18,0.8507462686567154
2011-03-21,0.5235849056603782
2011-03-22,0.42986425339366535
2011-03-23,0.3033175355450249
2011-03-24,0.0
2011-03-25,0.0
2011-03-28,0.1857142857142803
2011-03-29,0.2096774193548323
2011-03-30,0.222222222222214
2011-03-31,0.4262295081967096
2011-04-01,0.5652173913043456
2011-04-06,0.24528301886793366
2011-04-07,0.40823542043748395
2011-04-08,0.810146631250237
2011-04-11,0.8837290780075645
2011-04-12,0.8849155708446673
2011-04-13,1.0
2011-04-14,0.9525228858717408
2011-04-15,0.3092293005920715
2011-04-18,0.22224820174469614
2011-04-19,0.2467607860574957
2011-04-20,0.15384615384616104
2011-04-21,0.15652173913044004
2011-04-22,0.2903225806451617
2011-04-25,0.36734693877550706
2011-04-26,0.0
2011-04-27,0.0
2011-04-28,0.09677419354839857
2011-04-29,0.07594936708861823
2011-05-03,0.13157894736843853
2011-05-04,0.4117647058824084
2011-05-05,0.5000000000000383
2011-05-06,0.8217821782178306
2011-05-09,1.0
2011-05-10,1.0
2011-05-11,1.0
2011-05-12,1.0
2011-05-13,0.6556291390728438
2011-05-16,0.6060606060606002
2011-05-17,0.5439999999999965
2011-05-18,0.22695035460992694
2011-05-19,0.10067114093959494
2011-05-20,0.1162790697674395
2011-05-23,0.0
2011-05-24,0.16546762589928032
2011-05-25,0.39047619047619603
2011-05-26,0.5465116279069836
2011-05-27,0.8727272727272705
2011-05-30,0.827586206896556
2011-05-31,0.4385964912280764
2011-06-01,0.3333333333333335
2011-06-02,0.2558139534883574
2011-06-03,0.31914893617021034
2011-06-07,0.36585365853658386
2011-06-08,0.8666666666666769
2011-06-09,0.8333333333333397
2011-06-10,0.8620689655172556
2011-06-13,0.866666666666685
2011-06-14,0.6500000000000139
2011-06-15,0.32608695652175146
2011-06-16,0.21052631578949407
2011-06-17,0.08823529411765757
2011-06-20,0.031249999999990313
2011-06-21,0.03636363636362533
2011-06-22,0.048780487804863555
2011-06-23,0.5098039215686113
2011-06-24,0.7714285714285555
2011-06-27,0.7948717948717844
2011-06-28,0.9142857142857006
2011-06-29,0.9696969696969914
2011-06-30,0.1702127659574604
2011-07-01,0.40909090909092755
2011-07-04,0.2876712328767253
2011-07-05,0.2564102564102634
2011-07-06,0.23255813953488652
2011-07-07,0.37037037037035725
2011-07-08,0.0
2011-07-11,0.0
2011-07-12,0.0
2011-07-13,0.22388059701492863
2011-07-14,0.40259740259740545
2011-07-15,0.725490196078436
2011-07-18,0.8888888888888888
2011-07-19,1.0
2011-07-20,0.9361702127659464
2011-07-21,0.6363636363636307
2011-07-22,0.6595744680851119
2011-07-25,0.6521739130434896
2011-07-26,0.23913043478262203
2011-07-27,0.2558139534883888
2011-07-28,0.5476190476190539
2011-07-29,0.4571428571428647
2011-08-01,0.6481481481481455
2011-08-02,1.0
2011-08-03,1.0
2011-08-04,1.0
2011-08-05,1.0
2011-08-08,0.8861788617886224
2011-08-09,0.8205128205128304
2011-08-10,0.7983947119924564
2011-08-11,0.8477446960242553
2011-08-12,0.32137203166228334
2011-08-15,0.32262051915947
2011-08-16,0.2784636488340234
2011-08-17,0.17305268464835005
2011-08-18,0.0
2011-08-19,0.09733905579399484
2011-08-22,0.23012697860496692
2011-08-23,0.25609756097560704
2011-08-24,0.43859649122807254
2011-08-25,0.8064516129032464
2011-08-26,0.3404255319148842
2011-08-29,0.09090909090909277
2011-08-30,0.07017543859649068
2011-08-31,0.0
2011-09-01,0.0
2011-09-02,0.21428571428571766
2011-09-05,0.5679012345679043
2011-09-06,0.7976190476190507
2011-09-07,0.907216494845364
2011-09-08,1.0
2011-09-09,0.928571428571428
2011-09-13,0.6306306306306251
2011-09-14,0.48039215686274067
2011-09-15,0.26666666666667005
2011-09-16,0.0
2011-09-19,0.162393162393168
2011-09-20,0.3085106382978829
2011-09-21,0.36144578313254666
2011-09-22,0.5915492957746515
2011-09-23,1.0
2011-09-26,1.0
2011-09-27,1.0
2011-09-28,1.0
2011-09-29,1.0
2011-09-30,0.9726027397260267
2011-10-10,0.3405405405405407
2011-10-11,0.39303482587064253
2011-10-12,0.4479638009049728
2011-10-13,0.2173913043478224
2011-10-14,0.21634615384614966
2011-10-17,0.3749999999999954
2011-10-18,0.16666666666666452
2011-10-19,0.0
2011-10-20,0.7479224376731298
2011-10-21,0.7356948228882864
2011-10-24,0.7988338192419845
2011-10-25,0.8913738019169363
2011-10-26,0.9393939393939441
2011-10-27,0.03296703296703189
2011-10-28,0.033962264150942084
2011-10-31,0.018939393939395775
2011-11-01,0.0
2011-11-02,0.0
2011-11-03,0.0
2011-11-04,0.0
2011-11-07,0.0
2011-11-08,0.1279069767441823
2011-11-09,0.14102564102563703
2011-11-10,0.6374999999999975
2011-11-11,0.8559999999999973
2011-11-14,0.9925373134328324
2011-11-15,0.7973856209150268
2011-11-16,0.8203592814371233
2011-11-17,0.6598639455782322
2011-11-18,0.2546583850931684
2011-11-21,0.08333333333333666
2011-11-22,0.15094339622642203
2011-11-23,0.0520231213872865
2011-11-24,0.04663212435233447
2011-11-25,0.3410404624277475
2011-11-28,0.45736434108527574
2011-11-29,0.38461538461538564
2011-11-30,0.49504950495049715
2011-12-01,0.9016473340481552
2011-12-02,0.703231024414324
2011-12-05,0.7776820336062059
2011-12-06,0.8943415122684059
2011-12-07,0.9105173876166275
2011-12-08,0.6075880758807627
2011-12-09,0.745283018867926
2011-12-12,0.6705882352941238
2011-12-13,0.5882352941176536
2011-12-14,0.3818181818181774
2011-12-15,0.888888888888879
2011-12-16,0.854166666666648
2011-12-19,0.8039215686274316
2011-12-20,0.8039215686274352
2011-12-21,0.9215686274509839
2011-12-22,0.30769230769229833
2011-12-23,0.11290322580646454
2011-12-26,0.2714285714285851
2011-12-27,0.2250000000000042
2011-12-28,0.15584415584416084
2011-12-29,0.1538461538461575
2011-12-30,0.2962962962962954
2012-01-04,0.818181818181819
2012-01-05,0.8937007874015767
2012-01-06,0.9069767441860452
2012-01-09,1.0
2012-01-10,0.8745247148288988
2012-01-11,0.22499999999999656
2012-01-12,0.02631578947368343
2012-01-13,0.015209125475284191
2012-01-16,0.16451612903225715
2012-01-17,0.23905723905723683
2012-01-18,0.7103448275862071
2012-01-19,1.0
2012-01-20,1.0
2012-01-30,0.86792452830189
2012-01-31,0.8426966292134874
2012-02-01,0.43000000000000227
2012-02-02,0.15707995284654838
2012-02-03,0.2533208433790442
2012-02-06,0.2482804292530188
2012-02-07,0.2389681233619758
2012-02-08,0.5536655051113967
2012-02-09,0.8249641319942583
2012-02-10,0.4199359868170935
2012-02-13,0.4488002303016057
2012-02-14,0.3739729812264715
2012-02-15,0.1351351351351404
2012-02-16,0.0
2012-02-17,0.16923076923076943
2012-02-20,0.3749999999999901
2012-02-21,0.5454545454545232
2012-02-22,0.7441860465115995
2012-02-23,1.0
2012-02-24,1.0
2012-02-27,0.2999999999999743
2012-02-28,0.17142857142856752
2012-02-29,0.623376623376631
2012-03-01,0.6075949367088617
2012-03-02,0.5238095238095206
2012-03-05,0.7323943661971812
2012-03-06,0.8641975308641847
2012-03-07,0.3561643835616418
2012-03-08,0.45783132530120624
2012-03-09,0.4871794871795038
2012-03-12,0.36144578313254133
2012-03-13,0.1846153846153916
2012-03-14,0.48484848484848314
2012-03-15,0.09302325581394175
2012-03-16,0.09756097560973971
2012-03-19,0.24999999999998526
2012-03-20,0.314285714285713
2012-03-21,0.5200000000000015
2012-03-22,0.974358974358972
2012-03-23,1.0
2012-03-26,0.962500000000008
2012-03-27,0.9836956521739165
2012-03-28,0.9152542372881372
2012-03-29,0.9414062500000007
2012-03-30,0.9496644295302019
2012-04-05,0.9701492537313422
2012-04-06,0.7293814432989671
2012-04-09,0.7686567164179096
2012-04-10,0.4972375690607731
2012-04-11,0.38888888888888984
2012-04-12,0.09489051094890603
2012-04-13,0.22110552763819372
2012-04-16,0.18421052631579166
2012-04-17,0.27131782945736704
2012-04-18,0.4596774193548422
2012-04-19,0.6705882352941104
2012-04-20,0.5999999999999942
2012-04-23,0.312500000000002
2012-04-24,0.3205128205128232
2012-04-25,0.02500000000000215
2012-04-26,0.01910828025477898
2012-04-27,0.0
2012-05-02,0.0
2012-05-03,0.1514737835811341
2012-05-04,0.552679557834641
2012-05-07,0.6816695308578885
2012-05-08,0.8321625937051811
2012-05-09,0.9950630418668821
2012-05-10,0.8223378929104628
2012-05-11,0.5815243118955838
2012-05-14,0.4461538461538488
2012-05-15,0.7517482517482519
2012-05-16,0.6624472573839653
2012-05-17,0.7864077669902919
2012-05-18,0.6778242677824263
2012-05-21,0.7594936708860752
2012-05-22,0.10599078341014431
2012-05-23,0.09426229508197273
2012-05-24,0.06382978723404449
2012-05-25,0.343465045592708
2012-05-28,0.2914110429447872
2012-05-29,0.4896907216494862
2012-05-30,0.6500000000000014
2012-05-31,0.8787878787878809
2012-06-01,0.2958579881656822
2012-06-04,0.5398230088495567
2012-06-05,0.7035928143712563
2012-06-06,0.7018072289156613
2012-06-07,0.7071005917159737
2012-06-08,1.0
2012-06-11,0.7528517110266166
2012-06-12,0.31481481481481366
2012-06-13,0.22569444444444312
2012-06-14,0.11231884057971128
2012-06-15,0.0
2012-06-18,0.0418848167539251
2012-06-19,0.24999999999999117
2012-06-20,0.2727272727272669
2012-06-21,0.3684210526315708
2012-06-25,0.20192307692307607
2012-06-26,0.09999999999999916
2012-06-27,0.0
2012-06-28,0.026785714285712973
2012-06-29,0.02479338842975094
2012-07-02,0.47692307692307806
2012-07-03,0.7068965517241456
2012-07-04,0.9105691056910593
2012-07-05,0.9105691056910593
2012-07-06,0.9739130434782624
2012-07-09,0.9508196721311504
2012-07-10,0.9433962264150978
2012-07-11,0.6896551724137836
2012-07-12,0.7428571428571388
2012-07-13,0.8749999999999896
2012-07-16,0.711538461538449
2012-07-17,0.3521126760563303
2012-07-18,0.844357976653694
2012-07-19,0.8467432950191542
2012-07-20,0.8007812499999989
2012-07-23,0.767790262172285
2012-07-24,0.8830188679245302
2012-07-25,0.1494661921708188
2012-07-26,0.09634551495016686
2012-07-27,0.09385113268608436
2012-07-30,0.10034602076124582
2012-07-31,0.0
2012-08-01,0.0
2012-08-02,0.4592592592592553
2012-08-03,0.7202072538860064
2012-08-06,0.5840336134453782
2012-08-07,0.7156862745098026
2012-08-08,0.8026315789473725
2012-08-09,0.5041666666666691
2012-08-10,0.17600000000000343
2012-08-13,0.27691472886567153
2012-08-14,0.23193456149526612
2012-08-15,0.2161888366956555
2012-08-16,0.5883382883740081
2012-08-17,0.8843410216582165
2012-08-20,0.7822314703555024
2012-08-21,0.922377908422296
2012-08-22,0.7042801556420226
2012-08-23,0.4550898203592832
2012-08-24,0.4550898203592832
2012-08-27,0.6386138613861385
2012-08-28,0.31736526946107807
2012-08-29,0.424000000000004
2012-08-30,0.3011363636363635
2012-08-31,0.35602094240837806
2012-09-03,0.0909090909090931
2012-09-04,0.1136363636363662
2012-09-05,0.12500000000000308
2012-09-06,0.27777777777780127
2012-09-07,0.4000000000000184
2012-09-10,0.8333333333333425
2012-09-11,0.9466666666666741
2012-09-12,1.0
2012-09-13,1.0
2012-09-14,1.0
2012-09-17,1.0
2012-09-18,0.8695652173913024
2012-09-19,0.2857142857142843
2012-09-20,0.33333333333333054
2012-09-21,0.2773109243697485
2012-09-24,0.20833333333332946
2012-09-25,0.22727272727272388
2012-09-26,0.4901960784313688
2012-09-27,0.0
2012-09-28,0.012820512820517124
2012-10-08,0.009090909090912137
2012-10-09,0.3175675675675689
2012-10-10,0.317567567567571
2012-10-11,0.5217391304347901
2012-10-12,0.4311926605504623
2012-10-15,0.727272727272739
2012-10-16,0.16666666666668878
2012-10-17,0.3733333333333378
2012-10-18,0.42682926829268236
2012-10-19,0.3977272727272764
2012-10-22,0.38372093023254983
2012-10-23,0.5499999999999943
2012-10-24,0.2830188679245219
2012-10-25,0.6935483870967758
2012-10-26,0.8999999999999992
2012-10-29,0.7828947368421058
2012-10-30,0.6878612716762986
2012-10-31,0.6397849462365549
2012-11-01,0.21164021164020624
2012-11-02,0.0
2012-11-05,0.07567567567567482
2012-11-06,0.21808510638297962
2012-11-07,0.2807017543859682
2012-11-08,0.67460317460318
2012-11-09,1.0
2012-11-12,0.9726027397260184
2012-11-13,0.7333333333333156
2012-11-14,0.49333333333331797
2012-11-15,0.0
2012-11-16,0.0
2012-11-19,0.6594827586206872
2012-11-20,0.7111111111111119
2012-11-21,0.857615894039738
2012-11-22,1.0
2012-11-23,1.0
2012-11-26,0.39189189189189644
2012-11-27,0.3898305084745801
2012-11-28,0.05405405405405612
2012-11-29,0.11949685534591042
2012-11-30,0.12225705329153548
2012-12-03,0.2805755395683435
2012-12-04,0.21854304635761318
2012-12-05,0.892857142857141
2012-12-06,0.651933701657459
2012-12-07,0.6464088397790041
2012-12-10,0.7697841726618685
2012-12-11,0.7925925925925928
2012-12-12,0.3702290076335856
2012-12-13,0.43497757847533347
2012-12-14,0.5404411764705861
2012-12-17,0.20242914979757012
2012-12-18,0.21097046413502
2012-12-19,0.3676470588235296
2012-12-20,0.38461538461538525
2012-12-21,0.0
2012-12-24,0.0
2012-12-25,0.5847953216374284
2012-12-26,0.6134969325153387
2012-12-27,0.6134969325153387
2012-12-28,0.8849557522123919
2012-12-31,0.8928571428571404
2013-01-04,0.0
2013-01-07,0.35096846210560495
2013-01-08,0.5112545531906064
2013-01-09,0.5112545531906064
2013-01-10,0.5395061052401039
2013-01-11,1.0
2013-01-14,1.0
2013-01-15,0.6833333333333348
2013-01-16,0.7373271889400935
2013-01-17,0.7682926829268298
2013-01-18,0.45528455284552666
2013-01-21,0.34634146341463357
2013-01-22,0.479729729729728
2013-01-23,0.2377622377622366
2013-01-24,0.0349650349650379
2013-01-25,0.8512195121951244
2013-01-28,0.7049180327868857
2013-01-29,0.7209302325581401
2013-01-30,0.7948717948717948
2013-01-31,0.8394584139264979
2013-02-01,0.18072289156626548
2013-02-04,0.27130044843049494
2013-02-05,0.2545871559633031
2013-02-06,0.11111111111111115
2013-02-07,0.11111111111111115
2013-02-08,0.663316582914571
2013-02-18,0.5872093023255768
2013-02-19,0.46111111111111064
2013-02-20,0.7692307692307728
2013-02-21,0.8324022346368742
2013-02-22,0.34736842105263266
2013-02-25,0.2738589211618277
2013-02-26,0.2808510638297875
2013-02-27,0.2928870292887011
2013-02-28,0.09545454545454414
2013-03-01,0.24999999999999997
2013-03-04,0.4069767441860447
2013-03-05,0.6477272727272748
2013-03-06,0.3428571428571437
2013-03-07,0.3870967741935452
2013-03-08,0.21782178217821524
2013-03-11,0.22772277227722593
2013-03-12,0.010869565217392237
2013-03-13,0.018518518518520214
2013-03-14,0.8553719008264502
2013-03-15,0.9475806451612937
2013-03-18,0.9509433962264184
2013-03-19,1.0
2013-03-20,1.0
2013-03-21,0.20992366412213595
2013-03-22,0.4523809523809539
2013-03-25,0.4112903225806449
2013-03-26,0.3779527559055117
2013-03-27,0.3779527559055117
2013-03-28,0.8275862068965457
2013-03-29,0.0
2013-04-01,0.08029197080292559
2013-04-02,0.09243697478992297
2013-04-03,0.09243697478992297
2013-04-08,0.09243697478992297
2013-04-09,0.1466666666666765
2013-04-10,0.0
2013-04-11,0.0
2013-04-12,0.0
2013-04-15,0.6733067729083644
2013-04-16,0.9037433155080189
2013-04-17,1.0
2013-04-18,1.0
2013-04-19,1.0
2013-04-22,0.0
2013-04-23,0.0
2013-04-24,0.0
2013-04-25,0.0
2013-04-26,0.0
2013-05-02,
2013-05-03,
2013-05-06,
2013-05-07,
2013-05-08,
2013-05-09,1.0
2013-05-10,1.0
2013-05-13,1.0
2013-05-14,1.0
2013-05-15,1.0
2013-05-16,0.6559571619812589
2013-05-17,0.643908969210174
2013-05-20,0.07362784471218307
2013-05-21,0.0
2013-05-22,0.04755784061696665
2013-05-23,0.07101727447216895
2013-05-24,0.07226562500000008
2013-05-27,0.43023255813952954
2013-05-28,0.8604651162790798
2013-05-29,0.0
2013-05-30,0.0
2013-05-31,0.0
2013-06-03,0.0
2013-06-04,0.0
2013-06-05,
2013-06-06,1.0
2013-06-07,1.0
2013-06-13,1.0
2013-06-14,1.0
2013-06-17,1.0
2013-06-18,1.0
2013-06-19,1.0
2013-06-20,0.6782077393075329
2013-06-21,0.6782077393075329
2013-06-24,0.022403258655802612
2013-06-25,0.4110429447852745
2013-06-26,0.3975460122699382
2013-06-27,0.4931506849315074
2013-06-28,0.4931506849315074
2013-07-01,0.9671641791044802
2013-07-02,0.0
2013-07-03,0.0
2013-07-04,0.0
2013-07-05,0.0
2013-07-08,0.0
2013-07-09,
2013-07-10,
2013-07-11,
2013-07-12,
2013-07-15,
2013-07-16,
2013-07-17,
2013-07-18,
2013-07-19,
2013-07-22,
2013-07-23,
2013-07-24,1.0
2013-07-25,1.0
2013-07-26,1.0
2013-07-29,1.0
2013-07-30,1.0
2013-07-31,0.0
2013-08-01,0.0
2013-08-02,0.0
2013-08-05,0.0
2013-08-06,0.0
2013-08-07,
2013-08-08,
2013-08-09,
2013-08-12,
2013-08-13,
2013-08-14,1.0
2013-08-15,1.0
2013-08-16,1.0
2013-08-19,1.0
2013-08-20,1.0
2013-08-21,0.0
2013-08-22,0.828779599271403
2013-08-23,0.828779599271403
2013-08-26,0.828779599271403
2013-08-27,0.828779599271403
2013-08-28,1.0
2013-08-29,0.0
2013-08-30,0.0
2013-09-02,0.13637539320089198
2013-09-03,0.3896885460497296
2013-09-04,0.5660622569370379
2013-09-05,1.0
2013-09-06,1.0
2013-09-09,0.891849529780563
2013-09-10,0.5626959247648888
2013-09-11,0.12454212454212404
2013-09-12,0.1309090909090915
2013-09-13,0.1309090909090915
2013-09-16,0.14968814968815056
2013-09-17,0.2656826568265699
2013-09-18,1.0
2013-09-23,1.0
2013-09-24,1.0
2013-09-25,1.0
2013-09-26,1.0
2013-09-27,0.7575107296137338
2013-09-30,0.45242537313432823
2013-10-08,0.0
2013-10-09,0.0
2013-10-10,0.0
2013-10-11,0.0
2013-10-14,0.0
2013-10-15,
2013-10-16,
2013-10-17,
2013-10-18,
2013-10-21,
2013-10-22,
2013-10-23,
2013-10-24,
2013-10-25,
2013-10-28,
2013-10-29,
2013-10-30,
2013-10-31,
2013-11-01,1.0
2013-11-04,1.0
2013-11-05,1.0
2013-11-06,1.0
2013-11-07,1.0
2013-11-08,0.0
2013-11-11,0.0
2013-11-12,0.0
2013-11-13,0.0
2013-11-14,0.0
2013-11-15,1.0
2013-11-18,1.0
2013-11-19,1.0
2013-11-20,1.0
2013-11-21,1.0
2013-11-22,0.0
2013-11-25,0.0
2013-11-26,0.0
2013-11-27,0.0
2013-11-28,0.0
2013-11-29,
2013-12-02,
2013-12-03,
2013-12-04,
2013-12-05,
2013-12-06,
2013-12-09,1.0
2013-12-10,1.0
2013-12-11,1.0
2013-12-12,1.0
2013-12-13,1.0
2013-12-16,0.9944134078212292
2013-12-17,0.0
2013-12-18,0.0
2013-12-19,0.0
2013-12-20,0.0
2013-12-23,0.0
2013-12-24,
2013-12-25,
2013-12-26,
2013-12-27,1.0
2013-12-30,1.0
2013-12-31,1.0
2014-01-02,1.0
2014-01-03,1.0
2014-01-06,0.0
2014-01-07,0.0
2014-01-08,0.0
2014-01-09,0.434540389972145
2014-01-10,0.434540389972145
2014-01-13,1.0
2014-01-14,1.0
2014-01-15,1.0
2014-01-16,0.0
2014-01-17,0.0
2014-01-20,0.0
2014-01-21,0.0
2014-01-22,0.0
2014-01-23,
2014-01-24,
2014-01-27,
2014-01-28,
2014-01-29,
2014-01-30,
2014-02-07,
2014-02-10,
2014-02-11,
2014-02-12,
2014-02-13,
2014-02-14,
2014-02-17,
2014-02-18,
2014-02-19,1.0
2014-02-20,1.0
2014-02-21,1.0
2014-02-24,1.0
2014-02-25,1.0
2014-02-26,0.0
2014-02-27,0.0
2014-02-28,0.0
2014-03-03,0.0
2014-03-04,0.0
2014-03-05,
2014-03-06,
2014-03-07,
2014-03-10,
2014-03-11,
2014-03-12,
2014-03-13,
2014-03-14,
2014-03-17,
2014-03-18,
2014-03-19,
2014-03-20,1.0
2014-03-21,1.0
2014-03-24,1.0
2014-03-25,1.0
2014-03-26,1.0
2014-03-27,0.755784061696658
2014-03-28,0.0
2014-03-31,0.21095334685598358
2014-04-01,0.21095334685598358
2014-04-02,0.21095334685598358
2014-04-03,0.26130653266331644
2014-04-04,1.0
2014-04-08,0.0
2014-04-09,0.0
2014-04-10,0.0
2014-04-11,0.0
2014-04-14,0.0
2014-04-15,
2014-04-16,
2014-04-17,
2014-04-18,
2014-04-21,
2014-04-22,
2014-04-23,
2014-04-24,
2014-04-25,
2014-04-28,
2014-04-29,
2014-04-30,
2014-05-05,
2014-05-06,
2014-05-07,
2014-05-08,
2014-05-09,
2014-05-12,
2014-05-13,
2014-05-14,
2014-05-15,
2014-05-16,
2014-05-19,
2014-05-20,
2014-05-21,
2014-05-22,
2014-05-23,
2014-05-26,
2014-05-27,
2014-05-28,
2014-05-29,
2014-05-30,
2014-06-03,
2014-06-04,
2014-06-05,
2014-06-06,
2014-06-09,
2014-06-10,
2014-06-11,
2014-06-12,
2014-06-13,
2014-06-16,
2014-06-17,
2014-06-18,
2014-06-19,
2014-06-20,
2014-06-23,
2014-06-24,
2014-06-25,
2014-06-26,
2014-06-27,
2014-06-30,
2014-07-01,
2014-07-02,
2014-07-03,
2014-07-04,
2014-07-07,
2014-07-08,
2014-07-09,
2014-07-10,
2014-07-11,
2014-07-14,
2014-07-15,
2014-07-16,
2014-07-17,
2014-07-18,
2014-07-21,
2014-07-22,
2014-07-23,
2014-07-24,
2014-07-25,
2014-07-28,
2014-07-29,
2014-07-30,
2014-07-31,
2014-08-01,
2014-08-04,
2014-08-05,
2014-08-06,
2014-08-07,
2014-08-08,
2014-08-11,
2014-08-12,
2014-08-13,
2014-08-14,
2014-08-15,
2014-08-18,
2014-08-19,
2014-08-20,
2014-08-21,
2014-08-22,
2014-08-25,
2014-08-26,
2014-08-27,
2014-08-28,
2014-08-29,1.0
2014-09-01,1.0
2014-09-02,1.0
2014-09-03,1.0
2014-09-04,1.0
2014-09-05,0.7802585193889547
2014-09-09,0.5499412455934194
2014-09-10,0.44183313748531095
2014-09-11,0.14886164623467568
2014-09-12,0.0
2014-09-15,0.0
2014-09-16,0.685990338164252
2014-09-17,0.8819875776397529
2014-09-18,0.4805414551607449
2014-09-19,0.4565916398713834
2014-09-22,0.4565916398713834
2014-09-23,0.0
2014-09-24,0.0
2014-09-25,0.0
2014-09-26,0.0
2014-09-29,0.0
2014-09-30,
2014-10-08,1.0
2014-10-09,1.0
2014-10-10,1.0
2014-10-13,1.0
2014-10-14,1.0
2014-10-15,0.06333333333333345
2014-10-16,0.4379999999999999
2014-10-17,0.4379999999999999
2014-10-20,0.4379999999999999
2014-10-21,0.4019999999999998
2014-10-22,0.9440993788819874
2014-10-23,0.3188854489164081
2014-10-24,0.5407098121085592
2014-10-27,0.5407098121085592
2014-10-28,0.5618221258134487
2014-10-29,0.33839479392624733
2014-10-30,0.6023166023166028
2014-10-31,0.0
2014-11-03,0.0
2014-11-04,0.0
2014-11-05,0.0
2014-11-06,0.0
2014-11-07,1.0
2014-11-10,1.0
2014-11-11,1.0
2014-11-12,1.0
2014-11-13,1.0
2014-11-14,0.8049886621315191
2014-11-17,0.6781292984869324
2014-11-18,0.4112792297111421
2014-11-19,0.03851444291609364
2014-11-20,0.0
2014-11-21,0.0
2014-11-24,0.0
2014-11-25,0.11281070745697942
2014-11-26,0.23412698412698557
2014-11-27,0.263392857142859
2014-11-28,0.2757009345794406
2014-12-01,1.0
2014-12-02,0.016666666666675167
2014-12-03,0.016666666666675167
2014-12-04,0.016666666666675167
2014-12-05,0.8384991115335342
2014-12-08,0.837971096158307
2014-12-09,0.9998793693985863
2014-12-10,0.9998793693985863
2014-12-11,0.9998793693985863
2014-12-12,0.0
2014-12-15,0.0
2014-12-16,0.0
2014-12-17,0.0
2014-12-18,0.4078212290502794
2014-12-19,0.9967637540453066
2014-12-22,1.0
2014-12-23,1.0
2014-12-24,1.0
2014-12-25,0.5867924528301898
2014-12-26,0.4188679245283032
2014-12-29,0.0018867924528316964
2014-12-30,0.05197132616487275
2014-12-31,0.05197132616487275
2015-01-05,0.08554572271386139
2015-01-06,0.11599999999999616
2015-01-07,1.0
2015-01-08,0.0
2015-01-09,0.0
2015-01-12,0.0
2015-01-13,0.0
2015-01-14,0.0
2015-01-15,1.0
2015-01-16,1.0
2015-01-19,1.0
2015-01-20,1.0
2015-01-21,1.0
2015-01-22,1.0
2015-01-23,1.0
2015-01-26,0.6941624365482238
2015-01-27,0.6941624365482238
2015-01-28,0.48984771573604086
2015-01-29,0.278534031413613
2015-01-30,0.0
2015-02-02,0.24444444444444435
2015-02-03,0.24444444444444435
2015-02-04,0.29464285714285715
2015-02-05,0.4647887323943658
2015-02-06,1.0
2015-02-09,0.0
2015-02-10,0.0
2015-02-11,0.0
2015-02-12,0.0
2015-02-13,0.3864229765013053
2015-02-16,1.0
2015-02-17,1.0
2015-02-25,1.0
2015-02-26,1.0
2015-02-27,0.7382304530118924
2015-03-02,0.8075745194442077
2015-03-03,0.8711842106588743
2015-03-04,0.8727182051838486
2015-03-05,0.8624199202484233
2015-03-06,1.0
2015-03-09,1.0
2015-03-10,1.0
2015-03-11,1.0
2015-03-12,1.0
2015-03-13,0.5696517412935328
2015-03-16,0.6778398510242086
2015-03-17,0.6704761904761911
2015-03-18,0.3975346687211108
2015-03-19,0.2829403606102649
2015-03-20,0.42666666666666847
2015-03-23,0.17750439367311302
2015-03-24,0.07262569832402249
2015-03-25,0.10038610038610012
2015-03-26,0.2111368909512736
2015-03-27,0.17675544794188527
2015-03-30,0.2192192192192151
2015-03-31,0.5362318840579641
2015-04-01,0.7142857142857172
2015-04-02,0.3858695652173963
2015-04-03,0.19371727748691805
2015-04-07,0.5564516129032296
2015-04-08,0.4477124183006561
2015-04-09,0.32371794871794984
2015-04-10,0.40239043824701315
2015-04-13,0.46330275229357837
2015-04-14,0.0
2015-04-15,0.026315789473679543
2015-04-16,0.031413612565439175
2015-04-17,0.0326086956521678
2015-04-20,0.10526315789472879
2015-04-21,0.5405405405405039
2015-04-22,0.2295081967213064
2015-04-23,0.16091954022988506
2015-04-24,0.1147540983606563
2015-04-27,0.0
2015-04-28,0.39130434782609047
2015-04-29,0.5826086956521764
2015-04-30,0.7661870503597134
2015-05-04,0.911854103343464
2015-05-05,1.0
2015-05-06,0.9241379310344829
2015-05-07,0.9153846153846159
2015-05-08,0.7607655502392378
2015-05-11,0.7237569060773529
2015-05-12,0.8529411764705913
2015-05-13,0.930000000000002
2015-05-14,0.8450363196125903
2015-05-15,0.9150943396226391
2015-05-18,0.7723004694835658
2015-05-19,0.30099502487562035
2015-05-20,0.09701492537313268
2015-05-21,0.10655737704918031
2015-05-22,0.09917355371901097
2015-05-25,0.20833333333333795
2015-05-26,0.6186046511627947
2015-05-27,0.5833333333333353
2015-05-28,0.4554794520547955
2015-05-29,0.24069478908188655
2015-06-01,0.1549125120273683
2015-06-02,0.0
2015-06-03,0.002597132765426816
2015-06-04,0.0679140758351614
2015-06-05,0.31518457030161745
2015-06-08,0.23446112276106548
2015-06-09,0.34761904761904483
2015-06-10,0.3964757709251062
2015-06-11,0.29955947136563565
2015-06-12,0.0792951541850197
2015-06-15,0.16822429906541686
2015-06-16,0.7061224489795933
2015-06-17,0.7073170731707346
2015-06-18,0.8579545454545465
2015-06-19,1.0
2015-06-23,1.0
2015-06-24,0.8366197183098587
2015-06-25,0.872527472527472
2015-06-26,0.830903790087463
2015-06-29,0.830903790087463
2015-06-30,0.3935860058309032
2015-07-01,0.399408284023669
2015-07-02,0.042553191489362104
2015-07-03,0.032258064516128504
2015-07-06,0.032258064516128504
2015-07-07,0.5216400911161735
2015-07-08,0.4851694915254231
2015-07-09,0.846975088967971
2015-07-10,0.7811447811447811
2015-07-13,0.8115942028985507
2015-07-14,0.6017543859649123
2015-07-15,0.7086776859504135
2015-07-16,0.24365482233502486
2015-07-17,0.22482435597189615
2015-07-20,0.0
2015-07-21,0.0
2015-07-22,0.3545232273838635
2015-07-23,0.49828178694158276
2015-07-24,0.7172131147541029
2015-07-27,0.7201646090534995
2015-07-28,0.7383966244725707
2015-07-29,0.15384615384615366
2015-07-30,0.2269938650306746
2015-07-31,0.038888888888889445
2015-08-03,0.08379888268156511
2015-08-04,0.12280701754386036
2015-08-05,0.4404761904761928
2015-08-06,0.6758620689655173
2015-08-07,1.0
2015-08-10,1.0
2015-08-11,0.9675675675675682
2015-08-12,0.9735682819383265
2015-08-13,0.5368421052631582
2015-08-14,0.5056179775280895
2015-08-17,0.26241134751773
2015-08-18,0.3878787878787877
2015-08-19,0.2811387900355872
2015-08-20,0.6529680365296808
2015-08-21,0.5669642857142861
2015-08-24,0.8833333333333329
2015-08-25,0.8779069767441853
2015-08-26,0.865853658536585
2015-08-27,0.47560975609755984
2015-08-28,0.41052631578947285
2015-08-31,0.5151515151515149
2015-09-01,0.22772822574960583
2015-09-02,0.2970864681366166
2015-09-07,0.5659918896837083
2015-09-08,0.7143249483668423
2015-09-09,0.5249123884177439
2015-09-10,0.7340277491649861
2015-09-11,0.5005590745260047
2015-09-14,0.2646677343742176
2015-09-15,0.060327664842239004
2015-09-16,0.07183908045976944
2015-09-17,0.0
2015-09-18,0.0
2015-09-21,0.0
2015-09-22,0.08670520231213992
2015-09-23,0.35195530726257124
2015-09-24,0.8581818181818197
2015-09-25,0.9079601990049758
2015-09-28,0.9759358288770051
2015-09-29,0.7829977628635342
2015-09-30,0.6331236897274634
2015-10-08,0.3224999999999995
2015-10-09,0.0
2015-10-12,0.0
2015-10-13,0.0
2015-10-14,0.0
2015-10-15,0.0
2015-10-16,0.0
2015-10-19,0.4743589743589791
2015-10-20,0.4743589743589791
2015-10-21,0.4743589743589791
2015-10-22,0.5606060606060542
2015-10-23,0.5606060606060542
2015-10-26,0.0
2015-10-27,0.0
2015-10-28,0.0
2015-10-29,0.0
2015-10-30,0.0
2015-11-02,
2015-11-03,
2015-11-04,
2015-11-05,
2015-11-06,
2015-11-09,
2015-11-10,
2015-11-11,
2015-11-12,
2015-11-13,
2015-11-16,
2015-11-17,
2015-11-18,
2015-11-19,
2015-11-20,1.0
2015-11-23,1.0
2015-11-24,1.0
2015-11-25,1.0
2015-11-26,1.0
2015-11-27,0.0
2015-11-30,0.0
2015-12-01,0.0
2015-12-02,0.0
2015-12-03,0.0
2015-12-04,
2015-12-07,
2015-12-08,
2015-12-09,
2015-12-10,
2015-12-11,
2015-12-14,
2015-12-15,
2015-12-16,
2015-12-17,
2015-12-18,
2015-12-21,
2015-12-22,
2015-12-23,
2015-12-24,
2015-12-25,
2015-12-28,
2015-12-29,
2015-12-30,
2015-12-31,
2016-01-04,1.0
2016-01-05,1.0
2016-01-06,1.0
2016-01-07,1.0
2016-01-08,1.0
2016-01-11,1.0
2016-01-12,0.9148471615720515
2016-01-13,0.6550218340611348
2016-01-14,0.4753086419753074
2016-01-15,0.4753086419753074
2016-01-18,0.11917098445596033
2016-01-19,0.09913793103448454
2016-01-20,0.6949152542372886
2016-01-21,0.6446540880503147
2016-01-22,0.6446540880503147
2016-01-25,0.5515151515151506
2016-01-26,0.8426966292134819
2016-01-27,0.6655172413793068
2016-01-28,0.7651515151515116
2016-01-29,0.8115501519756808
2016-02-01,0.7216216216216196
2016-02-02,0.2499999999999982
2016-02-03,0.17452830188679205
2016-02-04,0.12428298279158669
2016-02-05,0.0
2016-02-15,0.11894273127753348
2016-02-16,0.1320293398533017
2016-02-17,0.21259842519685201
2016-02-18,0.36986301369863356
2016-02-19,0.3085714285714301
2016-02-22,0.0
2016-02-23,0.0
2016-02-24,0.0
2016-02-25,0.0
2016-02-26,0.0
2016-02-29,1.0
2016-03-01,1.0
2016-03-02,1.0
2016-03-03,1.0
2016-03-04,1.0
2016-03-07,0.9920000000000012
2016-03-08,0.0
2016-03-09,0.0
2016-03-10,0.0
2016-03-11,0.0
2016-03-14,0.0
2016-03-15,
2016-03-16,
2016-03-17,
2016-03-18,
2016-03-21,
2016-03-22,
2016-03-23,
2016-03-24,
2016-03-25,
2016-03-28,
2016-03-29,
2016-03-30,
2016-03-31,1.0
2016-04-01,1.0
2016-04-05,1.0
2016-04-06,1.0
2016-04-07,1.0
2016-04-08,0.610714285714285
2016-04-11,0.2428571428571413
2016-04-12,0.0
2016-04-13,0.4573643410852713
2016-04-14,0.4584139264990324
2016-04-15,0.6466942148760333
2016-04-18,0.8899676375404536
2016-04-19,1.0
2016-04-20,0.978461538461538
2016-04-21,0.9822784810126579
2016-04-22,0.8455284552845517
2016-04-25,0.5597014925373125
2016-04-26,0.5298507462686548
2016-04-27,0.1994382022471906
2016-04-28,0.0
2016-04-29,0.0
2016-05-03,0.0
2016-05-04,0.0
2016-05-05,0.02401248037196423
2016-05-06,0.030435007366435108
2016-05-09,0.03368884509012327
2016-05-10,1.0
2016-05-11,1.0
2016-05-12,0.0
2016-05-13,0.0
2016-05-16,0.0
2016-05-17,0.0
2016-05-18,0.18181818181819226
2016-05-19,1.0
2016-05-20,1.0
2016-05-23,1.0
2016-05-24,1.0
2016-05-25,1.0
2016-05-26,1.0
2016-05-27,1.0
2016-05-30,1.0
2016-05-31,0.8181818181818187
2016-06-01,0.37137681159420244
2016-06-02,0.4254966887417229
2016-06-03,0.25207296849087935
2016-06-06,0.1869488536155213
2016-06-07,0.22698072805139283
2016-06-08,0.48181818181818337
2016-06-13,0.0
2016-06-14,0.0
2016-06-15,0.0
2016-06-16,0.0
2016-06-17,0.0
2016-06-20,0.11904761904761296
2016-06-21,0.12195121951218911
2016-06-22,1.0
2016-06-23,1.0
2016-06-24,1.0
2016-06-27,0.0
2016-06-28,0.8387096774193654
2016-06-29,0.8387096774193654
2016-06-30,0.8387096774193654
2016-07-01,0.9305555555555597
2016-07-04,1.0
2016-07-05,0.9035087719298179
2016-07-06,0.9035087719298179
2016-07-07,0.9035087719298179
2016-07-08,0.5438596491228003
2016-07-11,0.0
2016-07-12,0.5231481481481498
2016-07-13,0.5231481481481498
2016-07-14,0.5231481481481498
2016-07-15,0.6457142857142885
2016-07-18,1.0
2016-07-19,0.4385964912280683
2016-07-20,0.4385964912280683
2016-07-21,0.6915662650602395
2016-07-22,0.6915662650602395
2016-07-25,0.45060240963855347
2016-07-26,0.6515679442508714
2016-07-27,0.6515679442508714
2016-07-28,0.0
2016-07-29,0.21798365122615923
2016-08-01,0.2996254681647954
2016-08-02,0.2996254681647954
2016-08-03,0.2996254681647954
2016-08-04,1.0
2016-08-05,0.0
2016-08-08,0.0
2016-08-09,0.0
2016-08-10,0.0
2016-08-11,0.0
2016-08-12,
2016-08-15,
2016-08-16,
2016-08-17,
2016-08-18,1.0
2016-08-19,1.0
2016-08-22,1.0
2016-08-23,1.0
2016-08-24,1.0
2016-08-25,0.0
2016-08-26,0.0
2016-08-29,0.0
2016-08-30,0.0
2016-08-31,0.0
2016-09-01,
2016-09-02,
2016-09-05,
2016-09-06,
2016-09-07,1.0
2016-09-08,1.0
2016-09-09,1.0
2016-09-12,1.0
2016-09-13,1.0
2016-09-14,0.8630806845965764
2016-09-19,0.6430317848410757
2016-09-20,0.5092348284960417
2016-09-21,0.21108179419524958
2016-09-22,0.0
2016-09-23,0.18020304568527828
2016-09-26,0.2335526315789461
2016-09-27,0.24149659863945486
2016-09-28,0.5703125000000002
2016-09-29,0.8295454545454549
2016-09-30,0.4261363636363647
2016-10-10,0.4261363636363647
2016-10-11,0.5136986301369875
2016-10-12,0.0
2016-10-13,0.0
2016-10-14,0.0
2016-10-17,0.0
2016-10-18,0.0
2016-10-19,
2016-10-20,
2016-10-21,
2016-10-24,
2016-10-25,
2016-10-26,
2016-10-27,
2016-10-28,
2016-10-31,
2016-11-01,
2016-11-02,
2016-11-03,
2016-11-04,
2016-11-07,
2016-11-08,
2016-11-09,1.0
2016-11-10,1.0
2016-11-11,1.0
2016-11-14,1.0
2016-11-15,1.0
2016-11-16,0.5386819484240695
2016-11-17,0.2148997134670486
2016-11-18,0.0
2016-11-21,0.0
2016-11-22,0.0
2016-11-23,0.0
2016-11-24,0.0
2016-11-25,
2016-11-28,1.0
2016-11-29,1.0
2016-11-30,1.0
2016-12-01,1.0
2016-12-02,1.0
2016-12-05,1.0
2016-12-06,1.0
2016-12-07,1.0
2016-12-08,1.0
2016-12-09,0.975000000000002
2016-12-12,0.5084745762711844
2016-12-13,0.822629969418959
2016-12-14,0.870535714285714
2016-12-15,0.8728070175438594
2016-12-16,0.8879668049792525
2016-12-19,1.0
2016-12-20,0.48393574297188735
2016-12-21,0.20637898686679199
2016-12-22,0.10677966101694938
2016-12-23,0.05729166666666568
2016-12-26,0.0
2016-12-27,0.0
2016-12-28,0.11417322834645338
2016-12-29,0.1835443037974626
2016-12-30,0.11372549019607434
2017-01-03,0.3333333333333264
2017-01-04,0.5179282868525849
2017-01-05,0.5567765567765559
2017-01-06,0.6412698412698403
2017-01-09,1.0
2017-01-10,0.9631336405529984
2017-01-11,0.9607843137254933
2017-01-12,0.9537572254335294
2017-01-13,0.5088495575221264
2017-01-16,0.3162790697674419
2017-01-17,0.5304054054054049
2017-01-18,0.38515901060070606
2017-01-19,0.2202970297029696
2017-01-20,0.4094707520891352
2017-01-23,0.5577889447236157
2017-01-24,0.35372340425531706
2017-01-25,0.2885032537960936
2017-01-26,0.5382716049382713
2017-02-03,0.40712468193384266
2017-02-06,0.1880530973451345
2017-02-07,0.1793248945147699
2017-02-08,0.23097826086956808
2017-02-09,0.0
2017-02-10,0.0
2017-02-13,0.4140435835351088
2017-02-14,0.6025974025974001
2017-02-15,0.7477313974591633
2017-02-16,0.9183673469387736
2017-02-17,1.0
2017-02-20,0.7357259380097881
2017-02-21,0.6467661691542294
2017-02-22,0.39772727272727565
2017-02-23,0.196172248803831
2017-02-24,0.0
2017-02-27,0.31043256997455526
2017-02-28,0.49425287356321823
2017-03-01,0.5733333333333291
2017-03-02,0.4299999999999978
2017-03-03,0.6840336134453768
2017-03-06,0.5219780219780201
2017-03-07,0.42197802197802126
2017-03-08,0.5341880341880345
2017-03-09,0.7978436657681942
2017-03-10,0.380952380952381
2017-03-13,0.7635467980295593
2017-03-14,0.541958041958043
2017-03-15,0.4315068493150701
2017-03-16,0.4039497307001826
2017-03-17,0.41512915129151523
2017-03-20,0.03386809269162352
2017-03-21,0.29300567107750664
2017-03-22,0.3075396825396833
2017-03-23,0.2651072124756334
2017-03-24,0.3493449781659398
2017-03-27,0.5992509363295867
2017-03-28,0.27210884353741027
2017-03-29,0.7129629629629619
2017-03-30,0.684444444444442
2017-03-31,0.5220883534136489
2017-04-05,0.5909090909090849
2017-04-06,0.32022471910112366
2017-04-07,0.0
2017-04-10,0.0
2017-04-11,0.0
2017-04-12,0.5112907123889365
2017-04-13,0.7083713175526956
2017-04-14,1.0
2017-04-17,1.0
2017-04-18,1.0
2017-04-19,0.0
2017-04-20,0.0
2017-04-21,0.0
2017-04-24,0.0
2017-04-25,0.0
2017-04-26,
2017-04-27,
2017-04-28,
2017-05-02,1.0
2017-05-03,1.0
2017-05-04,1.0
2017-05-05,1.0
2017-05-08,1.0
2017-05-09,0.2121212121212109
2017-05-10,0.0
2017-05-11,0.0
2017-05-12,0.4551886792452826
2017-05-15,0.6309904153354631
2017-05-16,0.9077212806026371
2017-05-17,1.0
2017-05-18,1.0
2017-05-19,0.6497277676950998
2017-05-22,0.2831215970961883
2017-05-23,0.1252268602540814
2017-05-24,0.1252268602540814
2017-05-25,0.0
2017-05-26,0.0
2017-05-31,0.0
2017-06-01,0.0
2017-06-02,0.0
2017-06-05,
2017-06-06,
2017-06-07,
2017-06-08,
2017-06-09,
2017-06-12,
2017-06-13,
2017-06-14,
2017-06-15,
2017-06-16,
2017-06-19,
2017-06-20,
2017-06-21,
2017-06-22,
2017-06-23,
2017-06-26,
2017-06-27,
2017-06-28,
2017-06-29,
2017-06-30,
2017-07-03,
2017-07-04,
2017-07-05,
2017-07-06,
2017-07-07,
2017-07-10,
2017-07-11,
2017-07-12,
2017-07-13,
2017-07-14,
2017-07-17,
2017-07-18,
2017-07-19,
2017-07-20,
2017-07-21,
2017-07-24,
2017-07-25,
2017-07-26,
2017-07-27,
2017-07-28,
2017-07-31,
2017-08-01,
2017-08-02,
2017-08-03,
2017-08-04,
2017-08-07,
2017-08-08,1.0
2017-08-09,1.0
2017-08-10,1.0
2017-08-11,1.0
2017-08-14,1.0
2017-08-15,0.0
2017-08-16,0.0
2017-08-17,0.0
2017-08-18,0.0
2017-08-21,0.0
2017-08-22,
2017-08-23,
2017-08-24,
2017-08-25,
2017-08-28,
2017-08-29,
2017-08-30,
2017-08-31,
2017-09-01,
2017-09-04,
2017-09-05,
2017-09-06,
2017-09-07,
2017-09-08,
2017-09-11,
2017-09-12,
2017-09-13,
2017-09-14,
2017-09-15,
2017-09-18,
2017-09-19,
2017-09-20,
2017-09-21,
2017-09-22,
2017-09-25,
2017-09-26,
2017-09-27,
2017-09-28,
2017-09-29,
2017-10-09,
2017-10-10,
2017-10-11,
2017-10-12,
2017-10-13,
2017-10-16,
2017-10-17,
2017-10-18,
2017-10-19,
2017-10-20,
2017-10-23,
2017-10-24,
2017-10-25,
2017-10-26,
2017-10-27,
2017-10-30,
2017-10-31,
2017-11-01,
2017-11-02,
2017-11-03,
2017-11-06,
2017-11-07,
2017-11-08,
2017-11-09,
2017-11-10,
2017-11-13,
2017-11-14,
2017-11-15,
2017-11-16,
2017-11-17,
2017-11-20,
2017-11-21,
2017-11-22,
2017-11-23,
2017-11-24,
2017-11-27,
2017-11-28,
2017-11-29,
2017-11-30,
2017-12-01,
2017-12-04,
2017-12-05,
2017-12-06,
2017-12-07,
2017-12-08,
2017-12-11,
2017-12-12,
2017-12-13,
2017-12-14,
2017-12-15,
2017-12-18,
2017-12-19,
2017-12-20,
2017-12-21,
2017-12-22,
2017-12-25,
2017-12-26,
2017-12-27,
2017-12-28,
2017-12-29,
2018-01-02,
2018-01-03,
2018-01-04,
2018-01-05,
2018-01-08,
2018-01-09,
2018-01-10,
2018-01-11,
2018-01-12,
2018-01-15,
2018-01-16,
2018-01-17,
2018-01-18,
2018-01-19,
2018-01-22,
2018-01-23,
2018-01-24,
2018-01-25,
2018-01-26,
2018-01-29,
2018-01-30,
2018-01-31,
2018-02-01,
2018-02-02,
2018-02-05,
2018-02-06,
2018-02-07,
2018-02-08,
2018-02-09,
2018-02-12,
2018-02-13,
2018-02-14,
2018-02-22,
2018-02-23,
2018-02-26,
2018-02-27,
2018-02-28,
2018-03-01,
2018-03-02,
2018-03-05,
2018-03-06,
2018-03-07,
2018-03-08,
2018-03-09,
2018-03-12,
2018-03-13,
2018-03-14,
2018-03-15,
2018-03-16,
2018-03-19,
2018-03-20,
2018-03-21,
2018-03-22,
2018-03-23,
2018-03-26,
2018-03-27,
2018-03-28,
2018-03-29,
2018-03-30,
2018-04-02,
2018-04-03,
2018-04-04,
2018-04-09,
2018-04-10,
2018-04-11,
2018-04-12,
2018-04-13,
2018-04-16,
2018-04-17,
2018-04-18,
2018-04-19,
2018-04-20,
2018-04-23,
2018-04-24,
2018-04-25,
2018-04-26,
2018-04-27,
2018-05-02,
2018-05-03,
2018-05-04,
2018-05-07,
2018-05-08,
2018-05-09,
2018-05-10,
2018-05-11,
2018-05-14,
2018-05-15,
2018-05-16,
2018-05-17,
2018-05-18,
2018-05-21,
2018-05-22,
2018-05-23,
2018-05-24,
2018-05-25,
2018-05-28,
2018-05-29,
2018-05-30,
2018-05-31,
2018-06-01,
2018-06-04,
2018-06-05,
2018-06-06,
2018-06-07,
2018-06-08,
2018-06-11,
2018-06-12,
2018-06-13,
2018-06-14,
2018-06-15,
2018-06-19,
2018-06-20,
2018-06-21,
2018-06-22,
2018-06-25,
2018-06-26,
2018-06-27,
2018-06-28,
2018-07-16,1.0
2018-07-17,1.0
2018-07-18,1.0
2018-07-19,1.0
2018-07-20,1.0
2018-07-23,0.8684807256235827
2018-07-24,0.7734806629834251
2018-07-25,0.7924050632911395
2018-07-26,0.5905044510385777
2018-07-27,0.32081911262798685
2018-07-30,0.41250000000000075
2018-07-31,0.46330275229357565
2018-08-01,0.03398058252426674
2018-08-02,0.1385542168674654
2018-08-03,0.528735632183907
2018-08-06,0.5260115606936405
2018-08-07,0.6322869955156972
2018-08-08,1.0
2018-08-09,0.9199999999999987
2018-08-10,0.7540983606557327
2018-08-13,0.6330935251798526
2018-08-14,0.2236024844720434
2018-08-15,0.0
2018-08-16,0.45679012345679015
2018-08-17,0.4475806451612913
2018-08-20,0.5944055944055967
2018-08-21,0.8018867924528366
2018-08-22,0.7142857142857143
2018-08-23,0.23505976095617995
2018-08-24,0.25106382978723935
2018-08-27,2.9228626869993023e-15
2018-08-28,0.0
2018-08-29,0.09047619047618977
2018-08-30,0.41739130434782423
2018-08-31,0.3199999999999983
2018-09-03,0.5514018691588797
2018-09-04,0.6491228070175451
2018-09-05,0.7241379310344843
2018-09-06,0.5205479452054779
2018-09-07,0.7794117647058774
2018-09-10,0.7887323943661917
2018-09-11,0.6978417266187015
2018-09-12,0.6181818181818131
2018-09-13,0.8750000000000016
2018-09-14,0.823529411764707
2018-09-17,0.45882352941176285
2018-09-18,0.6091954022988482
2018-09-19,0.20779220779220486
2018-09-20,0.11034482758620363
2018-09-21,0.07954545454545443
2018-09-25,0.3081081081081082
2018-09-26,0.24571428571428555
2018-09-27,0.6451612903225796
2018-09-28,0.6722689075630254
2018-10-08,0.9589041095890433
2018-10-09,0.9723502304147483
2018-10-10,0.9920634920634942
2018-10-11,0.9941690962099141
2018-10-12,1.0
2018-10-15,0.9416666666666682
2018-10-16,0.6428571428571417
2018-10-17,0.5993589743589732
2018-10-18,0.19407894736841805
2018-10-19,0.003424657534248563
2018-10-22,0.10596026490066433
2018-10-23,0.1316872427983571
2018-10-24,0.11969111969112023
2018-10-25,0.3932584269662926
2018-10-26,0.5664335664335656
2018-10-29,0.48760330578512356
2018-10-30,0.8282828282828197
2018-10-31,0.7592592592592593
2018-11-01,0.7400000000000044
2018-11-02,0.8194444444444456
2018-11-05,0.6449704142011841
2018-11-06,0.4914285714285747
2018-11-07,0.620481927710846
2018-11-08,0.4161849710982621
2018-11-09,0.11486486486486307
2018-11-12,0.4425287356321827
2018-11-13,0.6633663366336604
2018-11-14,0.7725752508361183
2018-11-15,0.7451612903225809
2018-11-16,0.7380191693290737
2018-11-19,0.5360501567398118
2018-11-20,0.3739569568999155
2018-11-21,0.0
2018-11-22,0.0
2018-11-23,0.2995361813426355
2018-11-26,0.5649454851829587
2018-11-27,0.836650180193711
2018-11-28,0.5798256882225733
2018-11-29,0.6868398511406589
2018-11-30,0.38877180726164684
2018-12-03,0.45149253731343064
2018-12-04,0.3625498007968106
2018-12-05,0.44174757281553245
2018-12-06,0.3160919540229853
2018-12-07,0.7194244604316513
2018-12-10,0.3435114503816791
2018-12-11,0.4160000000000011
2018-12-12,0.3443708609271513
2018-12-13,0.4632768361581926
2018-12-14,0.30656934306569783
2018-12-17,0.3111111111111115
2018-12-18,0.35862068965517424
2018-12-19,0.736842105263157
2018-12-20,0.41558441558441844
2018-12-21,0.3839662447257402
2018-12-24,0.49246231155779363
2018-12-25,0.5843621399176978
2018-12-26,0.2893617021276606
2018-12-27,0.7148148148148139
2018-12-28,0.6843971631205664
2019-01-02,0.6666666666666654
2019-01-03,0.3846153846153838
2019-01-04,0.523131672597866
2019-01-07,0.08627450980392383
2019-01-08,0.10638297872340621
2019-01-09,0.10683760683760854
2019-01-10,0.36645962732919174
2019-01-11,0.221556886227542
2019-01-14,0.6219512195121897
2019-01-15,0.592592592592586
2019-01-16,0.48484848484848075
2019-01-17,0.11666666666666474
2019-01-18,0.5568181818181798
2019-01-21,0.5357142857142836
2019-01-22,0.5555555555555528
2019-01-23,0.6802325581395334
2019-01-24,1.0
2019-01-25,0.6527777777777729
2019-01-28,0.705882352941176
2019-01-29,0.6250000000000082
2019-01-30,0.45833333333334497
2019-01-31,0.48684210526316796
2019-02-01,0.6607142857143083
2019-02-11,0.8137254901960933
2019-02-12,0.8842105263157982
2019-02-13,0.9479166666666725
2019-02-14,0.9561403508771981
2019-02-15,1.0
2019-02-18,0.3923076923076906
2019-02-19,0.490322580645157
2019-02-20,0.4733333333333264
2019-02-21,0.2799999999999879
2019-02-22,0.15469613259667886
2019-02-25,0.540372670807446
2019-02-26,0.3935483870967671
2019-02-27,0.359756097560973
2019-02-28,0.30412371134020455
2019-03-01,0.6230366492146637
2019-03-04,0.29268292682927494
2019-03-05,0.28846153846154476
2019-03-06,0.37155963302752637
2019-03-07,0.4240837696335116
2019-03-08,0.26666666666666317
2019-03-11,0.6696428571428511
2019-03-12,0.8761061946902627
2019-03-13,0.7647058823529352
2019-03-14,0.9029126213592206
2019-03-15,0.6491228070175411
2019-03-18,0.34821428571428775
2019-03-19,0.2912621359223371
2019-03-20,0.26548672566372444
2019-03-21,0.3805970149253708
2019-03-22,0.4047619047618995
2019-03-25,0.6744186046511587
2019-03-26,0.545454545454539
2019-03-27,0.6260869565217293
2019-03-28,0.3103448275862032
2019-03-29,0.5468749999999974
2019-04-01,0.27868852459016374
2019-04-02,0.38053097345132686
2019-04-03,0.41739130434782634
2019-04-04,0.5853658536585401
2019-04-08,0.11752589419324574
2019-04-09,0.1422700552329203
2019-04-10,0.04778463676327305
2019-04-11,0.0
2019-04-12,0.07280652270878867
2019-04-15,0.6415865145359726
2019-04-16,0.7667606981059472
2019-04-17,0.9585418025422264
2019-04-18,1.0
2019-04-19,1.0
2019-04-22,1.0
2019-04-23,0.7878787878787922
2019-04-24,0.5870967741935569
2019-04-25,0.646408839779014
2019-04-26,0.509090909090913
2019-04-29,0.2531645569620232
2019-04-30,0.2816901408450671
2019-05-06,0.5822784810126521
2019-05-07,0.3969465648854938
2019-05-08,0.36619718309859367
2019-05-09,0.39694656488550256
2019-05-10,0.5838509316770242
2019-05-13,0.3387096774193593
2019-05-14,0.560509554140131
2019-05-15,0.7302631578947406
2019-05-16,0.9038461538461572
2019-05-17,0.8608695652173936
2019-05-20,0.9909090909090884
2019-05-21,0.46323529411764475
2019-05-22,0.4112903225806377
2019-05-23,0.3539823008849487
2019-05-24,0.4503816793893075
2019-05-27,0.45454545454545253
2019-05-28,1.0
2019-05-29,0.5952380952381026
2019-05-30,0.47692307692307656
2019-05-31,0.5696202531645599
2019-06-03,0.716666666666663
2019-06-04,0.7301587301587232
2019-06-05,0.9999999999999873
2019-06-06,0.9038461538461584
2019-06-10,0.3961038961038917
2019-06-11,0.04615384615384384
2019-06-12,0.15068493150684767
2019-06-13,0.31365313653136495
2019-06-14,0.3408239700374534
2019-06-17,0.47395833333333565
2019-06-18,0.9349593495934999
2019-06-19,0.8484848484848606
2019-06-20,0.4166666666666795
2019-06-21,0.2500000000000044
2019-06-24,0.5000000000000011
2019-06-25,0.3076923076923062
2019-06-26,0.31249999999999745
2019-06-27,0.3703703703703663
2019-06-28,0.5
2019-07-01,0.4666666666666561
2019-07-02,0.8461538461538463
2019-07-03,0.9181818181818169
2019-07-04,0.9819819819819875
2019-07-05,0.9237288135593125
2019-07-08,0.8043478260869561
2019-07-09,0.647058823529415
2019-07-10,0.2903225806451994
2019-07-11,0.8018018018018174
2019-07-12,0.899224806201571
2019-07-15,0.9206349206349298
2019-07-16,0.876866358316267
2019-07-17,0.9111355651933385
2019-07-18,0.2499395059284179
2019-07-19,0.31905418089588705
2019-07-22,0.42931631270969484
2019-07-23,0.4152961477034796
2019-07-24,0.33541692120333444
2019-07-25,0.6583399494767329
2019-07-26,0.22001313477741638
2019-07-29,0.029850746268657365
2019-07-30,0.031007751937985127
2019-07-31,0.2517985611510788
2019-08-01,0.3290322580645172
2019-08-02,0.801801801801803
2019-08-05,0.9769585253456228
2019-08-06,1.0
2019-08-07,1.0
2019-08-08,0.8601036269430016
2019-08-09,0.2565789473684149
2019-08-12,0.03424657534246182
2019-08-13,0.15060240963855007
2019-08-14,0.10880829015543837
2019-08-15,0.24083769633507804
2019-08-16,0.3046357615894011
2019-08-19,0.37096774193547466
2019-08-20,0.17730496453900516
2019-08-21,0.19999999999999707
2019-08-22,0.0
2019-08-23,0.2168674698795233
2019-08-26,0.3663366336633792
2019-08-27,0.7142857142857217
2019-08-28,0.8804347826087044
2019-08-29,0.9204545454545443
2019-08-30,0.7875000000000006
2019-09-02,0.5057471264367855
2019-09-03,0.21052631578947886
2019-09-04,0.0
2019-09-05,0.0
2019-09-06,0.0
2019-09-09,0.0
2019-09-10,0.18518518518518842
2019-09-11,0.41176470588233655
2019-09-12,0.8181818181818121
2019-09-16,0.9870129870129837
2019-09-17,1.0
2019-09-18,1.0
2019-09-19,0.9826839826839847
2019-09-20,0.872340425531917
2019-09-23,0.6707317073170761
2019-09-24,0.3717948717948727
2019-09-25,0.0
2019-09-26,0.0
2019-09-27,0.037209302325581964
2019-09-30,0.165775401069513
2019-10-08,0.1962025316455638
2019-10-09,0.31958762886597086
2019-10-10,0.3902439024390089
2019-10-11,0.3827160493826946
2019-10-14,0.11940298507461002
2019-10-15,0.4634146341463312
2019-10-16,0.5135135135135208
2019-10-17,0.6400000000000181
2019-10-18,0.36231884057972497
2019-10-21,0.5333333333333466
2019-10-22,0.3918918918918996
2019-10-23,0.43939393939394433
2019-10-24,0.30188679245283395
2019-10-25,0.7105263157894758
2019-10-28,0.25531914893617647
2019-10-29,0.4186046511628041
2019-10-30,0.3272727272727329
2019-10-31,0.2236842105263207
2019-11-01,0.07058823529412006
2019-11-04,0.19117647058823334
2019-11-05,0.10447761194029315
2019-11-06,0.3380281690140756
2019-11-07,0.6913580246913461
2019-11-08,0.9514563106796043
2019-11-11,0.9666666666666616
2019-11-12,1.0
2019-11-13,1.0
2019-11-14,0.8611111111111144
2019-11-15,0.8930481283422482
2019-11-18,0.6726190476190502
2019-11-19,0.6666666666666691
2019-11-20,0.5878378378378402
2019-11-21,0.7544910179640719
2019-11-22,0.24550898203592814
2019-11-25,0.2847222222222223
2019-11-26,0.2727272727272713
2019-11-27,0.22674418604651042
2019-11-28,0.0
2019-11-29,0.0
2019-12-02,0.40196117176307666
2019-12-03,0.3876597204356395
2019-12-04,0.6519067495811692
2019-12-05,0.696982944437361
2019-12-06,0.546985862070607
2019-12-09,0.19611432863320907
2019-12-10,0.19434785136942576
2019-12-11,0.26923076923077266
2019-12-12,0.40000000000000385
2019-12-13,0.47368421052632237
2019-12-16,0.6909090909090984
2019-12-17,0.8625000000000025
2019-12-18,0.4226804123711375
2019-12-19,0.525423728813564
2019-12-20,0.6762589928057579
2019-12-23,0.5348837209302315
2019-12-24,0.3742331288343554
2019-12-25,0.5777777777777727
2019-12-26,0.3828124999999931
2019-12-27,0.18556701030926656
2019-12-30,0.5368421052631525
2019-12-31,0.8394160583941589
2020-01-02,0.7153284671532849
2020-01-03,0.896341463414635
2020-01-06,0.9279661016949163
2020-01-07,0.9237668161434991
2020-01-08,0.9338521400778222
2020-01-09,1.0
2020-01-10,0.9099099099099108
2020-01-13,0.7255520504731866
2020-01-14,0.6796116504854351
2020-01-15,0.39160839160839034
2020-01-16,0.0
2020-01-17,0.027027027027024707
2020-01-20,0.03070175438596231
2020-01-21,0.029787234042550764
2020-01-22,0.034313725490193334
2020-01-23,0.43670886075949156
2020-02-03,0.32460732984293217
2020-02-04,0.538116591928253
2020-02-05,0.6074766355140208
2020-02-06,0.6770833333333328
2020-02-07,0.35416666666666746
2020-02-10,0.4683544303797467
2020-02-11,0.09411764705882378
2020-02-12,0.035087719298245994
2020-02-13,0.036144578313253344
2020-02-14,0.10091743119266054
2020-02-17,0.10909090909090716
2020-02-18,0.34883720930232376
2020-02-19,0.441176470588237
2020-02-20,0.8333333333333988
2020-02-21,0.45454545454548945
2020-02-24,0.7551020408163489
2020-02-25,0.8571428571428705
2020-02-26,0.911504424778768
2020-02-27,0.9274193548387091
2020-02-28,1.0
2020-03-02,1.0
2020-03-03,1.0
2020-03-04,0.7251461988304068
2020-03-05,0.6399999999999979
2020-03-06,0.4499999999999975
2020-03-09,0.122171945701356
2020-03-10,0.010204081632656164
2020-03-11,0.34080717488789575
2020-03-12,0.5236363636363659
2020-03-13,0.6201298701298716
2020-03-16,1.0
2020-03-17,0.8148148148148148
2020-03-18,0.6713780918727914
2020-03-19,0.547085201793722
2020-03-20,0.33936651583710414
2020-03-23,0.05806451612903249
2020-03-24,0.09278350515463957
2020-03-25,0.08490566037735879
2020-03-26,0.0648627347957443
2020-03-27,0.07269747173366845
2020-03-30,0.0
2020-03-31,0.21403639589373052
2020-04-01,0.2740674283080362
2020-04-02,0.6359264045617439
2020-04-03,0.8092038151586242
2020-04-07,0.9961463900857827
2020-04-08,0.7411556090339844
2020-04-09,0.6944444444444451
2020-04-10,0.22340425531914884
2020-04-13,0.0
2020-04-14,0.0
2020-04-15,0.0
2020-04-16,0.40000000000000113
2020-04-17,0.8131868131868137
2020-04-20,0.6065573770491814
2020-04-21,0.7798742138364778
2020-04-22,0.7988165680473375
2020-04-23,0.7043478260869556
2020-04-24,0.7301587301587299
2020-04-27,1.0
2020-04-28,0.989690721649484
2020-04-29,0.8673469387755087
2020-04-30,0.42948717948717896
2020-05-06,0.429487179487178
2020-05-07,0.08843537414965906
2020-05-08,0.08176100628930752
2020-05-11,0.08552631578947295
2020-05-12,0.2317073170731726
2020-05-13,0.07792207792208167
2020-05-14,0.1276595744680906
2020-05-15,0.17647058823530054
2020-05-18,0.6034482758620728
2020-05-19,0.6849315068493153
2020-05-20,0.520833333333334
2020-05-21,0.5813953488372107
2020-05-22,0.6666666666666684
2020-05-25,0.40566037735849064
2020-05-26,0.19469026548672727
2020-05-27,0.27710843373493965
2020-05-28,0.27380952380952356
2020-05-29,0.00813008130081127
2020-06-01,0.17391304347826075
2020-06-02,0.20618556701030866
2020-06-03,0.45000000000000046
2020-06-04,0.5328947368421046
2020-06-05,0.8924731182795685
2020-06-08,0.7032967032966997
2020-06-09,0.8172043010752664
2020-06-10,0.35555555555555235
2020-06-11,0.19444444444444325
2020-06-12,0.5322580645161276
2020-06-15,0.6719999999999998
2020-06-16,0.6796874999999998
2020-06-17,1.0
2020-06-18,0.833333333333333
2020-06-19,0.4285714285714301
2020-06-22,0.211764705882354
2020-06-23,0.03260869565217395
2020-06-24,0.0
2020-06-29,0.22608695652174104
2020-06-30,0.24074074074074178
2020-07-01,0.24299065420560814
2020-07-02,0.33707865168539486
2020-07-03,0.3614457831325327
2020-07-06,0.06557377049180535
2020-07-07,0.37037037037037573
2020-07-08,0.6444444444444524
2020-07-09,0.4464285714285759
2020-07-10,0.8155339805825252
2020-07-13,0.8529411764705874
2020-07-14,0.8571428571428564
2020-07-15,0.8660714285714277
2020-07-16,1.0
2020-07-17,0.7714285714285726
2020-07-20,0.7183098591549303
2020-07-21,0.4155844155844133
2020-07-22,0.20253164556962078
2020-07-23,0.0
2020-07-24,0.0
2020-07-27,0.0
2020-07-28,0.0
2020-07-29,0.0
2020-07-30,0.050000000000004804
2020-07-31,0.04444444444444849
2020-08-03,0.437500000000002
2020-08-04,0.3181818181818145
2020-08-05,0.39534883720930286
2020-08-06,0.551724137931032
2020-08-07,0.5191136584616945
2020-08-10,0.3644201753125496
2020-08-11,0.6176571103094826
2020-08-12,0.7721430187825342
2020-08-13,0.46806761444527106
2020-08-14,0.5413120608492021
2020-08-17,0.49097677940433904
2020-08-18,0.52166264774479
2020-08-19,0.11135536052892091
2020-08-20,0.4499999999999974
2020-08-21,0.5352112676056315
2020-08-24,0.7291666666666663
2020-08-25,0.7475728155339803
2020-08-26,1.0
2020-08-27,0.7904191616766476
2020-08-28,0.6321839080459771
2020-08-31,0.2893081761006292
2020-09-01,0.12903225806451626
2020-09-02,0.0
2020-09-03,0.1680000000000009
2020-09-04,0.21649484536082655
2020-09-07,0.6538461538461545
2020-09-08,0.6455696202531663
2020-09-09,0.8080000000000016
2020-09-10,0.5925925925925923
2020-09-11,0.5555555555555535
2020-09-14,0.34965034965034925
2020-09-15,0.4736842105263129
2020-09-16,0.10924369747898778
2020-09-17,0.3644067796610139
2020-09-18,0.5390070921985811
2020-09-21,0.6495726495726495
2020-09-22,0.7939698492462322
2020-09-23,0.9349112426035513
2020-09-24,0.7619047619047637
2020-09-25,0.5900621118012438
2020-09-28,0.6163522012578622
2020-09-29,0.018518518518517494
2020-09-30,0.03773584905660383
2020-10-09,0.21019108280254734
2020-10-12,0.23913043478260856
2020-10-13,0.21276595744680926
2020-10-14,0.6521739130434784
2020-10-15,0.7460317460317455
2020-10-16,0.733333333333332
2020-10-19,0.836363636363632
2020-10-20,0.9531249999999971
2020-10-21,1.0
2020-10-22,0.7068965517241335
2020-10-23,0.29824561403508626
2020-10-26,0.6610169491525433
2020-10-27,0.4772727272727272
2020-10-28,0.566037735849056
2020-10-29,0.592105263157896
2020-10-30,0.7758620689655177
2020-11-02,0.6517857142857147
2020-11-03,0.9173553719008286
2020-11-04,0.7058823529411792
2020-11-05,0.6885245901639343
2020-11-06,0.3750000000000015
2020-11-09,0.31147540983606564
2020-11-10,0.1923076923076923
2020-11-11,0.23255813953488375
2020-11-12,0.37647058823529256
2020-11-13,0.39999999999999925
2020-11-16,0.31683168316831717
2020-11-17,0.08759124087591101
2020-11-18,0.19178082191780588
2020-11-19,0.11428571428571323
2020-11-20,0.12598425196850246
2020-11-23,0.1684210526315764
2020-11-24,0.732558139534881
2020-11-25,0.7526881720430088
2020-11-26,0.729166666666661
2020-11-27,0.6730769230769178
2020-11-30,0.7868852459016372
2020-12-01,0.4851485148514844
2020-12-02,0.27368421052631875
2020-12-03,0.43925233644860184
2020-12-04,0.6928571428571463
2020-12-07,0.5056504387320457
2020-12-08,0.7158549574720999
2020-12-09,0.8088651925479398
2020-12-10,0.7809807288386835
2020-12-11,0.5302392192824558
2020-12-14,0.8671565466903588
2020-12-15,0.4869731761419646
2020-12-16,0.42969531844800446
2020-12-17,0.6170358485287911
2020-12-18,0.5524861878453016
2020-12-21,0.5888324873096439
2020-12-22,0.8105726872246682
2020-12-23,0.8636363636363634
2020-12-24,0.6178861788617892
2020-12-25,0.7381974248927046
2020-12-28,0.4484126984126984
2020-12-29,0.18218623481781307
2020-12-30,0.08583690987124436
2020-12-31,0.11299435028248546
2021-01-04,0.2697674418604653
2021-01-05,0.4768211920529797
2021-01-06,0.8584070796460206
2021-01-07,0.963235294117647
2021-01-08,1.0
2021-01-11,1.0
2021-01-12,1.0
2021-01-13,0.6184210526315737
2021-01-14,0.16455696202531098
2021-01-15,0.35922330097087213
2021-01-18,0.22368421052631512
2021-01-19,0.1370558375634524
2021-01-20,0.15168539325842817
2021-01-21,0.17763157894736917
2021-01-22,0.007936507936505474
2021-01-25,0.010101010101006988
2021-01-26,0.19298245614034612
2021-01-27,0.21153846153845518
2021-01-28,0.16666666666666266
2021-01-29,0.101010101010101
2021-02-01,0.27272727272727243
2021-02-02,0.3535353535353539
2021-02-03,0.3917525773195848
2021-02-04,0.6222222222222215
2021-02-05,0.9333333333333338
2021-02-08,0.9365079365079372
2021-02-09,0.9298245614035094
2021-02-10,0.9862542955326463
2021-02-18,0.9858156028368796
2021-02-19,1.0
2021-02-22,0.9185393258426973
2021-02-23,0.9290953545232279
2021-02-24,0.35396039603960394
2021-02-25,0.35555555555555557
2021-02-26,0.20855614973262046
2021-03-01,0.36579572446555764
2021-03-02,0.23243243243243147
2021-03-03,0.6729559748427663
2021-03-04,0.6601307189542472
2021-03-05,0.915841584158415
2021-03-08,0.8195488721804511
2021-03-09,0.6526946107784435
2021-03-10,0.6795580110497241
2021-03-11,0.6197916666666682
2021-03-12,0.19125683060109339
2021-03-15,0.1988636363636382
2021-03-16,0.26717557251908564
2021-03-17,2.8770316440490663e-15
2021-03-18,0.09174311926605441
2021-03-19,0.8095238095238055
2021-03-22,0.6181818181818144
2021-03-23,0.5635359116022086
2021-03-24,0.589595375722544
2021-03-25,0.5348837209302341
2021-03-26,0.0
2021-03-29,0.09655172413793107
2021-03-30,0.2828947368421071
2021-03-31,0.23243243243243317
2021-04-01,0.29255319148936265
2021-04-02,0.6838235294117642
2021-04-06,0.45664739884393074
2021-04-07,0.33963557203902106
2021-04-08,0.5699018384689596
2021-04-09,0.426920145651619
2021-04-12,0.13704496788008427
2021-04-13,0.2359214905269741
2021-04-14,0.23849638401016995
2021-04-15,0.4157910781424654
2021-04-16,0.6075124945889577
2021-04-19,0.7929068543105886
2021-04-20,0.8095238095238105
2021-04-21,0.8160000000000006
2021-04-22,0.534883720930234
2021-04-23,0.1764705882352962
2021-04-26,0.6033057851239674
2021-04-27,0.6417910447761196
2021-04-28,0.5548387096774194
2021-04-29,0.4858757062146904
2021-04-30,0.666666666666668
2021-05-06,0.38787878787878916
2021-05-07,0.2033898305084742
2021-05-10,0.36021505376344054
2021-05-11,0.5854922279792732
2021-05-12,0.5628415300546437
2021-05-13,0.8039215686274496
2021-05-14,1.0
2021-05-17,0.9951690821256042
2021-05-18,0.8290155440414516
2021-05-19,0.8457943925233653
2021-05-20,0.5607476635514036
2021-05-21,0.24867724867724977
2021-05-24,0.23618090452261378
2021-05-25,0.2685714285714291
2021-05-26,0.0
2021-05-27,0.0
2021-05-28,0.12080536912751612
2021-05-31,0.11999999999999969
2021-06-01,0.20512820512820476
2021-06-02,0.7500000000000017
2021-06-03,0.8536585365853673
2021-06-04,0.6666666666666669
2021-06-07,0.8679245283018867
2021-06-08,0.8510638297872336
2021-06-09,0.8727272727272731
2021-06-10,0.8803418803418812
2021-06-11,0.9279279279279273
2021-06-15,0.6176470588235281
2021-06-16,0.6099999999999993
2021-06-17,0.2710280373831774
2021-06-18,0.08235294117647173
2021-06-21,0.2708333333333326
2021-06-22,0.5760869565217404
2021-06-23,0.4818181818181832
2021-06-24,0.7567567567567581
2021-06-25,0.44545454545454677
2021-06-28,0.3838383838383864
2021-06-29,0.13924050632911572
2021-06-30,0.19354838709677508
2021-07-01,0.14999999999999866
2021-07-02,0.22499999999999679
2021-07-05,0.013888888888887292
2021-07-06,0.014492753623186609
2021-07-07,0.5878787878787847
2021-07-08,0.6378378378378359
2021-07-09,0.7411764705882339
2021-07-12,0.9703703703703678
2021-07-13,0.7939393939393954
2021-07-14,0.20987654320987761
2021-07-15,0.3694581280788184
2021-07-16,0.3175355450236969
2021-07-19,0.38723404255319227
2021-07-20,0.5582329317269071
2021-07-21,0.8081395348837199
2021-07-22,0.43749999999999895
2021-07-23,0.531073446327684
2021-07-26,0.3367875647668396
2021-07-27,0.08585858585858769
2021-07-28,0.09392265193370365
2021-07-29,0.11409395973154621
2021-07-30,0.0
2021-08-02,0.2430555555555562
2021-08-03,0.6028368794326258
2021-08-04,0.6241610738255051
2021-08-05,0.8358208955223883
2021-08-06,1.0
2021-08-09,1.0
2021-08-10,0.7410395180230791
2021-08-11,0.7330245288977806
2021-08-12,0.7204893640471757
2021-08-13,0.44877566706929
2021-08-16,0.15232391615675478
2021-08-17,0.21550930189722273
2021-08-18,0.13882063882063955
2021-08-19,0.2883248730964419
2021-08-20,0.4823529411764645
2021-08-23,0.39047619047618465
2021-08-24,0.5588235294117607
2021-08-25,0.6611570247933867
2021-08-26,0.3582089552238814
2021-08-27,0.38571428571428634
2021-08-30,0.44262295081967357
2021-08-31,0.1397058823529433
2021-09-01,0.23026315789473506
2021-09-02,0.3513513513513493
2021-09-03,0.2871287128712847
2021-09-06,0.607999999999999
2021-09-07,1.0
2021-09-08,0.9508196721311473
2021-09-09,0.9152542372881356
2021-09-10,0.8596491228070172
2021-09-13,0.6521739130434785
2021-09-14,0.8181818181818178
2021-09-15,0.5538461538461509
2021-09-16,0.6447368421052617
2021-09-17,0.7073170731707326
2021-09-22,0.7000000000000035
2021-09-23,0.8032786885245908
2021-09-24,1.0
2021-09-27,1.0
2021-09-28,1.0
2021-09-29,1.0
2021-09-30,0.7788461538461534
2021-10-08,0.7620689655172411
2021-10-11,0.6896551724137939
2021-10-12,0.4608294930875576
2021-10-13,0.282208588957058
2021-10-14,0.6097560975609777
2021-10-15,0.2695035460992899
2021-10-18,0.22619047619047492
2021-10-19,0.5526315789473683
2021-10-20,0.3368421052631579
2021-10-21,0.3527397260273974
2021-10-22,0.5144927536231884
2021-10-25,0.5839999999999992
2021-10-26,0.3015267175572509
2021-10-27,0.6325581395348847
2021-10-28,0.7052238805970155
2021-10-29,0.6147540983606562
2021-11-01,0.5488721804511278
2021-11-02,0.7830687830687808
2021-11-03,0.7388535031847101
2021-11-04,0.1459459459459431
2021-11-05,0.4041666666666655
2021-11-08,0.6285714285714296
2021-11-09,0.5850746268656731
2021-11-10,0.46341463414634276
2021-11-11,0.7065217391304344
2021-11-12,0.3810975609756091
2021-11-15,0.07384615384615194
2021-11-16,0.2918781725888316
2021-11-17,0.30183727034120666
2021-11-18,0.2692307692307718
2021-11-19,0.5675675675675691
2021-11-22,0.8217054263565903
2021-11-23,0.47265625000000056
2021-11-24,0.6952054794520545
2021-11-25,0.5632183908045937
2021-11-26,0.37634408602150216
2021-11-29,0.4041095890410919
2021-11-30,0.725806451612899
2021-12-01,0.5073069155233616
2021-12-02,0.7115321180749908
2021-12-03,0.7976454836873669
2021-12-06,0.5704983066387156
2021-12-07,0.25506872802637565
2021-12-08,0.28414805906413654
2021-12-09,0.1077455929957585
2021-12-10,0.0
2021-12-13,0.009490168505363591
2021-12-14,0.01
2021-12-15,0.0497237569060782
2021-12-16,0.20689655172413793
2021-12-17,0.31858407079645973
2021-12-20,0.5837837837837833
2021-12-21,0.9117647058823529
2021-12-22,0.9134615384615383
2021-12-23,0.885869565217392
2021-12-24,0.9826589595375731
2021-12-27,0.5303867403314902
2021-12-28,0.2796610169491471
2021-12-29,0.16666666666666202
2021-12-30,0.13333333333332975
2021-12-31,0.18749999999999753
2022-01-04,0.41904761904761967
2022-01-05,0.2164179104477649
2022-01-06,0.4444444444444466
2022-01-07,0.5925925925925906
2022-01-10,0.4423076923076936
2022-01-11,0.29166666666666324
2022-01-12,0.5287356321839048
2022-01-13,0.15277777777778465
2022-01-14,0.1466666666666763
2022-01-17,0.4382022471910212
2022-01-18,0.8017241379310502
2022-01-19,0.7321428571428685
2022-01-20,0.9019607843137287
2022-01-21,0.9503546099290744
2022-01-24,0.8479999999999939
2022-01-25,0.6190476190476013
2022-01-26,0.7126436781609038
2022-01-27,0.5714285714285631
2022-01-28,0.20408163265304555
2022-02-07,0.3076923076922951
2022-02-08,0.29268292682926655
2022-02-09,0.04000000000000704
2022-02-10,0.4516129032258092
2022-02-11,0.4242424242424263
2022-02-14,0.7610062893081754
2022-02-15,0.8693181818181791
2022-02-16,0.9784946236559102
2022-02-17,0.9794871794871759
2022-02-18,1.0
2022-02-21,0.7094594594594656
2022-02-22,0.7922705314009717
2022-02-23,0.5793991416309043
2022-02-24,0.6838709677419362
2022-02-25,0.7683215130023634
2022-02-28,0.8809523809523794
2022-03-01,0.7231121281464508
2022-03-02,0.8730769230769223
2022-03-03,0.8424821002386628
2022-03-04,0.683431952662723
2022-03-07,0.6815476190476193
2022-03-08,0.9263913824057464
2022-03-09,0.9161554192229056
2022-03-10,0.9395280235988213
2022-03-11,1.0
2022-03-14,0.8521046643913542
2022-03-15,0.7687188019966718
2022-03-16,0.6632825719120122
2022-03-17,0.3091787439613517
2022-03-18,0.0
2022-03-21,0.07880910683012105
2022-03-22,0.06656804733727689
2022-03-23,0.07903225806451715
2022-03-24,0.11980440097799663
2022-03-25,0.321428571428574
2022-03-28,0.07758620689655735
2022-03-29,0.06666666666667144
2022-03-30,0.2980501392757649
2022-03-31,0.3932291666666647
2022-04-01,0.37700534759358223
2022-04-06,0.5835255857093367
2022-04-07,1.0
2022-04-08,0.5799728691647018
2022-04-11,0.39374108363753735
2022-04-12,0.4405770734910662
2022-04-13,0.34234795641504534
2022-04-14,0.09104674757007329
2022-04-15,0.35248859885106043
2022-04-18,0.6141646462779555
2022-04-19,0.42824601366742543
2022-04-20,0.39578947368420936
2022-04-21,0.5953002610966039
2022-04-22,0.3702623906705512
2022-04-25,0.2394366197183107
2022-04-26,0.5719844357976676
2022-04-27,0.8123076923076923
2022-04-28,0.7939189189189193
2022-04-29,1.0
2022-05-05,0.6440217391304317
2022-05-06,0.5956790123456763
2022-05-09,0.263888888888889
2022-05-10,0.5673469387755083
2022-05-11,0.5411255411255391
2022-05-12,0.7692307692307685
2022-05-13,0.7121212121212105
2022-05-16,0.8245614035087719
2022-05-17,0.07284768211920697
2022-05-18,0.056497175141244985
2022-05-19,0.23394495412844088
2022-05-20,0.2261640798226169
2022-05-23,0.27039627039627123
2022-05-24,0.6028708133971259
2022-05-25,0.7283236994219644
2022-05-26,0.11822660098521638
2022-05-27,0.11214953271027538
2022-05-30,0.1739130434782538
2022-05-31,0.4242424242424208
2022-06-01,0.5894988066825748
2022-06-02,0.9126637554585151
2022-06-06,0.9247787610619466
2022-06-07,0.8680089485458623
2022-06-08,0.626126126126129
2022-06-09,0.4830508474576302
2022-06-10,0.0
2022-06-13,0.06593406593406467
2022-06-14,0.21232876712328677
2022-06-15,0.3724489795918336
2022-06-16,0.3649999999999981
2022-06-17,0.6576576576576548
2022-06-20,0.841666666666666
2022-06-21,0.7488151658767768
2022-06-22,0.833333333333333
2022-06-23,0.7571428571428576
2022-06-24,0.8136986301369878
2022-06-27,0.4934210526315808
2022-06-28,0.5190311418685141
2022-06-29,0.09667673716012258
2022-06-30,0.15172413793103748
2022-07-01,0.11827956989247432
2022-07-04,0.15492957746479033
2022-07-05,0.24050632911392605
2022-07-06,0.9380804953560371
2022-07-07,0.9267515923566889
2022-07-08,0.7297297297297309
2022-07-11,0.7796143250688717
2022-07-12,0.7234636871508386
2022-07-13,0.053941908713691804
2022-07-14,0.04693140794223719
2022-07-15,0.35294117647058654
2022-07-18,0.4451038575667651
2022-07-19,0.3797468354430377
2022-07-20,0.4297994269340975
2022-07-21,0.45871559633027387
2022-07-22,0.3468634686346836
2022-07-25,0.10185185185184922
2022-07-26,0.21897810218977903
2022-07-27,0.3990825688073375
2022-07-28,0.6524390243902441
2022-07-29,0.4268867924528326
2022-08-01,0.6642607938638319
2022-08-02,0.6710262934690437
2022-08-03,0.5586248137812392
2022-08-04,0.408661935913963
2022-08-05,0.704351574700675
2022-08-08,0.5557986122143643
2022-08-09,0.32303448199835816
2022-08-10,0.42815136793657926
2022-08-11,0.15132867752038573
2022-08-12,0.09433962264150306
2022-08-15,0.004739336492889371
2022-08-16,0.004184100418408607
2022-08-17,0.07929515418502073
2022-08-18,0.06271777003484169
2022-08-19,0.16199376947040478
2022-08-22,0.31415929203540033
2022-08-23,0.6480263157894732
2022-08-24,0.5901639344262292
2022-08-25,0.9117647058823531
2022-08-26,0.6452991452991483
2022-08-29,0.6512605042016798
2022-08-30,0.13302752293577813
2022-08-31,0.36431226765799146
2022-09-01,0.42033898305084383
2022-09-02,0.5299145299145274
2022-09-05,0.42436974789916165
2022-09-06,0.7013888888888967
2022-09-07,0.4556962025316514
2022-09-08,0.2711864406779614
2022-09-09,0.2580645161290286
2022-09-13,0.37209302325580684
2022-09-14,0.39999999999999747
2022-09-15,0.1153846153846117
2022-09-16,0.0
2022-09-19,0.3170731707317067
2022-09-20,0.43829787234042483
2022-09-21,0.5060240963855392
2022-09-22,0.7027027027026975
2022-09-23,0.9558823529411813
2022-09-26,0.9512195121951272
2022-09-27,0.6269841269841261
2022-09-28,0.370860927152317
2022-09-29,0.3170731707317101
2022-09-30,0.3416149068322979
2022-10-10,0.017341040462425412
2022-10-11,0.26285714285714173
2022-10-12,0.509090909090907
2022-10-13,0.6167664670658642
2022-10-14,0.6521739130434764
2022-10-17,0.784313725490191
2022-10-18,0.42307692307691974
2022-10-19,0.21081081081081093
2022-10-20,0.21925133689839957
2022-10-21,0.27722772277228175
2022-10-24,0.3060109289617546
2022-10-25,0.5454545454545487
2022-10-26,0.8939393939393936
2022-10-27,0.8290598290598332
2022-10-28,0.38993710691823413
2022-10-31,0.5765306122448952
2022-11-01,0.7224080267558535
2022-11-02,0.6381322957198452
2022-11-03,0.5430463576158928
2022-11-04,0.7867132867132856
2022-11-07,0.6281588447653437
2022-11-08,0.21554770318021174
2022-11-09,0.25874125874125936
2022-11-10,0.37109374999999956
2022-11-11,0.24766355140186783
2022-11-14,0.451612903225803
2022-11-15,1.0
2022-11-16,0.8384615384615388
2022-11-17,0.8500000000000012
2022-11-18,0.613496932515337
2022-11-21,0.5000000000000052
2022-11-22,0.46610169491525655
2022-11-23,0.49549549549549576
2022-11-24,0.17391304347826392
2022-11-25,0.2051282051282108
2022-11-28,0.34507042253521175
2022-11-29,0.4000000000000033
2022-11-30,0.4768211920529851
2022-12-01,0.7765957446808599
2022-12-02,1.0
2022-12-05,0.4692307692307714
2022-12-06,0.27254377471815067
2022-12-07,0.15692688290269277
2022-12-08,0.14697236126693422
2022-12-09,0.0
2022-12-12,0.0
2022-12-13,0.0
2022-12-14,0.0
2022-12-15,0.08382794962523098
2022-12-16,0.3466741114965247
2022-12-19,0.6725663716814158
2022-12-20,0.9000000000000001
2022-12-21,1.0
2022-12-22,0.9731543624161088
2022-12-23,0.6373626373626377
2022-12-26,0.41758241758241876
2022-12-27,0.14689265536723226
2022-12-28,0.0
2022-12-29,0.0
2022-12-30,0.2436974789916008
2023-01-03,0.6268656716417939
2023-01-04,0.9664429530201348
2023-01-05,0.8622754491017962
2023-01-06,0.8135593220338972
2023-01-09,0.6460674157303335
2023-01-10,0.37267080745341297
2023-01-11,0.0
2023-01-12,0.20622568093385146
2023-01-13,0.22709163346613528
2023-01-16,0.2838427947598262
2023-01-17,0.3051643192488279
2023-01-18,0.88717948717949
2023-01-19,0.8854166666666693
2023-01-20,0.8981481481481502
2023-01-30,0.9116465863453831
2023-01-31,1.0
2023-02-01,0.6494845360824716
2023-02-02,0.5828220858895672
2023-02-03,0.39181286549707467
2023-02-06,0.19696969696969527
2023-02-07,0.32051282051282054
2023-02-08,0.6000000000000008
2023-02-09,0.24675324675324628
2023-02-10,0.2923076923076912
2023-02-13,0.23030303030302873
2023-02-14,0.037234042553188726
2023-02-15,0.0
2023-02-16,0.16406249999999542
2023-02-17,0.18103448275861572
2023-02-20,0.4313725490196015
2023-02-21,0.9310344827586113
2023-02-22,0.7297297297297347
2023-02-23,0.402439024390241
2023-02-24,0.5983606557377052
2023-02-27,0.5504587155963294
2023-02-28,0.45045045045045723
2023-03-01,0.48543689320388167
2023-03-02,0.6962025316455714
2023-03-03,0.2830188679245311
2023-03-06,0.0943396226415141
2023-03-07,0.5499999999999927
2023-03-08,0.7623762376237605
2023-03-09,0.5581395348837189
2023-03-10,0.7860696517412928
2023-03-13,0.8324873096446702
2023-03-14,0.802395209580839
2023-03-15,0.67333333333334
2023-03-16,0.923809523809529
2023-03-17,0.5427135678392002
2023-03-20,0.49514563106796544
2023-03-21,0.3991416309012892
2023-03-22,0.4389140271493211
2023-03-23,0.01769911504424821
2023-03-24,0.2222222222222221
2023-03-27,0.25966850828729204
2023-03-28,0.3950617283950624
2023-03-29,0.37499999999999983
2023-03-30,0.8823529411764723
2023-03-31,0.23404255319149042
2023-04-03,0.6528925619834711
2023-04-04,0.6449037106622816
2023-04-06,0.6251090791820015
2023-04-07,0.7062137797810688
2023-04-10,0.960632258543284
2023-04-11,0.4020675244693737
2023-04-12,0.39532900834106033
2023-04-13,0.4018237311127043
2023-04-14,0.2150382152447865
2023-04-17,0.0578034682080937
2023-04-18,0.13888888888888917
2023-04-19,0.0
2023-04-20,0.3333333333333335
2023-04-21,0.39024390243902696
2023-04-24,0.5187969924812047
2023-04-25,0.7817258883248744
2023-04-26,0.9780219780219797
2023-04-27,0.9741935483870984
2023-04-28,1.0
2023-05-04,1.0
2023-05-05,0.6463414634146305
2023-05-08,0.7603305785123965
2023-05-09,0.4127906976744204
2023-05-10,0.47395833333333404
2023-05-11,0.4257425742574281
2023-05-12,0.4018691588785065
2023-05-15,0.13529411764705684
2023-05-16,0.49999999999999545
2023-05-17,0.3795620437956187
2023-05-18,0.6045197740113004
2023-05-19,0.7697841726618682
2023-05-22,0.9261363636363642
2023-05-23,0.6981132075471765
2023-05-24,0.7302631578947375
2023-05-25,0.4057971014492752
2023-05-26,0.5729729729729752
2023-05-29,0.2415458937198081
2023-05-30,0.4218009478672954
2023-05-31,0.47111111111111154
2023-06-01,0.6988416988416979
2023-06-02,0.6637931034482746
2023-06-05,0.8461538461538463
2023-06-06,0.7098765432098755
2023-06-07,0.6533333333333282
2023-06-08,0.1250000000000009
2023-06-09,0.0
2023-06-12,0.2618025751072972
2023-06-13,0.2687224669603547
2023-06-14,0.27111111111111397
2023-06-15,0.6625766871165653
2023-06-16,0.7769784172661925
2023-06-19,0.3916666666666647
2023-06-20,0.4017094017093973
2023-06-21,0.4051724137930982
2023-06-26,0.0
2023-06-27,0.0
2023-06-28,0.0
2023-06-29,0.4274809160305365
2023-06-30,0.3218390804597736
2023-07-03,0.36842105263158087
2023-07-04,0.3660130718954274
2023-07-05,0.35443037974683606
2023-07-06,0.0
2023-07-07,0.25520833333333076
2023-07-10,0.4037558685445981
2023-07-11,0.39814814814814736
2023-07-12,0.5145631067961172
2023-07-13,0.8955223880597052
2023-07-14,0.8556701030927879
2023-07-17,0.7941176470588289
2023-07-18,0.9152542372881219
2023-07-19,0.8936170212765805
2023-07-20,0.905660377358479
2023-07-21,0.35643564356436147
2023-07-24,0.22047244094488713
2023-07-25,0.23577235772358632
2023-07-26,0.1750000000000044
2023-07-27,0.009900990099013634
2023-07-28,0.1666666666666852
2023-07-31,0.3636363636363824
2023-08-01,0.7586206896551583
2023-08-02,0.9279999999999968
2023-08-03,0.9477124183006534
2023-08-04,0.9587628865979375
2023-08-07,1.0
2023-08-08,0.9850000000000007
2023-08-09,0.8928571428571446
2023-08-10,0.870689655172417
2023-08-11,0.5047619047619164
2023-08-14,0.05681818181819025
2023-08-15,0.1270147883086947
2023-08-16,0.09919207056956357
2023-08-17,0.057026781152250725
2023-08-18,0.2559644048943275
2023-08-21,0.8120484160628135
2023-08-22,0.8179870600145847
2023-08-23,0.9790602860878356
2023-08-24,0.9727849635260827
2023-08-25,0.9726034122624787
2023-08-28,0.17877094972066754
2023-08-29,0.1079545454545418
2023-08-30,0.14940681061545644
2023-08-31,0.1361304595788462
2023-09-01,0.14749172057276588
2023-09-04,0.5579940172164093
2023-09-05,0.4987963288920222
2023-09-06,0.7012410314020221
2023-09-07,0.8246301022951718
2023-09-08,0.6219017857972122
2023-09-11,0.621334753201109
2023-09-12,0.5909090909090957
2023-09-13,0.06508875739644948
2023-09-14,0.06432748538011672
2023-09-15,0.06547619047618951
2023-09-18,0.0
2023-09-19,0.28431372549019346
2023-09-20,0.7199999999999982
2023-09-21,0.7532467532467481
2023-09-22,0.9190751445086717
2023-09-25,0.8784530386740348
2023-09-26,0.6965517241379362
2023-09-27,0.6615384615384663
2023-09-28,0.6857142857142885
2023-10-09,0.7086092715231763
2023-10-10,0.8562091503267962
2023-10-11,0.8291139240506284
2023-10-12,0.4897959183673422
2023-10-13,0.4020618556700985
2023-10-16,0.12060301507537577
2023-10-17,0.0
2023-10-18,0.21276595744680973
2023-10-19,0.3174603174603177
2023-10-20,0.496402877697844
2023-10-23,0.9246575342465763
2023-10-24,0.8823529411764687
2023-10-25,0.6785714285714285
2023-10-26,0.7834394904458595
2023-10-27,0.6482758620689657
2023-10-30,0.15909090909091025
2023-10-31,0.22527472527472894
2023-11-01,0.2962962962963021
2023-11-02,0.14084507042254102
2023-11-03,0.15503875968992853
2023-11-06,0.8709677419354823
2023-11-07,0.884615384615382
2023-11-08,0.9205298013245001
2023-11-09,0.8424242424242436
2023-11-10,0.7765363128491607
2023-11-13,0.4382022471910032
2023-11-14,0.26999999999999447
2023-11-15,0.0
2023-11-16,0.19105691056910373
2023-11-17,0.4006622516556292
2023-11-20,0.5898305084745789
2023-11-21,0.6877470355731249
2023-11-22,0.9804878048780491
2023-11-23,0.9827586206896555
2023-11-24,0.8369565217391279
2023-11-27,0.7857142857142817
2023-11-28,0.769230769230765
2023-11-29,0.7608695652173891
2023-11-30,0.1878787878787901
2023-12-01,0.434554973821993
2023-12-04,0.44329896907216665
2023-12-05,0.5120772946859931
2023-12-06,0.41584158415841754
2023-12-07,0.8920706231752749
2023-12-08,0.4690198096758609
2023-12-11,0.2975268721889728
2023-12-12,0.27194219316080354
2023-12-13,0.3461645072385726
2023-12-14,0.10966929656525849
2023-12-15,0.14867270486511805
2023-12-18,0.2588051343007344
2023-12-19,0.16115294454619966
2023-12-20,0.015267175572521306
2023-12-21,0.3287671232876735
2023-12-22,0.6607142857142868
2023-12-25,0.7790697674418604
2023-12-26,0.8750000000000049
2023-12-27,0.8484848484848462
2023-12-28,0.8322147651006689
2023-12-29,0.7047619047619019
2024-01-02,0.157894736842115
2024-01-03,0.3118279569892376
2024-01-04,0.7499999999999952
2024-01-05,0.6727272727272663
2024-01-08,0.6529411764705816
2024-01-09,0.7115384615384605
2024-01-10,0.5116279069767459
2024-01-11,0.0
2024-01-12,0.0
2024-01-15,1.0667110195118218e-14
2024-01-16,0.14035087719298683
2024-01-17,0.20779220779221222
2024-01-18,0.2962962962962994
2024-01-19,0.6349206349206339
2024-01-22,0.47058823529410604
2024-01-23,0.3259989053092444
2024-01-24,0.2583929255753752
2024-01-25,0.21581795342545215
2024-01-26,0.23743973126456946
2024-01-29,0.4104824705210908
2024-01-30,0.3096399503506147
2024-01-31,0.506523432966955
2024-02-01,0.7466041370069468
2024-02-02,0.7395335224264732
2024-02-05,0.563218390804596
2024-02-06,0.7602739726027395
2024-02-07,0.5034013605442222
2024-02-08,0.29508196721312
2024-02-19,0.08387096774193509
2024-02-20,0.09027777777777683
2024-02-21,0.05072463768116353
2024-02-22,0.1142857142857224
2024-02-23,0.09677419354839387
2024-02-26,0.15384615384616362
2024-02-27,0.5058823529411877
2024-02-28,0.4000000000000095
2024-02-29,0.4315789473684212
2024-03-01,0.6307692307692335
2024-03-04,0.7192982456140243
2024-03-05,0.2857142857142528
2024-03-06,0.7045454545454198
2024-03-07,0.7045454545454324
2024-03-08,0.7884615384615191
2024-03-11,0.8235294117646976
2024-03-12,0.7924528301886883
2024-03-13,0.7250000000000142
2024-03-14,0.6451612903225852
2024-03-15,0.3333333333333263
2024-03-18,0.29032258064515604
2024-03-19,0.6857142857142877
2024-03-20,0.333333333333329
2024-03-21,0.25000000000000244
2024-03-22,0.40000000000000596
2024-03-25,0.3076923076923106
2024-03-26,0.37931034482758996
2024-03-27,0.6250000000000008
2024-03-28,0.7701149425287375
2024-03-29,0.8290598290598298
2024-04-01,1.0
2024-04-02,0.8215337582319262
2024-04-03,0.600348541805891
2024-04-08,0.7233045622688086
2024-04-09,0.5684247191068819
2024-04-10,0.5845684673490728
2024-04-11,0.7105908919026864
2024-04-12,0.9185681603421658
2024-04-15,0.8305194167263181
2024-04-16,0.9890109890109996
2024-04-17,0.8105263157894803
2024-04-18,0.8474576271186519
2024-04-19,0.915492957746484
2024-04-22,0.8904109589041087
2024-04-23,0.7123287671232882
2024-04-24,0.8237547892720303
2024-04-25,0.6642599277978355
2024-04-26,0.21454545454545476
2024-04-29,0.20848056537102524
2024-04-30,0.22957198443579804
2024-05-06,0.0
2024-05-07,0.0
2024-05-08,0.0
2024-05-09,0.0
2024-05-10,0.015037593984961411
2024-05-13,0.32608695652173453
2024-05-14,0.33333333333333043
2024-05-15,0.5789473684210508
2024-05-16,0.893617021276594
2024-05-17,0.7592592592592545
2024-05-20,0.5492957746478782
2024-05-21,0.7608695652173858
2024-05-22,0.7864077669902895
2024-05-23,0.7821782178217808
2024-05-24,0.9449541284403657
2024-05-27,0.762962962962966
2024-05-28,0.7866666666666683
2024-05-29,0.7404580152671767
2024-05-30,0.44585987261146526
2024-05-31,0.5084745762711851
2024-06-03,0.7120418848167533
2024-06-04,0.6540880503144662
2024-06-05,0.5942857142857121
2024-06-06,0.8188976377952674
2024-06-07,0.4724409448818883
2024-06-11,0.11290322580645253
2024-06-12,0.0
2024-06-13,0.17368421052632058
2024-06-14,0.17553191489362285
2024-06-17,0.3470588235294149
2024-06-18,0.5641025641025713
2024-06-19,0.9750000000000044
2024-06-20,0.7433628318584056
2024-06-21,0.6885245901639278
2024-06-24,0.47154471544715304
2024-06-25,0.22656249999999695
2024-06-26,0.0
2024-06-27,0.0
2024-06-28,0.0
2024-07-01,0.0
2024-07-02,0.2272727272727191
2024-07-03,0.3488372093023102
2024-07-04,0.333333333333333
2024-07-05,0.4912280701754417
2024-07-08,0.8421052631579011
2024-07-09,0.48039215686274916
2024-07-10,0.6439393939394005
2024-07-11,0.7588235294117651
2024-07-12,0.7544910179640721
2024-07-15,0.6250000000000022
2024-07-16,0.8818181818181856
2024-07-17,0.7721518987341811
2024-07-18,0.377777777777799
2024-07-19,0.17073170731708873
2024-07-22,0.5882352941176631
2024-07-23,0.4791666666666681
2024-07-24,0.3333333333333333
2024-07-25,0.5263157894736703
2024-07-26,0.7115384615384542
2024-07-29,0.5257731958762787
2024-07-30,0.6865671641791
2024-07-31,0.8596491228070128
2024-08-01,0.6860072623808191
2024-08-02,0.6203379784430808
2024-08-05,0.8566105416806724
2024-08-06,0.7525708804568524
2024-08-07,0.7843643759917792
2024-08-08,0.7915681619760411
2024-08-09,0.5506883308714938
2024-08-12,0.13008842997470393
2024-08-13,0.22738158505492456
2024-08-14,0.10614525139664645
2024-08-15,0.28426395939086346
2024-08-16,0.4235294117647037
2024-08-19,0.7755102040816271
2024-08-20,0.7821782178217782
2024-08-21,1.0
2024-08-22,1.0
2024-08-23,0.5657894736842104
2024-08-26,0.5822784810126678
2024-08-27,0.20000000000000862
2024-08-28,0.15384615384616
2024-08-29,0.04142011834320074
2024-08-30,0.05035971223022273
2024-09-02,0.29032258064516187
2024-09-03,0.3913043478260924
2024-09-04,0.6000000000000073
2024-09-05,0.8783783783783919
2024-09-06,0.913793103448282
2024-09-09,0.7191780821917825
2024-09-10,0.8555555555555515
2024-09-11,0.8156028368794271
2024-09-12,0.803030303030295
2024-09-13,0.6814159292035293
2024-09-18,0.5789473684210482
2024-09-19,0.27999999999998704
2024-09-20,0.12903225806450455
2024-09-23,0.0
2024-09-24,0.0
2024-09-25,0.2333333333333305
2024-09-26,0.5913978494623685
2024-09-27,0.7006369426751704
2024-09-30,0.9637339080481845
2024-10-08,0.7561151728495362
2024-10-09,0.7528748948209224
2024-10-10,0.4682688290184284
2024-10-11,0.557717530889771
2024-10-14,0.2921977924077858
2024-10-15,0.6791168355664956
2024-10-16,0.5298274612251759
2024-10-17,0.6090166848923594
2024-10-18,0.5019157088122642
2024-10-21,0.5859030837004437
2024-10-22,0.011111111111108133
2024-10-23,0.35294117647058965
2024-10-24,0.3069767441860467
2024-10-25,0.3333333333333316
2024-10-28,0.5018867924528305
2024-10-29,0.7377049180327853
2024-10-30,0.38172043010752704
2024-10-31,0.5286624203821638
2024-11-01,0.5592105263157917
2024-11-04,0.09302325581395475
2024-11-05,0.08092485549133105
2024-11-06,0.4285714285714311
2024-11-07,0.5855855855855896
2024-11-08,0.5638766519823816
2024-11-11,0.9305555555555572
2024-11-12,0.924137931034479
2024-11-13,0.5337837837837787
2024-11-14,0.04347826086955947
2024-11-15,0.4103773584905612
2024-11-18,0.4292237442922357
2024-11-19,0.5551470588235284
2024-11-20,0.6785714285714282
2024-11-21,0.9398853398853391
2024-11-22,0.39559785841761
2024-11-25,0.3115022866511357
2024-11-26,0.0
2024-11-27,0.29017707985298746
2024-11-28,0.2741405160849073
2024-11-29,0.468741566969503
2024-12-02,0.542925609501974
2024-12-03,0.6428571428571473
2024-12-04,0.0
2024-12-05,0.675324675324681
2024-12-06,0.7707006369426828
2024-12-09,0.7333333333333375
2024-12-10,0.5707547169811327
2024-12-11,0.6237113402061837
2024-12-12,0.32407407407407773
2024-12-13,0.16981132075471722
2024-12-16,0.16981132075471897
2024-12-17,0.3548387096774179
2024-12-18,0.5737704918032731
2024-12-19,0.10493827160493474
2024-12-20,0.28961748633879913
2024-12-23,0.38341968911917257
2024-12-24,0.3608247422680444
2024-12-25,0.34391534391534884
2024-12-26,0.8666666666666785
2024-12-27,0.8000000000000134
2024-12-30,0.4222222222222283
2024-12-31,0.7272727272727311
