date,FCT_Demark_Atr_Dfive
2015-04-16,
2015-04-17,
2015-04-20,
2015-04-21,
2015-04-22,
2015-04-23,
2015-04-24,
2015-04-27,
2015-04-28,
2015-04-29,0.09000825763831613
2015-04-30,0.14690026954178037
2015-05-04,0.13260340632603487
2015-05-05,0.4647676161919071
2015-05-06,0.49718309859155185
2015-05-07,0.6912878787878808
2015-05-08,0.7992633517495392
2015-05-11,1.0
2015-05-12,0.42915531335149976
2015-05-13,0.19709794437726894
2015-05-14,0.16815144766147128
2015-05-15,0.1576413419498856
2015-05-18,0.069670242515678
2015-05-19,0.6486554339745852
2015-05-20,0.8766984221437607
2015-05-21,0.9706074419304671
2015-05-22,0.9698336971724464
2015-05-25,1.0
2015-05-26,0.5358007694140597
2015-05-27,0.5727071164545662
2015-05-28,0.7895442359249325
2015-05-29,0.7945922372437851
2015-06-01,0.8072042570609903
2015-06-02,1.0
2015-06-03,0.9319444444444462
2015-06-04,0.8916728076639674
2015-06-05,0.91408533021625
2015-06-08,0.8814516129032287
2015-06-09,0.8826815642458135
2015-06-10,0.8763866877971463
2015-06-11,0.3126894759636214
2015-06-12,0.10694980694980813
2015-06-15,0.08519134775374505
2015-06-16,0.0
2015-06-17,0.0
2015-06-18,0.1495877502944617
2015-06-19,0.6559855556173744
2015-06-23,0.8511596590363717
2015-06-24,0.8354066329809792
2015-06-25,0.9016008000451083
2015-06-26,0.9200222216193976
2015-06-29,0.8896386091328401
2015-06-30,0.8857212602903396
2015-07-01,1.0
2015-07-02,1.0
2015-07-03,0.815039417828984
2015-07-06,0.5267947421637988
2015-07-07,0.3727000427898996
2015-07-08,0.5261797026502902
2015-07-09,0.6274459974587034
2015-07-10,0.7113376429637
2015-07-13,0.7027757307786794
2015-07-14,0.8130841121495337
2015-07-15,0.32894128525196553
2015-07-16,0.10215166074785938
2015-07-17,0.0184093349130213
2015-07-20,0.04596509848124638
2015-07-21,0.023834972940838556
2015-07-22,0.04008155938927546
2015-07-23,0.14480284264283091
2015-07-24,0.25087389959713213
2015-07-27,0.527156904298064
2015-07-28,0.7318168577087766
2015-07-29,0.870392382364591
2015-07-30,0.8050847457627158
2015-07-31,0.905720338983053
2015-08-03,0.14101531023368305
2015-08-04,0.1019376579612468
2015-08-05,0.041050903119867914
2015-08-06,0.03589375448671861
2015-08-07,0.03436426116838422
2015-08-10,0.49349112426035474
2015-08-11,0.3185763888888886
2015-08-12,0.3404452690166972
2015-08-13,0.4146892655367223
2015-08-14,0.3601570166830214
2015-08-17,0.0
2015-08-18,0.6258106355382617
2015-08-19,0.699835975943138
2015-08-20,0.7234127669722857
2015-08-21,0.8540343232606828
2015-08-24,1.0
2015-08-25,0.8559390214381032
2015-08-26,0.8530212071632686
2015-08-27,0.8874505562241292
2015-08-28,0.8288105864666245
2015-08-31,0.49377794755631754
2015-09-01,0.4563169186052267
2015-09-02,0.30975769482645743
2015-09-07,0.0
2015-09-08,0.14793856103476133
2015-09-09,0.1912225705329142
2015-09-10,0.18466195761856588
2015-09-11,0.13780120481927627
2015-09-14,0.1211920529801319
2015-09-15,0.0
2015-09-16,0.22934401602403745
2015-09-17,0.30303030303030587
2015-09-18,0.4740538454244658
2015-09-21,0.5049979262098294
2015-09-22,0.7933139597029409
2015-09-23,0.24235075677212128
2015-09-24,0.15561664847409612
2015-09-25,0.035120814254820984
2015-09-28,0.03455128836815347
2015-09-29,0.0
2015-09-30,0.0
2015-10-08,0.4014336917562756
2015-10-09,0.38956521739130573
2015-10-12,0.7485549132947967
2015-10-13,0.6450809464508078
2015-10-14,0.7168021680216805
2015-10-15,0.6390328151986187
2015-10-16,0.7326732673267381
2015-10-19,0.1665912402683247
2015-10-20,0.4213110868207107
2015-10-21,0.6685106016181361
2015-10-22,0.5046489795794815
2015-10-23,0.5491948306086639
2015-10-26,0.7199182242647596
2015-10-27,0.6730605260462712
2015-10-28,0.11755465309918679
2015-10-29,0.1301631032796122
2015-10-30,0.01685393258427396
2015-11-02,0.01624548736462501
2015-11-03,0.0
2015-11-04,0.6182707993474702
2015-11-05,0.891282051282047
2015-11-06,0.9141370338248026
2015-11-09,0.9530346820809241
2015-11-10,1.0
2015-11-11,0.7992063492063491
2015-11-12,0.4787037037037044
2015-11-13,0.3045871559633028
2015-11-16,0.060230522356193895
2015-11-17,0.20987873374309052
2015-11-18,0.24554178106378396
2015-11-19,0.306900565457127
2015-11-20,0.382871082832751
2015-11-23,0.6424001396474978
2015-11-24,0.02045990699737015
2015-11-25,0.022858599081829294
2015-11-26,0.06005568970636986
2015-11-27,0.5997566909975681
2015-11-30,0.6311659192825113
2015-12-01,0.9861111111111095
2015-12-02,1.0
2015-12-03,0.9601449275362313
2015-12-04,0.6010204081632642
2015-12-07,0.5575027382256296
2015-12-08,0.46211312700106744
2015-12-09,0.0
2015-12-10,0.16328413284132806
2015-12-11,0.21248499399759918
2015-12-14,0.43447669305189013
2015-12-15,0.5032021957913987
2015-12-16,0.7586206896551687
2015-12-17,0.5570052441178927
2015-12-18,0.6956845671556359
2015-12-21,0.30574753501443985
2015-12-22,0.18463119916587187
2015-12-23,0.43480376087074407
2015-12-24,0.528928939913991
2015-12-25,0.2906518859553285
2015-12-28,0.4793290749206732
2015-12-29,0.5449868665792564
2015-12-30,0.19999999999999762
2015-12-31,0.194842406876791
2016-01-04,0.8333333333333328
2016-01-05,0.7411477411477417
2016-01-06,0.7633069082672718
2016-01-07,0.9092369477911663
2016-01-08,0.9507672634271105
2016-01-11,0.679012345679011
2016-01-12,0.6094182825484762
2016-01-13,0.6247504990019953
2016-01-14,0.37963693764798795
2016-01-15,0.1205755333948311
2016-01-18,0.1461363029022516
2016-01-19,0.36219029426638805
2016-01-20,0.22058890869753894
2016-01-21,0.34142389069704027
2016-01-22,0.32234288845519155
2016-01-25,0.36074166191890245
2016-01-26,0.34238421959012205
2016-01-27,0.3873053852826707
2016-01-28,0.24581939799331504
2016-01-29,0.4628252788104116
2016-02-01,0.66148531951641
2016-02-02,0.336661911554922
2016-02-03,0.28992628992628866
2016-02-04,0.3395683453237415
2016-02-05,0.16203143893591443
2016-02-15,0.0
2016-02-16,0.044660194174760304
2016-02-17,0.091859061662167
2016-02-18,0.09999742586632797
2016-02-19,0.2587700059171911
2016-02-22,0.6526066216009335
2016-02-23,0.2836095420490912
2016-02-24,0.32645428588038705
2016-02-25,0.8503924603919828
2016-02-26,0.8700647679275477
2016-02-29,0.8777182541596854
2016-03-01,1.0
2016-03-02,1.0
2016-03-03,0.47403314917126815
2016-03-04,0.5633027522935757
2016-03-07,0.49676823638042505
2016-03-08,0.46777343750000117
2016-03-09,0.3166666666666682
2016-03-10,0.6745213549337304
2016-03-11,0.3298033282904723
2016-03-14,0.36762225969646234
2016-03-15,0.18595041322314335
2016-03-16,0.2634228187919493
2016-03-17,0.06595744680850978
2016-03-18,0.25699711201835035
2016-03-21,0.437279531492953
2016-03-22,0.70465593000275
2016-03-23,0.6220478644557933
2016-03-24,0.6185687176986088
2016-03-25,0.34281077886914363
2016-03-28,0.026833086568337515
2016-03-29,0.3250501928500103
2016-03-30,0.3773791833665843
2016-03-31,0.24383561643835358
2016-04-01,0.5635910224438878
2016-04-05,0.5750636132315382
2016-04-06,0.34579439252335215
2016-04-07,0.3665158371040667
2016-04-08,0.4462809917355318
2016-04-11,0.07598784194529305
2016-04-12,0.05733944954128869
2016-04-13,0.34505494505494655
2016-04-14,0.254335260115605
2016-04-15,0.26203831952088885
2016-04-18,0.30884173899855444
2016-04-19,0.5598850863059018
2016-04-20,0.6514265046716007
2016-04-21,0.8689175148991929
2016-04-22,0.9382820859319347
2016-04-25,1.0
2016-04-26,1.0
2016-04-27,0.46375142083742027
2016-04-28,0.31523642732048884
2016-04-29,0.18474576271186396
2016-05-03,0.2645259938837918
2016-05-04,0.14022662889518517
2016-05-05,0.20162932790224328
2016-05-06,0.47593582887700736
2016-05-09,0.6518771331058081
2016-05-10,0.4685430463576212
2016-05-11,0.6198830409356727
2016-05-12,0.7884267631103085
2016-05-13,0.4644714038128263
2016-05-16,0.29310344827585705
2016-05-17,0.34931506849314253
2016-05-18,0.3841473822588404
2016-05-19,0.14207543247243754
2016-05-20,0.3043386189061216
2016-05-23,0.36105159531669817
2016-05-24,0.40458728754682965
2016-05-25,0.06971503619872137
2016-05-26,0.4325770283393764
2016-05-27,0.32057676477806857
2016-05-30,0.455974096929861
2016-05-31,0.765407554671974
2016-06-01,0.9109589041095949
2016-06-02,0.7208791208791269
2016-06-03,0.8131634819532935
2016-06-06,0.7792792792792846
2016-06-07,0.13995943204868705
2016-06-08,0.11434511434511763
2016-06-13,0.41114982578397163
2016-06-14,0.37523105360442965
2016-06-15,0.4906832298136587
2016-06-16,0.9947154990944516
2016-06-17,1.0
2016-06-20,0.6360264337337954
2016-06-21,0.6619577745284912
2016-06-22,0.35050753657832523
2016-06-23,0.23229009145001653
2016-06-24,0.48480952692136564
2016-06-27,0.611511753966318
2016-06-28,0.45135961747902925
2016-06-29,0.625377643504526
2016-06-30,0.596541786743504
2016-07-01,0.0
2016-07-04,0.2607076350093125
2016-07-05,0.29661016949152547
2016-07-06,0.2991452991453022
2016-07-07,0.334065934065937
2016-07-08,0.8571428571428648
2016-07-11,0.10191082802546729
2016-07-12,0.613861386138611
2016-07-13,0.6778711484593793
2016-07-14,0.6695402298850562
2016-07-15,0.6734641197728436
2016-07-18,0.9196927721012497
2016-07-19,0.4161168036037338
2016-07-20,0.060035059980074364
2016-07-21,0.07117092025621848
2016-07-22,0.2128493710601428
2016-07-25,0.18949434689464315
2016-07-26,0.31163735054246633
2016-07-27,0.8678485659333061
2016-07-28,0.8743455497382148
2016-07-29,0.808864265927961
2016-08-01,0.9401709401709277
2016-08-02,0.7120535714285596
2016-08-03,0.1399548532731355
2016-08-04,0.08796296296295994
2016-08-05,0.15990990990990533
2016-08-08,0.09024390243902788
2016-08-09,0.1945288753799417
2016-08-10,0.6274509803921645
2016-08-11,0.883177570093458
2016-08-12,0.918566775244301
2016-08-15,0.9621212121212122
2016-08-16,0.9675745784695202
2016-08-17,1.0
2016-08-18,0.9852240154405469
2016-08-19,0.8156537181144881
2016-08-22,0.33858141436302214
2016-08-23,0.1553474519051873
2016-08-24,0.0
2016-08-25,0.0
2016-08-26,0.0
2016-08-29,0.0
2016-08-30,0.0
2016-08-31,0.0
2016-09-01,0.0
2016-09-02,0.0
2016-09-05,0.0
2016-09-06,0.5161290322580699
2016-09-07,0.43835616438355546
2016-09-08,0.35555555555555585
2016-09-09,0.39024390243902807
2016-09-12,0.5721649484536127
2016-09-13,0.19665271966527564
2016-09-14,0.2916871032246414
2016-09-19,0.4604134011434493
2016-09-20,0.4178940408467322
2016-09-21,0.18142430181369765
2016-09-22,0.5255192448586562
2016-09-23,0.3692456119193534
2016-09-26,0.40670910703360547
2016-09-27,0.5210366133054327
2016-09-28,0.6761711219235558
2016-09-29,0.41206030150754963
2016-09-30,0.6303030303030327
2016-10-10,0.6089743589743534
2016-10-11,0.3459119496855193
2016-10-12,0.3481012658227631
2016-10-13,0.4867256637168008
2016-10-14,0.524590163934412
2016-10-17,0.7142857142857036
2016-10-18,0.9493243243243302
2016-10-19,0.9969325153374319
2016-10-20,0.9399089310085252
2016-10-21,0.9418708025427867
2016-10-24,0.8686384989802075
2016-10-25,0.34378771726402835
2016-10-26,0.2697467284609655
2016-10-27,0.36517414003656873
2016-10-28,0.18652792496975418
2016-10-31,0.12435509522716146
2016-11-01,0.3526664603414817
2016-11-02,0.29411764705881344
2016-11-03,0.5370919881305525
2016-11-04,0.5535168195718533
2016-11-07,0.7182539682539735
2016-11-08,0.6913043478260894
2016-11-09,0.8384798099762553
2016-11-10,0.5243902439024457
2016-11-11,0.6410788381742808
2016-11-14,0.7665441176470595
2016-11-15,0.7012674541125226
2016-11-16,0.35796010652772764
2016-11-17,0.4926005082660553
2016-11-18,0.293966331652569
2016-11-21,0.15963084993388466
2016-11-22,0.21363721718321044
2016-11-23,0.5601307018690427
2016-11-24,0.5206444886308663
2016-11-25,1.0
2016-11-28,0.7665369649805452
2016-11-29,0.8804780876494024
2016-11-30,0.8852772466539203
2016-12-01,0.8949211908931709
2016-12-02,0.7318982387475564
2016-12-05,0.8043010752688168
2016-12-06,0.24255319148936827
2016-12-07,0.1108986615678789
2016-12-08,0.0
2016-12-09,0.16256157635467872
2016-12-12,0.3333333333333342
2016-12-13,0.5443786982248506
2016-12-14,0.7381974248927039
2016-12-15,1.0
2016-12-16,0.7591974435741375
2016-12-19,0.4805369246256329
2016-12-20,0.5174757644597499
2016-12-21,0.45659993450193254
2016-12-22,0.1279772604787316
2016-12-23,0.19624145735743162
2016-12-26,0.5774418414811002
2016-12-27,0.39493969686489205
2016-12-28,0.383647798742135
2016-12-29,0.6320754716981147
2016-12-30,0.5270655270655308
2017-01-03,0.07003891050584321
2017-01-04,0.1666666666666754
2017-01-05,0.15789473684211364
2017-01-06,0.05607476635513919
2017-01-09,0.07185628742514769
2017-01-10,0.05479452054794403
2017-01-11,0.0
2017-01-12,0.16444444444444253
2017-01-13,0.37339055793992076
2017-01-16,0.6381909547738701
2017-01-17,0.9236363636363564
2017-01-18,0.9954022988505749
2017-01-19,0.9949909765175249
2017-01-20,0.9114472815559875
2017-01-23,0.5229811778314166
2017-01-24,0.520197306203193
2017-01-25,0.0035705300825300142
2017-01-26,0.0
2017-02-03,0.18078325343718424
2017-02-06,0.24276063327534123
2017-02-07,0.3063364276227453
2017-02-08,0.7712765957446749
2017-02-09,0.8878048780487683
2017-02-10,0.46288209606985364
2017-02-13,0.45493562231758994
2017-02-14,0.3320093177772069
2017-02-15,0.14690088475286728
2017-02-16,0.0
2017-02-17,0.3985566752032173
2017-02-20,0.6196520543034699
2017-02-21,0.7167387828855947
2017-02-22,0.792880205423649
2017-02-23,0.9441403397081262
2017-02-24,0.6105370994424307
2017-02-27,0.33212996389891153
2017-02-28,0.19327731092436726
2017-03-01,0.3107569721115598
2017-03-02,0.31349206349207165
2017-03-03,0.5857142857143033
2017-03-06,0.5694444444444483
2017-03-07,0.5061728395061662
2017-03-08,0.3496503496503409
2017-03-09,0.021428571428575727
2017-03-10,0.0
2017-03-13,0.4696969696969828
2017-03-14,0.9360000000000037
2017-03-15,0.9435483870967754
2017-03-16,0.9784651693899018
2017-03-17,0.997759361377836
2017-03-20,0.9333303214221839
2017-03-21,0.1237597923194635
2017-03-22,0.15457816288241333
2017-03-23,0.14537200953207383
2017-03-24,0.03831550713115879
2017-03-27,0.07275917207164789
2017-03-28,0.7374866575019405
2017-03-29,0.46853146853144406
2017-03-30,0.5193798449612196
2017-03-31,0.3401015228426326
2017-04-05,0.15517241379310123
2017-04-06,0.03921568627451678
2017-04-07,0.049586776859514355
2017-04-10,0.040268456375846966
2017-04-11,0.566929133858285
2017-04-12,0.6806722689075743
2017-04-13,0.5281690140845031
2017-04-14,0.642458100558647
2017-04-17,0.8242424242424098
2017-04-18,0.4022988505746953
2017-04-19,0.3809523809523662
2017-04-20,0.49404699428314686
2017-04-21,0.1977751281819208
2017-04-24,0.13780264516685548
2017-04-25,0.1870441030258799
2017-04-26,0.12797561710262717
2017-04-27,0.26445311792512916
2017-04-28,0.49978921960590217
2017-05-02,0.39491461191167637
2017-05-03,0.6159836621873525
2017-05-04,0.761061946902646
2017-05-05,0.6999999999999936
2017-05-08,0.7065217391304234
2017-05-09,0.7558139534883513
2017-05-10,0.5806451612903194
2017-05-11,0.7560975609756392
2017-05-12,0.8561151079136852
2017-05-15,0.7058823529411872
2017-05-16,0.8407643312101933
2017-05-17,0.8783295036316164
2017-05-18,0.642882948970688
2017-05-19,0.18828951350276826
2017-05-22,0.3487528732129706
2017-05-23,0.43427658268119
2017-05-24,0.5066560994309792
2017-05-25,0.7887539176388833
2017-05-26,1.0
2017-05-31,1.0
2017-06-01,0.9842022116903675
2017-06-02,0.9829351535836222
2017-06-05,0.5010526315789512
2017-06-06,0.3535353535353584
2017-06-07,0.0373333333333312
2017-06-08,0.15012106537529796
2017-06-09,0.11940298507462338
2017-06-12,0.28651685393257725
2017-06-13,0.35329341317364044
2017-06-14,0.9577464788732134
2017-06-15,0.2613130468896226
2017-06-16,0.24348524009795527
2017-06-19,0.46000334664426107
2017-06-20,0.5240055349792431
2017-06-21,0.5810929292373743
2017-06-22,0.9560497910645857
2017-06-23,1.0
2017-06-26,0.7795542117774057
2017-06-27,0.7609428559337583
2017-06-28,0.6041666666666718
2017-06-29,0.23566878980891454
2017-06-30,0.0026315789473642173
2017-07-03,0.006289308176096417
2017-07-04,0.003030303030303767
2017-07-05,0.2853470437017994
2017-07-06,0.49501661129568275
2017-07-07,0.922155688622735
2017-07-10,0.8895348837209219
2017-07-11,0.9790209790209857
2017-07-12,0.9670329670329776
2017-07-13,0.9668508287292923
2017-07-14,0.9781021897810293
2017-07-17,1.0
2017-07-18,0.8590425531914956
2017-07-19,0.7905236907730739
2017-07-20,0.6407322654462243
2017-07-21,0.48803724670677484
2017-07-24,0.0
2017-07-25,0.0
2017-07-26,0.01382366150899153
2017-07-27,0.05232815165496953
2017-07-28,0.05208308647912073
2017-07-31,0.06841404979152381
2017-08-01,0.425294986674898
2017-08-02,0.23977962629496719
2017-08-03,0.4413145539906142
2017-08-04,0.5333333333333362
2017-08-07,0.6733167082294287
2017-08-08,0.45011086474501655
2017-08-09,0.6377708978328234
2017-08-10,0.38288288288289274
2017-08-11,0.3911111111111155
2017-08-14,0.26315789473683565
2017-08-15,0.8034188034187926
2017-08-16,0.7779677431003452
2017-08-17,0.38733125716901834
2017-08-18,0.18812062594359638
2017-08-21,0.17610408548051687
2017-08-22,0.0
2017-08-23,0.27478824225904136
2017-08-24,0.6502333762567751
2017-08-25,0.9159673835666715
2017-08-28,0.9764408172027074
2017-08-29,0.9246435845213791
2017-08-30,0.9193899782135011
2017-08-31,0.8807785888077779
2017-09-01,0.45736434108525975
2017-09-04,0.11864406779660916
2017-09-05,0.23419203747072873
2017-09-06,0.10344827586207223
2017-09-07,0.14851485148515048
2017-09-08,0.18610421836228616
2017-09-11,0.47904191616766695
2017-09-12,0.338509316770184
2017-09-13,0.48017621145373496
2017-09-14,0.404761904761899
2017-09-15,0.5173602782441776
2017-09-18,0.0
2017-09-19,0.2486545603550435
2017-09-20,0.2709734023484316
2017-09-21,0.2819869231423614
2017-09-22,0.3953108864438825
2017-09-25,0.5901430297954858
2017-09-26,0.10850213800139863
2017-09-27,0.20902779081399733
2017-09-28,0.13833992094862016
2017-09-29,0.0681818181818227
2017-10-09,0.48936170212766544
2017-10-10,0.7362385321100893
2017-10-11,0.7129411764705863
2017-10-12,0.9074074074074103
2017-10-13,0.8596491228070202
2017-10-16,0.39793281653746265
2017-10-17,0.1081081081081051
2017-10-18,0.156657963446473
2017-10-19,0.04796163069544467
2017-10-20,0.1317782570249248
2017-10-23,0.22864189059050435
2017-10-24,0.5872739032627204
2017-10-25,0.4156194145324784
2017-10-26,0.8031474707460611
2017-10-27,0.8526275096733947
2017-10-30,0.8983889404227803
2017-10-31,0.7665249038207101
2017-11-01,0.8798460018980192
2017-11-02,0.6820702402957526
2017-11-03,0.4678714859437756
2017-11-06,0.22535211267605657
2017-11-07,0.4290909090909053
2017-11-08,0.27373068432670394
2017-11-09,0.3736263736263652
2017-11-10,0.6229050279329554
2017-11-13,0.9374999999999879
2017-11-14,0.545945945945953
2017-11-15,0.44298245614037046
2017-11-16,0.5699920298563016
2017-11-17,0.5267648828800124
2017-11-20,0.676502356865388
2017-11-21,0.9096612692683337
2017-11-22,1.0
2017-11-23,1.0
2017-11-24,0.9345912090361257
2017-11-27,0.9274626102740915
2017-11-28,0.6212660825365669
2017-11-29,0.5827250608272533
2017-11-30,0.11155378486055746
2017-12-01,0.11847672778561344
2017-12-04,0.09682080924855402
2017-12-05,0.43387096774193196
2017-12-06,0.3732142857142816
2017-12-07,0.8995983935742956
2017-12-08,1.0
2017-12-11,0.8491803278688539
2017-12-12,0.32947976878611135
2017-12-13,0.21960784313724813
2017-12-14,0.13183279742765033
2017-12-15,0.0
2017-12-18,0.0
2017-12-19,0.0
2017-12-20,0.0
2017-12-21,0.22354246338037093
2017-12-22,0.18774801253358944
2017-12-25,0.392243243787439
2017-12-26,0.39800278246522225
2017-12-27,0.7326678264318806
2017-12-28,0.6045627376425885
2017-12-29,0.7149028077753786
2018-01-02,0.6325459317585271
2018-01-03,0.7800586510263915
2018-01-04,0.10857142857141819
2018-01-05,0.10326086956520694
2018-01-08,0.06684491978609398
2018-01-09,0.055928411633107966
2018-01-10,0.0
2018-01-11,0.025252525252532142
2018-01-12,0.21739130434782222
2018-01-15,0.6113537117903934
2018-01-16,0.9515151515151458
2018-01-17,1.0
2018-01-18,1.0
2018-01-19,1.0
2018-01-22,0.7911781831397082
2018-01-23,0.7955549322513797
2018-01-24,0.4595367164949957
2018-01-25,0.42570469383727455
2018-01-26,0.45367383440351616
2018-01-29,0.8318789745790097
2018-01-30,0.8430886468027394
2018-01-31,1.0
2018-02-01,0.9023437500000011
2018-02-02,0.9094202898550736
2018-02-05,0.5854430379746909
2018-02-06,0.6158357771261035
2018-02-07,0.848203939745078
2018-02-08,0.9321608040201024
2018-02-09,0.9543147208121842
2018-02-12,0.9250956806998363
2018-02-13,0.9042727030413656
2018-02-14,0.5815931802274363
2018-02-22,0.3701283067073414
2018-02-23,0.0
2018-02-26,0.01780505289232985
2018-02-27,0.03491529603158212
2018-02-28,0.07427194457191012
2018-03-01,0.21217477789965064
2018-03-02,1.0
2018-03-05,1.0
2018-03-06,0.8479262672810973
2018-03-07,0.8854166666666622
2018-03-08,0.46792452830188674
2018-03-09,0.41156462585033854
2018-03-12,0.2536231884057983
2018-03-13,0.24305555555555736
2018-03-14,0.0
2018-03-15,0.04605263157894154
2018-03-16,0.23821178118970024
2018-03-19,0.39322738939453167
2018-03-20,0.35601945753787495
2018-03-21,0.7800925871612149
2018-03-22,0.8048767590092765
2018-03-23,0.7927815467394029
2018-03-26,0.8145684541415894
2018-03-27,1.0
2018-03-28,1.0
2018-03-29,1.0
2018-03-30,0.7308248914616507
2018-04-02,0.6761744966442972
2018-04-03,0.5232358003442341
2018-04-04,0.32888888888888973
2018-04-09,0.0
2018-04-10,0.2639405204460931
2018-04-11,0.22805139186295179
2018-04-12,0.26781609195401945
2018-04-13,0.3989569752281554
2018-04-16,0.7774086378737521
2018-04-17,0.5717488789237679
2018-04-18,0.8298507462686595
2018-04-19,0.8251533742331307
2018-04-20,0.7829776890197717
2018-04-23,0.18268418897053582
2018-04-24,0.35230582883831785
2018-04-25,0.1980380280251031
2018-04-26,0.47818038134218654
2018-04-27,0.5221641929725298
2018-05-02,0.6976633562097089
2018-05-03,0.5108423522704086
2018-05-04,0.6682844073590131
2018-05-07,0.27070063694268465
2018-05-08,0.11728395061729392
2018-05-09,0.10215053763441746
2018-05-10,0.10382513661202966
2018-05-11,0.0
2018-05-14,0.0
2018-05-15,0.0
2018-05-16,0.17954545454545506
2018-05-17,0.212654714646721
2018-05-18,0.4994046242748265
2018-05-21,0.6948707270103739
2018-05-22,0.9510067998524133
2018-05-23,0.943201496579005
2018-05-24,1.0
2018-05-25,0.5631550449988888
2018-05-28,0.4489196132105948
2018-05-29,0.3038334618186284
2018-05-30,0.11764705882351718
2018-05-31,0.2663043478260827
2018-06-01,0.3951612903225816
2018-06-04,0.5109489051095008
2018-06-05,0.4268292682926827
2018-06-06,0.25179856115108445
2018-06-07,0.0702341137123844
2018-06-08,0.343406593406596
2018-06-11,0.28415300546447625
2018-06-12,0.43500000000000055
2018-06-13,0.7000000000000017
2018-06-14,0.9175627240143304
2018-06-15,0.5167283111735186
2018-06-19,0.78423772468336
2018-06-20,0.7106891512870608
2018-06-21,0.7697209864120584
2018-06-22,0.7214459762698427
2018-06-25,0.924219266006722
2018-06-26,0.6609391592557852
2018-06-27,0.7812453390809488
2018-06-28,0.6951222117577537
2018-06-29,0.7613941018766744
2018-07-02,0.7691309987029815
2018-07-03,0.9622093023255813
2018-07-04,0.6493902439024369
2018-07-05,0.6802507836990568
2018-07-06,0.6964285714285692
2018-07-09,0.28688524590163866
2018-07-10,0.1647196261682221
2018-07-11,0.20827178729689572
2018-07-12,0.2984293193717267
2018-07-13,0.10215053763440841
2018-07-16,0.14393939393939303
2018-07-17,0.2282157676348553
2018-07-18,0.2961460446247484
2018-07-19,0.09123434704830342
2018-07-20,0.692003770277755
2018-07-23,0.7481896296677442
2018-07-24,0.7683981915741676
2018-07-25,0.6434012218769393
2018-07-26,0.8322246775543369
2018-07-27,0.23949428005574197
2018-07-30,0.22041333150160133
2018-07-31,0.1093575629227068
2018-08-01,0.46462694904249124
2018-08-02,0.49148936170212665
2018-08-03,0.8345978755690447
2018-08-06,0.876632801161102
2018-08-07,1.0
2018-08-08,0.6603221083455328
2018-08-09,0.587921847246892
2018-08-10,0.4628571428571432
2018-08-13,0.3772455089820391
2018-08-14,3.4328794608650246e-15
2018-08-15,0.31122448979592104
2018-08-16,0.296429445990387
2018-08-17,0.5496670513099564
2018-08-20,0.5407741955359744
2018-08-21,0.8701366730512414
2018-08-22,0.47909363064513105
2018-08-23,0.39781911051452573
2018-08-24,0.1787093244057911
2018-08-27,0.19075651383571582
2018-08-28,0.0
2018-08-29,0.0
2018-08-30,0.0
2018-08-31,0.0
2018-09-03,0.0
2018-09-04,0.4210526315789503
2018-09-05,0.6816608996539841
2018-09-06,0.7003546099290793
2018-09-07,0.8742393509127796
2018-09-10,1.0
2018-09-11,0.7196969696969763
2018-09-12,0.15269461077844226
2018-09-13,0.13888888888889112
2018-09-14,0.03218390804597876
2018-09-17,0.0
2018-09-18,0.3229357798165072
2018-09-19,0.5781584582441067
2018-09-20,0.49360146252284814
2018-09-21,0.7955258376128915
2018-09-25,0.8613182093588506
2018-09-26,0.6997322941134749
2018-09-27,0.5514381527910953
2018-09-28,0.7036870129963779
2018-10-08,0.2820167956400713
2018-10-09,0.32811325239994027
2018-10-10,0.3883356050807459
2018-10-11,0.7576901124515404
2018-10-12,0.7577741407528668
2018-10-15,0.7112135176651303
2018-10-16,0.7370629370629364
2018-10-17,0.803140096618357
2018-10-18,0.5125698324022329
2018-10-19,0.5700652322713823
2018-10-22,0.8135192494233564
2018-10-23,0.8287695686210332
2018-10-24,0.777729328362296
2018-10-25,0.9653536677657503
2018-10-26,0.7341844382926117
2018-10-29,0.5154958650438084
2018-10-30,0.20089975522636921
2018-10-31,0.17882404217642267
2018-11-01,0.0
2018-11-02,0.0
2018-11-05,0.0
2018-11-06,0.0
2018-11-07,0.013008130081300976
2018-11-08,0.014285714285714476
2018-11-09,0.01311475409836072
2018-11-12,0.02156334231805949
2018-11-13,0.4274406332453802
2018-11-14,0.3615023474178381
2018-11-15,0.43906761208753814
2018-11-16,0.6224137826485936
2018-11-19,0.8182752176618255
2018-11-20,0.3988957674591426
2018-11-21,0.380920276532865
2018-11-22,0.39828559603942765
2018-11-23,0.23697606263269502
2018-11-26,0.05991055107544281
2018-11-27,0.06345258234976006
2018-11-28,0.3190184049079881
2018-11-29,0.23952095808384136
2018-11-30,0.186915887850472
2018-12-03,0.21395348837210745
2018-12-04,0.2754491017964264
2018-12-05,0.033149171270732795
2018-12-06,0.02985074626866933
2018-12-07,0.037037037037053584
2018-12-10,0.0
2018-12-11,0.0
2018-12-12,0.0
2018-12-13,0.34893617021276796
2018-12-14,0.4887892376681564
2018-12-17,0.5069767441860454
2018-12-18,0.8187919463087222
2018-12-19,0.9289473684210534
2018-12-20,0.9278074866310163
2018-12-21,0.9393851436949971
2018-12-24,1.0
2018-12-25,1.0
2018-12-26,0.8504605556050312
2018-12-27,0.6398032811365201
2018-12-28,0.41649384701121567
2019-01-02,0.47698808901908923
2019-01-03,0.21040772796885018
2019-01-04,0.4859443555574271
2019-01-07,0.4909747292418708
2019-01-08,0.483126110124328
2019-01-09,0.34749034749034746
2019-01-10,0.42857142857142794
2019-01-11,0.0
2019-01-14,0.0
2019-01-15,0.3317865429234394
2019-01-16,0.29423868312757434
2019-01-17,0.3439490445859914
2019-01-18,0.652264120753107
2019-01-21,0.7257610528383357
2019-01-22,0.45831587052504374
2019-01-23,0.7609865290124777
2019-01-24,0.7359145004987926
2019-01-25,0.47226070969223605
2019-01-28,0.5622507205798665
2019-01-29,0.7881343720171219
2019-01-30,0.6611418674293172
2019-01-31,0.6612903225806542
2019-02-01,0.5857142857142995
2019-02-11,0.09999999999998892
2019-02-12,0.0
2019-02-13,0.6260623229461839
2019-02-14,0.5334025095031879
2019-02-15,0.714463183434631
2019-02-18,0.747742203455226
2019-02-19,0.8922335445416475
2019-02-20,0.5344098800577266
2019-02-21,0.6983200816205104
2019-02-22,0.6689512704233668
2019-02-25,0.8492115920490203
2019-02-26,0.8580816093030905
2019-02-27,1.0
2019-02-28,0.9382716049382727
2019-03-01,0.9279801324503316
2019-03-04,0.4813186813186821
2019-03-05,0.2232232232232222
2019-03-06,0.0
2019-03-07,0.13578826237053948
2019-03-08,0.13625866050808222
2019-03-11,0.1536458333333321
2019-03-12,0.4383116883116862
2019-03-13,0.4631217838765011
2019-03-14,0.2748643761301987
2019-03-15,0.22898001640074925
2019-03-18,0.6003329523882767
2019-03-19,0.38741900853736017
2019-03-20,0.3735314228332278
2019-03-21,0.39882242606971563
2019-03-22,0.5091074527979922
2019-03-25,0.0
2019-03-26,0.0
2019-03-27,0.0
2019-03-28,0.13620071684588497
2019-03-29,0.5960854092526644
2019-04-01,0.7052631578947406
2019-04-02,0.627340823970037
2019-04-03,0.8094435075885328
2019-04-04,0.8150572831423882
2019-04-08,0.43506493506493865
2019-04-09,0.40119760479042077
2019-04-10,0.6381909547738738
2019-04-11,0.6393989983305535
2019-04-12,0.5157728706624641
2019-04-15,0.7000000000000025
2019-04-16,0.8949191685912258
2019-04-17,0.7618437900128057
2019-04-18,0.46280991735537425
2019-04-19,0.6175388784697055
2019-04-22,0.6246807200178747
2019-04-23,0.28061720498419757
2019-04-24,0.3933882616307658
2019-04-25,0.6036299497173181
2019-04-26,0.3668069492893882
2019-04-29,0.2625843561614906
2019-04-30,0.38613480921507276
2019-05-06,0.44395612161243136
2019-05-07,0.41887905604719644
2019-05-08,0.5719844357976692
2019-05-09,0.8337595907928411
2019-05-10,1.0
2019-05-13,0.554824561403508
2019-05-14,0.49316628701594456
2019-05-15,0.5141921397379902
2019-05-16,0.396925858951174
2019-05-17,0.05111569484917167
2019-05-20,0.2557702876999508
2019-05-21,0.2644700035999848
2019-05-22,0.17070593441819398
2019-05-23,0.344022617523635
2019-05-24,0.3995918913899141
2019-05-27,0.3135390381738726
2019-05-28,0.29020535856346463
2019-05-29,0.5675870276609973
2019-05-30,0.4639423076923034
2019-05-31,0.7359154929577432
2019-06-03,0.4220963172804486
2019-06-04,0.45565749235473874
2019-06-05,0.05387205387205466
2019-06-06,0.047058823529412146
2019-06-10,0.0
2019-06-11,0.3746478873239466
2019-06-12,0.30434782608696215
2019-06-13,0.37464788732395443
2019-06-14,0.5389221556886356
2019-06-17,0.518731988472634
2019-06-18,0.10779816513761546
2019-06-19,0.3738938053097349
2019-06-20,0.6869772998805246
2019-06-21,0.6353406583837914
2019-06-24,0.6866060995314042
2019-06-25,0.9518177819269723
2019-06-26,0.8697721176435433
2019-06-27,0.3719821665955659
2019-06-28,0.38511768550518444
2019-07-01,0.3388546308174587
2019-07-02,0.0
2019-07-03,0.04668651041161753
2019-07-04,0.09510086455332144
2019-07-05,0.15536723163843355
2019-07-08,0.4220907297830419
2019-07-09,0.9603960396039537
2019-07-10,0.9416058394160438
2019-07-11,0.9862542955326392
2019-07-12,0.9874999999999935
2019-07-15,0.9826086956521647
2019-07-16,0.8563218390804432
2019-07-17,0.8465909090909056
2019-07-18,0.43956043956043245
2019-07-19,0.28760086672828283
2019-07-22,0.0
2019-07-23,0.0
2019-07-24,0.049857520183256
2019-07-25,0.1958209325219756
2019-07-26,0.17905583312935872
2019-07-29,0.24671708104157788
2019-07-30,0.33366194462773224
2019-07-31,0.2223588739882918
2019-08-01,0.17647058823530237
2019-08-02,0.28251121076234825
2019-08-05,0.827956989247323
2019-08-06,0.8790931989924505
2019-08-07,1.0
2019-08-08,0.8648018648018613
2019-08-09,0.8684807256235781
2019-08-12,0.671874999999989
2019-08-13,0.25151515151514214
2019-08-14,0.10204081632652238
2019-08-15,0.5183205714579355
2019-08-16,0.5326970846458695
2019-08-19,0.6771166060792827
2019-08-20,0.9394751556245323
2019-08-21,0.7550163332310945
2019-08-22,0.3157121172618731
2019-08-23,0.2936928551251495
2019-08-26,0.06084706361969978
2019-08-27,0.21725781120966167
2019-08-28,0.37842778793418336
2019-08-29,0.6502463054187174
2019-08-30,0.5595238095238023
2019-09-02,0.8643533123028259
2019-09-03,0.557275541795654
2019-09-04,0.46240601503757883
2019-09-05,0.5586419753086319
2019-09-06,0.570977917981072
2019-09-09,0.4813559322034074
2019-09-10,0.7992424242424513
2019-09-11,0.7773109243697749
2019-09-12,0.319634703196363
2019-09-16,0.46445497630333626
2019-09-17,0.6643356643356726
2019-09-18,0.45833333333333226
2019-09-19,0.4109589041095953
2019-09-20,0.39349498991772125
2019-09-23,0.3047668392853463
2019-09-24,0.0
2019-09-25,0.025775828479424535
2019-09-26,0.02763697467769502
2019-09-27,0.14682106962333297
2019-09-30,0.4386866244665626
2019-10-08,0.9601659525451877
2019-10-09,0.96654473477388
2019-10-10,1.0
2019-10-11,1.0
2019-10-14,0.9416909620991323
2019-10-15,0.6240601503759423
2019-10-16,0.6606334841628982
2019-10-17,0.5501066098081104
2019-10-18,0.4980485224391502
2019-10-21,0.4227502169915102
2019-10-22,0.6394832451168176
2019-10-23,0.4526590415762182
2019-10-24,0.5971613108486776
2019-10-25,0.2670290025576278
2019-10-28,0.3400124228244325
2019-10-29,0.17923591633711022
2019-10-30,0.20426338560832236
2019-10-31,0.009646302250802073
2019-11-01,0.41441441441441496
2019-11-04,0.3201438848920869
2019-11-05,0.6384439359267697
2019-11-06,0.6052060737527166
2019-11-07,0.7533039647577146
2019-11-08,0.5672645739910287
2019-11-11,0.7214137214137232
2019-11-12,0.3568181818181842
2019-11-13,0.4237458385948686
2019-11-14,0.26009707565892953
2019-11-15,0.2660733567670574
2019-11-18,0.09951763333789687
2019-11-19,0.17493744270739733
2019-11-20,0.38447320632310106
2019-11-21,0.61949422207337
2019-11-22,0.9715096560861132
2019-11-25,0.7702155150785264
2019-11-26,0.7375328083989579
2019-11-27,0.5706371191135801
2019-11-28,0.5571428571428484
2019-11-29,0.0996015936254769
2019-12-02,0.11904761904759675
2019-12-03,0.3388429752065879
2019-12-04,0.3628318584070572
2019-12-05,0.23265306122448198
2019-12-06,0.17065868263472886
2019-12-09,0.19269102990032613
2019-12-10,0.0029069767441828216
2019-12-11,0.05000000000000568
2019-12-12,0.05755395683453918
2019-12-13,0.6076923076923144
2019-12-16,0.5858208955223908
2019-12-17,0.9739952718676078
2019-12-18,0.9734939759036099
2019-12-19,0.9792147806004564
2019-12-20,0.7008758129524988
2019-12-23,0.8002980832381104
2019-12-24,0.3535918069513749
2019-12-25,0.3330744666110204
2019-12-26,0.33971410422015724
2019-12-27,0.5159523513230659
2019-12-30,0.3949355407789401
2019-12-31,0.9154550373386153
2020-01-02,1.0
2020-01-03,0.9960317460317485
2020-01-06,0.9960937500000024
2020-01-07,0.5239361702127733
2020-01-08,0.5109289617486409
2020-01-09,0.32258064516129253
2020-01-10,0.2977667493796528
2020-01-13,0.07469879518072346
2020-01-14,0.28965517241377836
2020-01-15,0.30169491525422504
2020-01-16,0.5163636363636245
2020-01-17,0.6254968434826161
2020-01-20,0.6591543595556862
2020-01-21,0.6279305255544595
2020-01-22,0.7137714069163931
2020-01-23,0.8458036182283846
2020-02-03,0.9195865042685921
2020-02-04,1.0
2020-02-05,1.0
2020-02-06,1.0
2020-02-07,0.773961661341854
2020-02-10,0.3447712418300645
2020-02-11,0.0752212389380517
2020-02-12,0.039363484087102246
2020-02-13,0.0
2020-02-14,0.0
2020-02-17,0.19528489625725512
2020-02-18,0.2894974798236279
2020-02-19,0.3918797237490673
2020-02-20,0.8454446516072878
2020-02-21,0.9017119165577023
2020-02-24,0.614605430334017
2020-02-25,0.7409886080586511
2020-02-26,0.8303368845899478
2020-02-27,0.466292134831463
2020-02-28,0.5821114369501473
2020-03-02,0.7478368355995066
2020-03-03,0.7347204161248385
2020-03-04,0.5310810810810843
2020-03-05,0.8085676037483293
2020-03-06,0.5936199722607503
2020-03-09,0.34267912772585646
2020-03-10,0.5154994259471853
2020-03-11,0.6463878326996161
2020-03-12,0.4235127478753514
2020-03-13,0.7640036730945835
2020-03-16,0.8976818545163887
2020-03-17,0.8900343642611708
2020-03-18,0.9119064005505869
2020-03-19,1.0
2020-03-20,0.7708677972644722
2020-03-23,0.6026849738506297
2020-03-24,0.4643864372004742
2020-03-25,0.2588914699923549
2020-03-26,0.0
2020-03-27,0.0
2020-03-30,0.0
2020-03-31,0.0
2020-04-01,0.06700307293013007
2020-04-02,0.22753346080306638
2020-04-03,0.30512820512821337
2020-04-07,0.3789808917197527
2020-04-08,0.33615819209039777
2020-04-09,0.12215320910973061
2020-04-10,0.0
2020-04-13,0.0
2020-04-14,0.1462522851919546
2020-04-15,0.22421524663676498
2020-04-16,0.46416382252558896
2020-04-17,0.6600707194342196
2020-04-20,0.9829404110688944
2020-04-21,0.9819555909933863
2020-04-22,0.9862607630621666
2020-04-23,0.9868193812072918
2020-04-24,0.7356279094351635
2020-04-27,0.7615359205579494
2020-04-28,0.7282290615539849
2020-04-29,0.5893526912214521
2020-04-30,0.599206349206351
2020-05-06,0.9310344827586194
2020-05-07,0.6325878594249184
2020-05-08,0.3971962616822464
2020-05-11,0.41809290953545847
2020-05-12,0.27586206896552
2020-05-13,0.002336269742725644
2020-05-14,0.06917066304010606
2020-05-15,0.27079551013306663
2020-05-18,0.3530315155866619
2020-05-19,0.45725951580590696
2020-05-20,0.6919855494670835
2020-05-21,0.6781134957428587
2020-05-22,0.8480082041226241
2020-05-25,0.7081664756816131
2020-05-26,0.6865203761755513
2020-05-27,0.7811447811447823
2020-05-28,0.8459715639810432
2020-05-29,0.34675615212527733
2020-06-01,0.4411764705882321
2020-06-02,0.5531496062992097
2020-06-03,0.612627986348119
2020-06-04,0.3684210526315724
2020-06-05,0.6133333333333256
2020-06-08,0.4896907216494795
2020-06-09,0.31325301204818407
2020-06-10,0.03857566765578711
2020-06-11,0.4092409240924125
2020-06-12,0.5301837270341279
2020-06-15,0.6865671641791079
2020-06-16,0.6781326781326845
2020-06-17,0.8817891373802001
2020-06-18,0.6846473029045843
2020-06-19,0.48893278924562195
2020-06-22,0.0
2020-06-23,0.6025238400165265
2020-06-24,0.7027547149791784
2020-06-29,0.9409824724981243
2020-06-30,0.5354886579727952
2020-07-01,0.7330428165055023
2020-07-02,0.8299808519073031
2020-07-03,0.8691235320165667
2020-07-06,0.9415656008820295
2020-07-07,1.0
2020-07-08,1.0
2020-07-09,0.9012289485662276
2020-07-10,0.8944552529182889
2020-07-13,0.46974063400576266
2020-07-14,0.15552427867698623
2020-07-15,0.05895039539899254
2020-07-16,0.4132186996238585
2020-07-17,0.3651510557546961
2020-07-20,0.5847247340950464
2020-07-21,0.598038054104295
2020-07-22,0.6908738287684664
2020-07-23,0.11249189976387565
2020-07-24,0.3944835195313988
2020-07-27,0.32989261117732377
2020-07-28,0.4093661727023363
2020-07-29,0.33405485823460507
2020-07-30,0.4176954732510263
2020-07-31,0.02983138780803795
2020-08-03,0.03662420382165149
2020-08-04,0.08194233687405875
2020-08-05,0.07500000000000726
2020-08-06,0.4061135371179102
2020-08-07,0.4195488721804545
2020-08-10,0.6251588310038139
2020-08-11,0.6758241758241749
2020-08-12,0.8113207547169788
2020-08-13,0.5492289442467353
2020-08-14,0.6690751445086734
2020-08-17,0.5903398926654787
2020-08-18,0.23007518796992996
2020-08-19,0.16253099597728568
2020-08-20,0.2440257350924831
2020-08-21,0.1803427072748447
2020-08-24,0.025256153378164736
2020-08-25,0.11537145159070127
2020-08-26,0.0736187420828864
2020-08-27,0.09410209460076867
2020-08-28,0.48348422546022113
2020-08-31,0.9155144809697657
2020-09-01,0.846034214618976
2020-09-02,0.9237288135593302
2020-09-03,0.9329359165424814
2020-09-04,0.4828060522696048
2020-09-07,0.2279260780287447
2020-09-08,0.3547758284600297
2020-09-09,0.3383177570093383
2020-09-10,0.16094032549727688
2020-09-11,0.4942965779467602
2020-09-14,0.18006430868167006
2020-09-15,0.0738738738738767
2020-09-16,0.06269113149847305
2020-09-17,0.08378870673953083
2020-09-18,0.3962306177473044
2020-09-21,0.8127855650483293
2020-09-22,0.8469525406411892
2020-09-23,0.9532539502088088
2020-09-24,0.9592733569405777
2020-09-25,0.5166572479380772
2020-09-28,0.2874851296621717
2020-09-29,0.11917419618212162
2020-09-30,0.2700928601915884
2020-10-09,0.16253443526170966
2020-10-12,0.49710982658959496
2020-10-13,0.5837104072398194
2020-10-14,0.737142857142861
2020-10-15,0.5090090090090106
2020-10-16,0.7101473075482228
2020-10-19,0.40258999458670564
2020-10-20,0.34382101567006795
2020-10-21,0.48535521565757234
2020-10-22,0.8296245856649506
2020-10-23,0.6770232593918161
2020-10-26,0.4291441039226296
2020-10-27,0.5497275033890346
2020-10-28,0.5157976781392197
2020-10-29,0.4776119402985062
2020-10-30,0.6249999999999943
2020-11-02,0.7668711656441646
2020-11-03,0.8111382716079494
2020-11-04,0.7998961045006392
2020-11-05,0.48256140300521966
2020-11-06,0.29142015861331694
2020-11-09,0.3438773747529762
2020-11-10,0.057739244278941025
2020-11-11,0.0
2020-11-12,0.0
2020-11-13,0.2816739514174962
2020-11-16,0.21403508771929253
2020-11-17,0.18597560975609626
2020-11-18,0.3784722222222299
2020-11-19,0.5297619047619139
2020-11-20,0.24840764331210566
2020-11-23,0.5079928952042649
2020-11-24,0.6350093109869639
2020-11-25,0.686399999999999
2020-11-26,0.5454545454545483
2020-11-27,0.8526912181303171
2020-11-30,0.8642297650130594
2020-12-01,0.8930041152263413
2020-12-02,0.8079470198675556
2020-12-03,0.9059405940594059
2020-12-04,0.7291666666666611
2020-12-07,0.3676056338028154
2020-12-08,0.0
2020-12-09,0.045676998368676947
2020-12-10,0.11196319018404963
2020-12-11,0.30746705710102556
2020-12-14,0.40076335877862895
2020-12-15,0.5769230769230741
2020-12-16,0.37067209775967075
2020-12-17,0.43510054844606394
2020-12-18,0.1893803610293145
2020-12-21,0.39148113994920475
2020-12-22,0.5572253766440598
2020-12-23,0.7822453669163495
2020-12-24,0.6144732151478699
2020-12-25,0.789372078290887
2020-12-28,0.5851232255445732
2020-12-29,0.21991159308776062
2020-12-30,0.18345729795851456
2020-12-31,0.4826086956521853
2021-01-04,0.5082644628099158
2021-01-05,0.6765873015873011
2021-01-06,1.0
2021-01-07,1.0
2021-01-08,1.0
2021-01-11,1.0
2021-01-12,1.0
2021-01-13,1.0
2021-01-14,0.9120370370370384
2021-01-15,0.9046754337535361
2021-01-18,0.7872114965798221
2021-01-19,0.153895725546089
2021-01-20,0.0003949842912677977
2021-01-21,0.00043575660171891236
2021-01-22,0.0
2021-01-25,0.0
2021-01-26,0.0
2021-01-27,0.0
2021-01-28,0.0
2021-01-29,0.5600000000000043
2021-02-01,0.3949843260188126
2021-02-02,0.3161856963613594
2021-02-03,0.3963963963963991
2021-02-04,0.46354883081155573
2021-02-05,0.13428120063190774
2021-02-08,0.3547794117647023
2021-02-09,0.7374470719812378
2021-02-10,0.7834576800433619
2021-02-18,0.8655521679750894
2021-02-19,0.9822175357069614
2021-02-22,0.9861746544548349
2021-02-23,0.9802427496240145
2021-02-24,0.9818449387659942
2021-02-25,0.5697982116964717
2021-02-26,0.5904796486706482
2021-03-01,0.2462627852084981
2021-03-02,0.38187702265372286
2021-03-03,0.2114208021753916
2021-03-04,0.44360902255639273
2021-03-05,0.49887133182844473
2021-03-08,0.862876254180602
2021-03-09,0.7399561723886044
2021-03-10,0.711376404494382
2021-03-11,0.6133023975251352
2021-03-12,0.4590043923865276
2021-03-15,0.0
2021-03-16,0.0
2021-03-17,0.11280214861235449
2021-03-18,0.09775019394879725
2021-03-19,0.2730674796509881
2021-03-22,0.3596449906075842
2021-03-23,0.5506981874119021
2021-03-24,0.49108450939266846
2021-03-25,0.789060715640252
2021-03-26,0.4105374905407524
2021-03-29,0.4064004821407909
2021-03-30,0.16596662879073287
2021-03-31,0.10177514116829055
2021-04-01,0.10132890365448836
2021-04-02,0.11466165413534173
2021-04-06,0.1954545454545465
2021-04-07,0.46005509641873527
2021-04-08,0.5719178082191798
2021-04-09,0.49596774193548065
2021-04-12,0.9078341013824962
2021-04-13,0.9069767441860551
2021-04-14,0.5277777777777836
2021-04-15,0.5786802030456731
2021-04-16,0.5125005337348169
2021-04-19,0.7529773878131204
2021-04-20,0.6342857948313229
2021-04-21,0.69790905376144
2021-04-22,0.6684650353413424
2021-04-23,0.6653646819547328
2021-04-26,0.0
2021-04-27,0.0
2021-04-28,0.20271425275464341
2021-04-29,0.29365079365082203
2021-04-30,0.5301204819277365
2021-05-06,0.3946188340807261
2021-05-07,0.7751322751322717
2021-05-10,0.7896039603960363
2021-05-11,0.8236514522821538
2021-05-12,0.6419294990723466
2021-05-13,0.5483359746434133
2021-05-14,0.4928825622775731
2021-05-17,0.4846292947558691
2021-05-18,0.26787851456125283
2021-05-19,0.28434198059194143
2021-05-20,0.3874288336520156
2021-05-21,0.10554009254170618
2021-05-24,0.0
2021-05-25,0.7250943089558833
2021-05-26,0.8118047131049883
2021-05-27,0.8570425472441835
2021-05-28,0.8911135280243462
2021-05-31,0.955401387512386
2021-06-01,0.37293729372937123
2021-06-02,0.36666666666666126
2021-06-03,0.11936662606576794
2021-06-04,0.22068965517240957
2021-06-07,0.20666666666666503
2021-06-08,0.6532110091743124
2021-06-09,0.42375601926164086
2021-06-10,0.5593220338983091
2021-06-11,0.28286189683860574
2021-06-15,0.4640434192673023
2021-06-16,0.23822714681440404
2021-06-17,0.33913043478260674
2021-06-18,0.3812863407997463
2021-06-21,0.6146256211025415
2021-06-22,0.1892329534956977
2021-06-23,0.24135217152948554
2021-06-24,0.17694945211989715
2021-06-25,0.12420091744808473
2021-06-28,0.06585036065378096
2021-06-29,0.19184508950185358
2021-06-30,0.17034197425890507
2021-07-01,0.5532646048109954
2021-07-02,0.6605744125326302
2021-07-05,0.7027777777777712
2021-07-06,0.7100271002709972
2021-07-07,0.953596287703019
2021-07-08,0.9426934097421233
2021-07-09,0.4811529933481184
2021-07-12,0.5939278937381421
2021-07-13,0.5553470919324588
2021-07-14,0.43971631205673073
2021-07-15,0.4475524475524492
2021-07-16,0.9085589841205757
2021-07-19,0.914582032141669
2021-07-20,0.7943817935233242
2021-07-21,0.5795930681285436
2021-07-22,0.2705988569899874
2021-07-23,0.19888400185159952
2021-07-26,0.42354629031080765
2021-07-27,0.6854817463595487
2021-07-28,0.7695559935603272
2021-07-29,0.9537925021796005
2021-07-30,0.9855855855855874
2021-08-02,0.8875878220140583
2021-08-03,0.3273231622746249
2021-08-04,0.08808290155440676
2021-08-05,0.13619631901840404
2021-08-06,0.13043478260869443
2021-08-09,0.11443298969072001
2021-08-10,0.43779904306219813
2021-08-11,0.6459802538786985
2021-08-12,0.46514745308310934
2021-08-13,0.5522580645161286
2021-08-16,0.5270935960591124
2021-08-17,0.32035398230087847
2021-08-18,0.3151387774245508
2021-08-19,0.5290117280230723
2021-08-20,0.5830318441548811
2021-08-23,0.9942147322922995
2021-08-24,0.5684001827520783
2021-08-25,0.37638414588068175
2021-08-26,0.35990440585342653
2021-08-27,0.13450110869494014
2021-08-30,0.21981713154868066
2021-08-31,0.5022624434389165
2021-09-01,0.8918539325842709
2021-09-02,0.7264516129032255
2021-09-03,0.8192771084337344
2021-09-06,0.8168249660786965
2021-09-07,0.7913446676970636
2021-09-08,0.17307692307692982
2021-09-09,0.1907514450867126
2021-09-10,0.09784735812133401
2021-09-13,0.0038387715930948596
2021-09-14,0.061482820976485685
2021-09-15,0.16203703703703165
2021-09-16,0.6162790697674287
2021-09-17,0.669620740859437
2021-09-22,0.5961384904381483
2021-09-23,0.3245812975858555
2021-09-24,0.30207990046463185
2021-09-27,0.0
2021-09-28,0.0
2021-09-29,0.3990887619520882
2021-09-30,0.44377073510975146
2021-10-08,0.453029469211646
2021-10-11,0.4721407624633372
2021-10-12,0.5348837209302267
2021-10-13,0.0
2021-10-14,0.5811965811965855
2021-10-15,0.7881173004728426
2021-10-18,0.9185878706448687
2021-10-19,0.7518978561760878
2021-10-20,0.6312254219486628
2021-10-21,0.5728076914386454
2021-10-22,0.5209610922931306
2021-10-25,0.0
2021-10-26,0.22099225429415142
2021-10-27,0.28163456706615486
2021-10-28,0.24159663865546294
2021-10-29,0.18138801261829723
2021-11-01,0.3925729442970801
2021-11-02,0.4414634146341377
2021-11-03,0.4783599088838177
2021-11-04,0.5249999999999903
2021-11-05,0.9129129129129141
2021-11-08,0.8685897435897462
2021-11-09,0.35694050991501064
2021-11-10,0.4026315789473721
2021-11-11,0.6775244299674278
2021-11-12,0.5542168674698811
2021-11-15,0.55902777777778
2021-11-16,0.7318181818181809
2021-11-17,0.4858163362377422
2021-11-18,0.0
2021-11-19,0.2593152192673513
2021-11-22,0.2329738261624219
2021-11-23,0.24895354059803346
2021-11-24,0.4072922843507015
2021-11-25,0.6029722588663379
2021-11-26,0.15102414829777466
2021-11-29,0.3167680567559872
2021-11-30,0.4505813953488373
2021-12-01,0.2661691542288459
2021-12-02,0.3870967741935347
2021-12-03,0.5954198473282276
2021-12-06,0.5225225225225136
2021-12-07,0.20622568093386168
2021-12-08,0.7434554973822082
2021-12-09,0.8409090909090966
2021-12-10,0.7754491017964115
2021-12-13,0.8265895953757242
2021-12-14,0.916666666666663
2021-12-15,0.7434715821812533
2021-12-16,0.27839335180054914
2021-12-17,0.43950464433438824
2021-12-20,0.223282852381592
2021-12-21,0.22522116121099095
2021-12-22,0.2371552105781786
2021-12-23,0.5983536564179127
2021-12-24,0.25804038365590204
2021-12-27,0.2655793627992103
2021-12-28,0.3073203019139794
2021-12-29,0.6176981502829384
2021-12-30,0.5348837209302297
2021-12-31,0.6537467700258457
2022-01-04,0.9276595744680939
2022-01-05,0.9396092362344652
2022-01-06,0.7334963325183402
2022-01-07,0.6098562628336813
2022-01-10,0.7116451016635855
2022-01-11,0.4372294372294309
2022-01-12,0.2051282051282022
2022-01-13,0.3696682464454983
2022-01-14,0.5647058823529353
2022-01-17,0.3799999999999941
2022-01-18,0.6444444444444486
2022-01-19,0.7478510028653262
2022-01-20,0.6185897435897447
2022-01-21,0.3678827508173711
2022-01-24,0.5576020764371076
2022-01-25,0.24885588669868786
2022-01-26,0.45266094097208476
2022-01-27,0.34415673696831045
2022-01-28,0.842853777122693
2022-02-07,0.8518112872623603
2022-02-08,0.8750876366315246
2022-02-09,0.8601816100455377
2022-02-10,0.8292199886366701
2022-02-11,0.14779436922087144
2022-02-14,0.018071001820941845
2022-02-15,0.0
2022-02-16,0.0
2022-02-17,0.013260705806434809
2022-02-18,0.0368271954674245
2022-02-21,0.041666666666669225
2022-02-22,0.4009661835748741
2022-02-23,0.7878787878787971
2022-02-24,0.8976608187134524
2022-02-25,0.8979591836734709
2022-02-28,0.9808917197452134
2022-03-01,0.9189189189189181
2022-03-02,0.667832167832158
2022-03-03,0.013452914798198067
2022-03-04,0.0
2022-03-07,0.4407766990291311
2022-03-08,0.6463730569948206
2022-03-09,0.8677740863787399
2022-03-10,0.9465703971119165
2022-03-11,1.0
2022-03-14,0.9705882352941183
2022-03-15,0.9723096286972945
2022-03-16,0.8145695364238448
2022-03-17,0.8341559723593318
2022-03-18,0.6222218337768034
2022-03-21,0.6272033936102258
2022-03-22,0.11015365015211243
2022-03-23,0.07740035560823778
2022-03-24,0.0
2022-03-25,0.0
2022-03-28,0.05523281173155002
2022-03-29,0.09469845964579872
2022-03-30,0.4469954147744833
2022-03-31,0.4480874316939947
2022-04-01,0.6481481481481545
2022-04-06,0.3235867446393797
2022-04-07,0.41831238779174035
2022-04-08,0.26666666666666067
2022-04-11,0.5757142857142826
2022-04-12,0.4687045123726339
2022-04-13,0.6992031872509955
2022-04-14,0.6133909287257013
2022-04-15,0.7477696552820444
2022-04-18,0.09677227529601576
2022-04-19,0.12008211366406704
2022-04-20,0.0027240393401295414
2022-04-21,0.35195415368583627
2022-04-22,0.4838923514159899
2022-04-25,0.9763671902119893
2022-04-26,0.9739475451056555
2022-04-27,0.9837284759113145
2022-04-28,0.850340136054422
2022-04-29,0.8652373660030641
2022-05-05,0.3275862068965577
2022-05-06,0.3166666666666706
2022-05-09,0.21913580246914136
2022-05-10,0.4709517923362194
2022-05-11,0.2841854934601642
2022-05-12,0.4372547835249355
2022-05-13,0.36990056332686244
2022-05-16,0.4859722196934053
2022-05-17,0.11923025327823285
2022-05-18,0.14629008383958964
2022-05-19,0.2338926923107083
2022-05-20,0.4196159562698058
2022-05-23,0.302564410930087
2022-05-24,0.8225708319311339
2022-05-25,0.6783919597989976
2022-05-26,0.6800000000000074
2022-05-27,0.43406593406595234
2022-05-30,0.33263157894738743
2022-05-31,0.1723237597911325
2022-06-01,0.26755852842810585
2022-06-02,0.04822335025380332
2022-06-06,0.3501094091903698
2022-06-07,0.6593886462882074
2022-06-08,0.5987903225806429
2022-06-09,0.6158301158301126
2022-06-10,0.9282136894824686
2022-06-13,0.7255244755244747
2022-06-14,0.7129798903107856
2022-06-15,0.8477970627503355
2022-06-16,0.8553299492385811
2022-06-17,0.7513275537628639
2022-06-20,0.9413834555532536
2022-06-21,0.6745070293094542
2022-06-22,0.23190646012244745
2022-06-23,0.10577502887877042
2022-06-24,0.09680329134440538
2022-06-27,0.0
2022-06-28,0.0914946061703023
2022-06-29,0.28203289192793746
2022-06-30,0.6873315363881438
2022-07-01,0.806962025316454
2022-07-04,0.9074733096085412
2022-07-05,0.9216867469879513
2022-07-06,0.9348370927318294
2022-07-07,0.40689655172413636
2022-07-08,0.4234449760765574
2022-07-11,0.3942093541202687
2022-07-12,0.16287878787878565
2022-07-13,0.0
2022-07-14,0.01078167115903142
2022-07-15,0.41294622853889046
2022-07-18,0.5305735626971488
2022-07-19,0.7076564489986884
2022-07-20,0.9274359021380487
2022-07-21,0.8965935193685903
2022-07-22,0.34092238676709297
2022-07-25,0.022623854715402195
2022-07-26,0.0
2022-07-27,0.0038123826994834204
2022-07-28,0.14597315436242075
2022-07-29,0.4091778202676878
2022-08-01,0.7182320441988901
2022-08-02,1.0
2022-08-03,1.0
2022-08-04,0.8021978021978025
2022-08-05,0.5533807829181515
2022-08-08,0.4880128982003107
2022-08-09,0.20876074751762885
2022-08-10,0.0
2022-08-11,0.2758345244725277
2022-08-12,0.3091747697181612
2022-08-15,0.4025313874520236
2022-08-16,0.7411815695384127
2022-08-17,0.733429167280268
2022-08-18,0.4154330009374093
2022-08-19,0.5370370370370353
2022-08-22,0.4050632911392341
2022-08-23,0.020833333333346468
2022-08-24,0.16025641025642912
2022-08-25,0.7910447761193954
2022-08-26,0.6625000000000123
2022-08-29,0.5300000000000022
2022-08-30,0.5480769230769205
2022-08-31,0.6666666666666609
2022-09-01,0.3543046357615832
2022-09-02,0.6198547215496307
2022-09-05,0.7600950118764819
2022-09-06,0.6437499999999992
2022-09-07,0.3256880733944965
2022-09-08,0.35618729096990215
2022-09-09,0.19287211740042673
2022-09-13,0.06635071090048232
2022-09-14,0.07865168539326854
2022-09-15,0.7010309278350696
2022-09-16,0.9603450174409192
2022-09-19,0.6505480037266516
2022-09-20,0.6388359183874645
2022-09-21,0.6823413431627967
2022-09-22,0.535204979401535
2022-09-23,0.13955083292436463
2022-09-26,0.4066540867825179
2022-09-27,0.5113657915413353
2022-09-28,0.38424348642685974
2022-09-29,0.6010362694300486
2022-09-30,0.7972508591065374
2022-10-10,0.8550368550368642
2022-10-11,0.6810933940774566
2022-10-12,0.8343283582089522
2022-10-13,0.67771084337349
2022-10-14,0.761038961038959
2022-10-17,0.46533490011750445
2022-10-18,0.5635939323220527
2022-10-19,0.31676136363637025
2022-10-20,0.44082840236687015
2022-10-21,0.27133282497893746
2022-10-24,0.7999126759899368
2022-10-25,0.8015896859171555
2022-10-26,0.8921547546296581
2022-10-27,0.8935766166093289
2022-10-28,0.9704571932011301
2022-10-31,0.39745553644144416
2022-11-01,0.4760498322181937
2022-11-02,0.5018663859099387
2022-11-03,0.3696760120050419
2022-11-04,0.44148549391718905
2022-11-07,0.7499291523125686
2022-11-08,0.32952191499723826
2022-11-09,0.27725143458137486
2022-11-10,0.36814852898928724
2022-11-11,0.04422076654917745
2022-11-14,0.08243727598565452
2022-11-15,0.47488584474884565
2022-11-16,0.47926267281104806
2022-11-17,0.4619047619047539
2022-11-18,0.44597701149424995
2022-11-21,0.37149028077754315
2022-11-22,0.02487562189055323
2022-11-23,0.12261580381472158
2022-11-24,0.1848101265822814
2022-11-25,0.4738675958188232
2022-11-28,0.658783783783781
2022-11-29,1.0
2022-11-30,0.8861538461538476
2022-12-01,0.8821656050955425
2022-12-02,0.5706666666666624
2022-12-05,0.45058139534883385
2022-12-06,0.07142857142856822
2022-12-07,0.3319148936170182
2022-12-08,0.20873786407766998
2022-12-09,0.44444444444444553
2022-12-12,0.41242937853107686
2022-12-13,0.4358208955223886
2022-12-14,0.26332794830371453
2022-12-15,0.48534798534798174
2022-12-16,0.2017946002825193
2022-12-19,0.46492566888421316
2022-12-20,0.7185720672552761
2022-12-21,0.689272727710473
2022-12-22,0.6179884109874946
2022-12-23,0.7745723003020302
2022-12-26,0.4518791506347507
2022-12-27,0.06881073038057316
2022-12-28,0.1737708881092611
2022-12-29,0.16545454545454566
2022-12-30,0.08346972176759392
2023-01-03,0.289628180039142
2023-01-04,0.47741935483871345
2023-01-05,0.4857142857142939
2023-01-06,0.5349650349650389
2023-01-09,0.8661087866108725
2023-01-10,0.3819444444444487
2023-01-11,0.45214521452145384
2023-01-12,0.241791044776115
2023-01-13,0.44680851063829047
2023-01-16,0.6432926829268215
2023-01-17,0.8408679927667196
2023-01-18,0.8464223385689291
2023-01-19,1.0
2023-01-20,0.8489778144094435
2023-01-30,0.4767811130898637
2023-01-31,0.5565482023952981
2023-02-01,0.5615336002315046
2023-02-02,0.4254727801509708
2023-02-03,0.6629990852872836
2023-02-06,0.5611177669983038
2023-02-07,0.32105930123807797
2023-02-08,0.20663339447245876
2023-02-09,0.3005217560679325
2023-02-10,0.09649510688130467
2023-02-13,0.26160567756233755
2023-02-14,0.3333333333333333
2023-02-15,0.4451219512195108
2023-02-16,0.5223097112860915
2023-02-17,0.9502487562189074
2023-02-20,0.9630996309963111
2023-02-21,1.0
2023-02-22,0.9856630824372775
2023-02-23,0.7341137123745812
2023-02-24,0.5565217391304307
2023-02-27,0.09021113243761288
2023-02-28,0.135036496350366
2023-03-01,0.276397515527956
2023-03-02,0.31899641577061605
2023-03-03,0.303236797274284
2023-03-06,0.633245382585761
2023-03-07,0.6084507042253632
2023-03-08,0.2705314009661827
2023-03-09,0.4330143540669818
2023-03-10,0.5710526315789335
2023-03-13,0.4428571428571328
2023-03-14,0.2605459057071836
2023-03-15,0.5054945054945011
2023-03-16,0.29237288135593054
2023-03-17,0.4754457594362195
2023-03-20,0.5296437692404996
2023-03-21,0.6900950624618885
2023-03-22,0.5734230350843023
2023-03-23,0.592630416656237
2023-03-24,0.0021553921945070323
2023-03-27,0.0
2023-03-28,0.0
2023-03-29,0.07445899072122934
2023-03-30,0.2641509433962331
2023-03-31,0.7135135135135183
2023-04-03,0.6910994764397933
2023-04-04,0.8058823529411784
2023-04-06,0.5305164319248973
2023-04-07,0.20526315789474914
2023-04-10,0.02824858757063183
2023-04-11,0.15243902439026755
2023-04-12,0.14197530864198674
2023-04-13,0.4782608695652151
2023-04-14,0.5156250000000063
2023-04-17,0.8646864686468655
2023-04-18,0.8491228070175457
2023-04-19,0.8676923076923106
2023-04-20,0.8501742160278795
2023-04-21,0.9952053506461086
2023-04-24,0.8366605403568774
2023-04-25,0.8586153195519803
2023-04-26,0.673809451499136
2023-04-27,0.7565665948573943
2023-04-28,0.388029446036175
2023-05-04,0.3592394896374629
2023-05-05,0.3061573675397045
2023-05-08,0.5356360173696781
2023-05-09,0.350653701223175
2023-05-10,0.6049267970882056
2023-05-11,0.6417584502926388
2023-05-12,0.7294640409167231
2023-05-15,0.7096706600350515
2023-05-16,0.5260138292777105
2023-05-17,0.468750000000009
2023-05-18,0.646875000000004
2023-05-19,0.5526315789473766
2023-05-22,0.2307692307692262
2023-05-23,0.6631205673758812
2023-05-24,0.7416107382550297
2023-05-25,0.6586345381526076
2023-05-26,0.655999999999989
2023-05-29,0.7224669603524211
2023-05-30,0.3238095238095314
2023-05-31,0.0
2023-06-01,0.09638554216867153
2023-06-02,0.08421052631578786
2023-06-05,0.0784313725490167
2023-06-06,0.08163265306122211
2023-06-07,0.07692307692307818
2023-06-08,0.3806451612903241
2023-06-09,0.25213675213675524
2023-06-12,0.4642857142857248
2023-06-13,0.3113772455089847
2023-06-14,0.2849315068493159
2023-06-15,0.1162790697674442
2023-06-16,0.29273458752020093
2023-06-19,0.18497143787066814
2023-06-20,0.26282040390264655
2023-06-21,0.4606136696831019
2023-06-26,0.5675153211809209
2023-06-27,0.43680637142439943
2023-06-28,0.3437300987400245
2023-06-29,0.5066138248453429
2023-06-30,0.32929358988772045
2023-07-03,0.7100591715976442
2023-07-04,0.40963855421686945
2023-07-05,0.44347826086955777
2023-07-06,0.43859649122805694
2023-07-07,0.3745318352059862
2023-07-10,0.10040160642569695
2023-07-11,0.30386740331490375
2023-07-12,0.3254437869822422
2023-07-13,0.18749999999999917
2023-07-14,0.22058823529411273
2023-07-17,0.44943820224720915
2023-07-18,0.2461538461539023
2023-07-19,0.21052631578952055
2023-07-20,0.5056179775280918
2023-07-21,0.89517471489847
2023-07-24,0.70006051882339
2023-07-25,0.7956146345723966
2023-07-26,0.8103486487800197
2023-07-27,0.6555395697476759
2023-07-28,0.8128431839339004
2023-07-31,0.9149416991595071
2023-08-01,0.875939823503422
2023-08-02,0.9119052022445101
2023-08-03,0.9755805554437561
2023-08-04,0.5628874190932683
2023-08-07,0.2393609721849613
2023-08-08,0.25905821431137105
2023-08-09,0.06597802939330903
2023-08-10,0.018364348677770898
2023-08-11,0.3146917407587215
2023-08-14,0.62032085561498
2023-08-15,0.6043956043956079
2023-08-16,0.9117647058823543
2023-08-17,0.992805755395682
2023-08-18,0.4280442804428087
2023-08-21,0.4015444015443967
2023-08-22,0.4778156996586983
2023-08-23,0.5738161559888473
2023-08-24,0.5129682997118045
2023-08-25,0.7606837606837579
2023-08-28,0.9019264448336264
2023-08-29,0.8477876106194704
2023-08-30,0.6912028725314219
2023-08-31,0.707720588235299
2023-09-01,0.6684027777777801
2023-09-04,0.0
2023-09-05,0.0
2023-09-06,0.0
2023-09-07,0.0
2023-09-08,0.0
2023-09-11,0.0
2023-09-12,0.0
2023-09-13,0.551948051948062
2023-09-14,0.5902777777777894
2023-09-15,0.7919237518517904
2023-09-18,0.8538491015140149
2023-09-19,0.9273770334198673
2023-09-20,0.5002742635985977
2023-09-21,0.5948674046082332
2023-09-22,0.6662850582108958
2023-09-25,0.6058691744600941
2023-09-26,0.5826699060026665
2023-09-27,0.8809612416885194
2023-09-28,0.8766666666666612
2023-10-09,0.3044776119402999
2023-10-10,0.4447592067988713
2023-10-11,0.3927576601671321
2023-10-12,0.27631578947368257
2023-10-13,0.14705882352941257
2023-10-16,0.3724489795918292
2023-10-17,0.07692307692307299
2023-10-18,0.08181818181817826
2023-10-19,0.46808510638296724
2023-10-20,0.6873890695522105
2023-10-23,0.7048785119078018
2023-10-24,0.973799119488448
2023-10-25,1.0
2023-10-26,0.5478821639557837
2023-10-27,0.6142400612314576
2023-10-30,0.43730367238769435
2023-10-31,0.31637778741157996
2023-11-01,0.2307637855165744
2023-11-02,0.38568735902110074
2023-11-03,0.04952799039976326
2023-11-06,0.07517029221754455
2023-11-07,0.13334284563709992
2023-11-08,0.12632536170599928
2023-11-09,0.016017271115938776
2023-11-10,0.03139172373841832
2023-11-13,0.3946185644293688
2023-11-14,0.5253164556962118
2023-11-15,0.4068627450980505
2023-11-16,0.6439024390243934
2023-11-17,0.6947368421052644
2023-11-20,0.6847826086956506
2023-11-21,0.6258064516128988
2023-11-22,0.9756097560975537
2023-11-23,0.8068181818181765
2023-11-24,0.6635514018691644
2023-11-27,0.5384615384615407
2023-11-28,0.2677165354330705
2023-11-29,0.4150943396226297
2023-11-30,0.3687150837988716
2023-12-01,0.6270491803278652
2023-12-04,0.49134948096885733
2023-12-05,0.7968397291196412
2023-12-06,0.7468671679198053
2023-12-07,0.8400954653937988
2023-12-08,0.6575682382133989
2023-12-11,0.8500914076782435
2023-12-12,0.5079999999999962
2023-12-13,0.5688073394495385
2023-12-14,0.5472061657032785
2023-12-15,0.7160763893548808
2023-12-18,0.4229296160756656
2023-12-19,0.6577748562603951
2023-12-20,0.48075996064762283
2023-12-21,0.513665607652919
2023-12-22,0.24833729069469468
2023-12-25,0.2498829092564247
2023-12-26,0.15214538217343035
2023-12-27,0.19633465849670828
2023-12-28,0.2816455696202533
2023-12-29,0.2672672672672675
2024-01-02,0.5952380952380881
2024-01-03,0.6704980842911773
2024-01-04,0.7448071216617131
2024-01-05,0.4738372093023155
2024-01-08,0.6983240223463588
2024-01-09,0.4866468842729896
2024-01-10,0.5789473684210512
2024-01-11,0.3950276243093948
2024-01-12,0.4016853932584316
2024-01-15,0.21691176470588924
2024-01-16,0.4965986394557887
2024-01-17,0.5795454545454559
2024-01-18,0.8227091633466141
2024-01-19,1.0
2024-01-22,1.0
2024-01-23,1.0
2024-01-24,1.0
2024-01-25,0.904699114976282
2024-01-26,0.8355016596581484
2024-01-29,0.20844875905163185
2024-01-30,0.1268104192476464
2024-01-31,0.0
2024-02-01,0.0
2024-02-02,0.4311945551372857
2024-02-05,0.6690404716514183
2024-02-06,0.77151681069996
2024-02-07,0.8675720082094661
2024-02-08,0.9598975614160127
2024-02-19,0.5512499454076184
2024-02-20,0.3228675558132603
2024-02-21,0.05372682461234112
2024-02-22,0.014175257731956924
2024-02-23,0.014905149051488662
2024-02-26,0.23250000000000176
2024-02-27,0.7267080745341653
2024-02-28,0.2185567010309316
2024-02-29,0.24721603563474936
2024-03-01,0.260485651214129
2024-03-04,0.07453416149067994
2024-03-05,0.17222222222222017
2024-03-06,0.3576923076922985
2024-03-07,0.32835820895521495
2024-03-08,0.2945454545454501
2024-03-11,0.6019417475728084
2024-03-12,0.5060240963855352
2024-03-13,0.8235294117647052
2024-03-14,0.9066666666666627
2024-03-15,0.9932745281030881
2024-03-18,0.7891898017948481
2024-03-19,0.2941985845109698
2024-03-20,0.06637388469439275
2024-03-21,0.0
2024-03-22,0.267591157633567
2024-03-25,0.33502642685706396
2024-03-26,0.42494445170565465
2024-03-27,0.4457816379196374
2024-03-28,0.8078431372549095
2024-03-29,0.5057471264367942
2024-04-01,0.49411764705883626
2024-04-02,0.5860465116279224
2024-04-03,0.5271966527196644
2024-04-08,0.04716981132075328
2024-04-09,0.07092198581559789
2024-04-10,0.0
2024-04-11,0.20765027322403218
2024-04-12,0.5106382978723399
2024-04-15,0.9163987138263644
2024-04-16,0.9540540540540559
2024-04-17,1.0
2024-04-18,1.0
2024-04-19,0.875253537235055
2024-04-22,0.5574567886817857
2024-04-23,0.38403286876661746
2024-04-24,0.1626126451838605
2024-04-25,0.0
2024-04-26,0.12497298808933496
2024-04-29,0.3155794865078373
2024-04-30,0.44673718203089724
2024-05-06,0.678765491898919
2024-05-07,0.6568178293912845
2024-05-08,0.3043869386587345
2024-05-09,0.06718173693742305
2024-05-10,0.10679420951787666
2024-05-13,0.11095736183485316
2024-05-14,0.2246844802852462
2024-05-15,0.5718803847723837
2024-05-16,1.0
2024-05-17,1.0
2024-05-20,0.9190476190476141
2024-05-21,0.8097560975609709
2024-05-22,0.442211055276372
2024-05-23,0.41884816753925685
2024-05-24,0.01875000000000522
2024-05-27,0.017857142857148026
2024-05-28,0.13333333333334277
2024-05-29,0.5136986301370087
2024-05-30,0.6203208556149877
2024-05-31,0.6373626373626442
2024-06-03,0.7616279069767465
2024-06-04,0.7908163265306118
2024-06-05,0.5177664974619223
2024-06-06,0.35151515151514645
2024-06-07,0.6184971098265856
2024-06-11,0.7142857142857123
2024-06-12,0.47470817120622777
2024-06-13,0.6639004149377641
2024-06-14,0.6956521739130499
2024-06-17,0.36877076411960774
2024-06-18,0.11764705882353178
2024-06-19,0.1755725190839817
2024-06-20,0.03225806451614104
2024-06-21,0.029517248753702967
2024-06-24,0.48871354874071216
2024-06-25,0.8055042290885955
2024-06-26,0.8294888781879637
2024-06-27,0.9136391163218838
2024-06-28,0.9920787521700184
2024-07-01,0.6519953986682644
2024-07-02,0.3682355697546318
2024-07-03,0.11300295833326104
2024-07-04,0.08092485549131724
2024-07-05,0.41635687732341836
2024-07-08,0.5067873303167475
2024-07-09,0.7907692307692356
2024-07-10,0.9416058394160652
2024-07-11,0.9411764705882433
2024-07-12,0.474474474474479
2024-07-15,0.47590361445783225
2024-07-16,0.038348082595875924
2024-07-17,0.10928961748635134
2024-07-18,0.07526881720430646
2024-07-19,0.3812664623599624
2024-07-22,0.5013564464250876
2024-07-23,0.927402393955389
2024-07-24,0.9296249685376251
2024-07-25,1.0
2024-07-26,0.9033080311123549
2024-07-29,0.6181998371854333
2024-07-30,0.40086300708764255
2024-07-31,0.5777592530843626
2024-08-01,0.39277951015480905
2024-08-02,0.39884004794137395
2024-08-05,0.6745576532063721
2024-08-06,0.8370644890540562
2024-08-07,0.5629283246828225
2024-08-08,0.6785931233467635
2024-08-09,0.7037503066803873
2024-08-12,0.43608977375784946
2024-08-13,0.10058173964205074
2024-08-14,0.12832929782083227
2024-08-15,0.2421052631578982
2024-08-16,0.22810590631364502
2024-08-19,0.42857142857142855
2024-08-20,0.8045112781954946
2024-08-21,0.9266409266409212
2024-08-22,0.3926380368098136
2024-08-23,0.4656716417910444
2024-08-26,0.2961672473867609
2024-08-27,0.16822429906541816
2024-08-28,0.17846153846154092
2024-08-29,0.43949044585987324
2024-08-30,0.6575875486381312
2024-09-02,0.7636363636363589
2024-09-03,1.0
2024-09-04,0.9649122807017528
2024-09-05,0.9288888888888857
2024-09-06,0.4009900990099055
2024-09-09,0.2840236686390549
2024-09-10,0.1294964028776977
2024-09-11,0.10714285714285744
2024-09-12,0.17919075144508836
2024-09-13,0.28181818181818924
2024-09-18,0.1654676258992947
2024-09-19,0.5433070866141808
2024-09-20,0.6791963302832708
2024-09-23,0.7002315986441608
2024-09-24,0.9454078103008208
2024-09-25,1.0
2024-09-26,1.0
2024-09-27,1.0
2024-09-30,1.0
2024-10-08,1.0
2024-10-09,1.0
2024-10-10,0.9968387776606957
2024-10-11,0.8178078166323836
2024-10-14,0.516452522720151
2024-10-15,0.19197622585438293
2024-10-16,0.0
2024-10-17,0.0
2024-10-18,0.10972819770823572
2024-10-21,0.14264229077276372
2024-10-22,0.2259613259853597
2024-10-23,0.3525387947647768
2024-10-24,0.39122984602281924
2024-10-25,0.0
2024-10-28,0.0
2024-10-29,0.07555075886148985
2024-10-30,0.10110361644831109
2024-10-31,0.16852678571428956
2024-11-01,0.7870289676600452
2024-11-04,1.0
2024-11-05,1.0
2024-11-06,1.0
2024-11-07,1.0
2024-11-08,1.0
2024-11-11,1.0
2024-11-12,1.0
2024-11-13,0.9211042809672171
2024-11-14,0.3917808219178126
2024-11-15,0.10245901639344927
2024-11-18,0.16940581542351305
2024-11-19,0.07395143487858558
2024-11-20,0.07188841201716609
2024-11-21,0.0986745213549318
2024-11-22,0.41751824817518124
2024-11-25,0.3400621118012412
2024-11-26,0.4336633663366339
2024-11-27,0.5918367346938735
2024-11-28,0.8380281690140822
2024-11-29,0.33658536585365395
2024-12-02,0.28336755646817074
2024-12-03,0.28991596638654893
2024-12-04,0.135902636916833
2024-12-05,0.0
2024-12-06,0.047468354430372305
2024-12-09,0.09174311926605375
2024-12-10,0.687382297551788
2024-12-11,0.8220720720720787
2024-12-12,0.9978118161925671
2024-12-13,0.9979591836734758
2024-12-16,0.8189509306260631
2024-12-17,0.25226860254084404
2024-12-18,0.2400690846286767
2024-12-19,0.09213051823416933
2024-12-20,0.0
2024-12-23,0.19448474990985753
2024-12-24,0.3604522487291822
2024-12-25,0.43574911674097644
2024-12-26,0.381404866804571
2024-12-27,0.6456368522938778
2024-12-30,0.14504528825898685
2024-12-31,0.3113226834869138
