date,FCT_Cr_Atr_Dfive
2015-04-16,
2015-04-17,
2015-04-20,
2015-04-21,
2015-04-22,
2015-04-23,
2015-04-24,
2015-04-27,
2015-04-28,
2015-04-29,
2015-04-30,0.1337643731507438
2015-05-04,-0.03732691561639029
2015-05-05,0.22016366001078275
2015-05-06,0.018954132951078846
2015-05-07,0.08123775920582452
2015-05-08,0.0501798575640878
2015-05-11,0.07902141390947434
2015-05-12,-0.24771724702230286
2015-05-13,-0.17151053743114122
2015-05-14,-0.045605904685899264
2015-05-15,0.002546587176688476
2015-05-18,-0.043728026720852485
2015-05-19,0.45505509773410835
2015-05-20,0.15229415601075028
2015-05-21,0.06003471261960465
2015-05-22,-0.016467908554110053
2015-05-25,0.13612497457990336
2015-05-26,-0.4512728206599059
2015-05-27,0.03204028091184933
2015-05-28,0.3993791052207958
2015-05-29,0.009418615239600628
2015-06-01,-0.004186863320448708
2015-06-02,0.20444809437805345
2015-06-03,-0.10700497468499151
2015-06-04,-0.3368798740625343
2015-06-05,0.06487514917419869
2015-06-08,-0.11579485653276855
2015-06-09,-0.006647763035558349
2015-06-10,0.0034560248428138138
2015-06-11,-0.3348520889606541
2015-06-12,-0.2594922416175954
2015-06-15,-0.12854642412165557
2015-06-16,-0.111817257716401
2015-06-17,-0.0014819934185032364
2015-06-18,0.34465032374669796
2015-06-19,0.5399026883034023
2015-06-23,0.18348548984621077
2015-06-24,0.011779311218085148
2015-06-25,0.1623208388575311
2015-06-26,0.08013590150399637
2015-06-29,-0.31349111681720476
2015-06-30,-0.02951506827922363
2015-07-01,0.1830999456265364
2015-07-02,-0.12030488166850781
2015-07-03,-0.21584288118154255
2015-07-06,-0.15018008447056863
2015-07-07,-0.11817680473269576
2015-07-08,0.15362141635643714
2015-07-09,0.12046312473626314
2015-07-10,0.0938804727636534
2015-07-13,0.013729236228189973
2015-07-14,0.10170408701802824
2015-07-15,-0.571269437380094
2015-07-16,-0.38856034563663416
2015-07-17,-0.2634517168260607
2015-07-20,0.11919535175840273
2015-07-21,-0.1324642507026469
2015-07-22,0.22303235967626467
2015-07-23,0.30133841599705424
2015-07-24,0.16166975622619523
2015-07-27,0.21905811296632152
2015-07-28,0.15090995044428582
2015-07-29,0.08609569372666567
2015-07-30,-0.0642995247834176
2015-07-31,0.044022207490884056
2015-08-03,-0.5418895455166426
2015-08-04,-0.01072712186993664
2015-08-05,-0.06156610236410653
2015-08-06,-0.0813196013024528
2015-08-07,-0.03364269141531297
2015-08-10,0.46339648556419233
2015-08-11,-0.1672594025357088
2015-08-12,0.02742058486654185
2015-08-13,0.07769712059369313
2015-08-14,-0.07001310603850372
2015-08-17,-0.3361509372364453
2015-08-18,0.7909850194996876
2015-08-19,0.1413867895455149
2015-08-20,0.036643828290148596
2015-08-21,0.22750459210742927
2015-08-24,0.3396209798078811
2015-08-25,-0.701014544811092
2015-08-26,-0.046376163262946066
2015-08-27,0.1117527729383739
2015-08-28,-0.1310172037689593
2015-08-31,-0.3027369538359777
2015-09-01,-0.03486509070772343
2015-09-02,-0.12925152420078462
2015-09-07,-0.14782447780209557
2015-09-08,0.07493703790682331
2015-09-09,0.053563856961265005
2015-09-10,-0.02910470003089824
2015-09-11,-0.13770056161360536
2015-09-14,-0.09292982796875934
2015-09-15,-0.2846999541914809
2015-09-16,0.3751554750424048
2015-09-17,0.14747242810479294
2015-09-18,0.23641328757665037
2015-09-21,0.03400495671228451
2015-09-22,0.2398084935748837
2015-09-23,-0.5127507581308212
2015-09-24,-0.11492733246858018
2015-09-25,-0.10466432315051963
2015-09-28,-0.054528949824243375
2015-09-29,-0.019996693195394766
2015-09-30,0.13884916890567864
2015-10-08,0.2989713485764141
2015-10-09,-0.017797600474767597
2015-10-12,0.37991315301400874
2015-10-13,-0.07333605098231437
2015-10-14,0.07474269025307677
2015-10-15,-0.16372508807050454
2015-10-16,0.059053132257555124
2015-10-19,-0.41749815359629405
2015-10-20,0.1761678512375348
2015-10-21,0.26126431912048576
2015-10-22,-0.16454237823273268
2015-10-23,0.059994011779056874
2015-10-26,0.16219538166442565
2015-10-27,-0.0915715586930991
2015-10-28,-0.5192818118318564
2015-10-29,0.004067923993570227
2015-10-30,-0.05456307255254117
2015-11-02,-0.02496201041485431
2015-11-03,-0.07379900328170937
2015-11-04,0.6739373601789684
2015-11-05,0.4983926949797421
2015-11-06,0.11193477027793709
2015-11-09,0.1702766387298373
2015-11-10,0.09805458031435271
2015-11-11,-0.534902272459671
2015-11-12,-0.5378528901464128
2015-11-13,-0.21850495082540194
2015-11-16,-0.3248627230144163
2015-11-17,0.19464296614799828
2015-11-18,0.07073924901348042
2015-11-19,0.09513413267229145
2015-11-20,0.10226172129369324
2015-11-23,0.19628844859595465
2015-11-24,-0.4619556471073111
2015-11-25,0.0314877991895501
2015-11-26,0.0695544229531114
2015-11-27,0.4672619926516443
2015-11-30,0.045728802794536394
2015-12-01,0.28501683501683384
2015-12-02,0.2695812375716478
2015-12-03,-0.032775638958835555
2015-12-04,-0.625304436277325
2015-12-07,-0.06082956221716504
2015-12-08,-0.10718642912248591
2015-12-09,-0.5421523728646496
2015-12-10,0.1760136992376387
2015-12-11,0.096568491962093
2015-12-14,0.2668367645970804
2015-12-15,0.09557026750632344
2015-12-16,0.23181025250350287
2015-12-17,-0.23518411235783543
2015-12-18,0.1342041407744329
2015-12-21,-0.3409731625429318
2015-12-22,-0.07807451521236967
2015-12-23,0.1605252173918341
2015-12-24,0.06129853722476958
2015-12-25,-0.16555867707533056
2015-12-28,0.1359145981898504
2015-12-29,0.039445017821543374
2015-12-30,-0.1836986885413197
2015-12-31,-0.010493423401547856
2016-01-04,0.6146499833831062
2016-01-05,-0.0970131786134789
2016-01-06,0.041242009950984086
2016-01-07,0.3291111877814916
2016-01-08,0.18758739859580115
2016-01-11,-0.6409478187735442
2016-01-12,-0.056684470898948854
2016-01-13,0.02294031299266812
2016-01-14,-0.3591691872567367
2016-01-15,-0.2267855745559415
2016-01-18,0.04393444565316161
2016-01-19,0.19914463682268568
2016-01-20,-0.10012207642929488
2016-01-21,0.11509117334842071
2016-01-22,-0.024947556235740354
2016-01-25,0.02726466816572662
2016-01-26,-6.104834808062787e-05
2016-01-27,0.031432215498056595
2016-01-28,-0.12705407426941617
2016-01-29,0.16496205872649133
2016-02-01,0.1468173681362144
2016-02-02,-0.26118472019686634
2016-02-03,-0.08211548987411359
2016-02-04,0.06276550236254443
2016-02-05,-0.2656194427978641
2016-02-15,-0.1576125953299301
2016-02-16,0.18712930722378596
2016-02-17,0.10424898118242668
2016-02-18,0.01680767579280265
2016-02-19,0.1880141185495203
2016-02-22,0.10922255099819175
2016-02-23,-0.11785666031656669
2016-02-24,0.014437285537212617
2016-02-25,0.5640551254427337
2016-02-26,0.04781187772514904
2016-02-29,0.016040903124864142
2016-03-01,0.19018215018962306
2016-03-02,0.0680696234239565
2016-03-03,-0.8009351851851859
2016-03-04,0.146747920620528
2016-03-07,-0.10080719486344088
2016-03-08,-0.040356696883905654
2016-03-09,-0.19734344104528073
2016-03-10,0.3701104651162816
2016-03-11,-0.3353056133617751
2016-03-14,0.04479884153384075
2016-03-15,-0.2251413097208185
2016-03-16,0.11999882785027666
2016-03-17,-0.08988377407423336
2016-03-18,0.18686643381451468
2016-03-21,0.08167097353540746
2016-03-22,0.11096016347153898
2016-03-23,-0.036141088226902957
2016-03-24,-0.002266678000124792
2016-03-25,-0.12838519697689088
2016-03-28,-0.1356502215730025
2016-03-29,0.1360099925654238
2016-03-30,0.02597651560976025
2016-03-31,-0.11593205404844617
2016-04-01,0.2318968283804435
2016-04-05,0.009883248355863287
2016-04-06,-0.18760961578935087
2016-04-07,0.01652390498755088
2016-04-08,0.06913434467144702
2016-04-11,-0.2559009122293559
2016-04-12,-0.14701012394738672
2016-04-13,0.30925456511555127
2016-04-14,-0.13968273437180756
2016-04-15,0.006918956939864121
2016-04-18,0.07302215281208674
2016-04-19,0.26167869056524007
2016-04-20,0.10872979645661399
2016-04-21,0.19365982360072956
2016-04-22,0.10629386681621046
2016-04-25,0.07269322401225947
2016-04-26,-0.0017194948371295898
2016-04-27,-0.5620116861832283
2016-04-28,-0.19376203546548143
2016-04-29,-0.18925824430411664
2016-05-03,0.11231827331693245
2016-05-04,-0.2298231048935146
2016-05-05,0.1329199494020216
2016-05-06,0.40507713884992436
2016-05-09,0.27166104420479037
2016-05-10,-0.2819518716577534
2016-05-11,0.20897929627068543
2016-05-12,0.27151055398557
2016-05-13,-0.5069390137146137
2016-05-16,-0.2402480127917636
2016-05-17,0.08496176720475343
2016-05-18,0.0509160544006979
2016-05-19,-0.26561381157994324
2016-05-20,0.23860857878342692
2016-05-23,0.04946488114346928
2016-05-24,0.03264838281221052
2016-05-25,-0.23723402972904636
2016-05-26,0.25874622993847474
2016-05-27,-0.09348633525514075
2016-05-30,0.10702247879879205
2016-05-31,0.5151692569559905
2016-06-01,0.15585097410812368
2016-06-02,-0.24884562856338183
2016-06-03,0.14191618171578557
2016-06-06,-0.08327217643295177
2016-06-07,-0.9008822718500128
2016-06-08,-0.020933133732538932
2016-06-13,0.48231244240084764
2016-06-14,-0.03888940955017608
2016-06-15,0.17818735423684715
2016-06-16,0.48061921945411734
2016-06-17,0.04372377458733689
2016-06-20,-0.5263644890511948
2016-06-21,0.03220012319458556
2016-06-22,-0.3338710452003565
2016-06-23,-0.08974788437656395
2016-06-24,0.27744136068575964
2016-06-27,0.12444758723160136
2016-06-28,-0.17153641916972007
2016-06-29,0.15994924538766958
2016-06-30,-0.01996188081672911
2016-07-01,-0.7017206908286501
2016-07-04,0.3392829019896149
2016-07-05,0.06478600016335617
2016-07-06,0.00441153000531894
2016-07-07,0.055101032617209396
2016-07-08,0.39175209919937404
2016-07-11,-0.5167251683153556
2016-07-12,0.412345420090327
2016-07-13,0.09274979205359617
2016-07-14,-0.017158020725056494
2016-07-15,0.004879610914868438
2016-07-18,0.1709064101591286
2016-07-19,-0.4802377793015292
2016-07-20,-0.22364271266349597
2016-07-21,0.005675457276014141
2016-07-22,0.06824318386371599
2016-07-25,-0.05501398359014843
2016-07-26,0.13029426123574914
2016-07-27,0.620293044379382
2016-07-28,0.02047292895674021
2016-07-29,-0.10607859768166716
2016-08-01,0.13296788438198703
2016-08-02,-0.15182802425850234
2016-08-03,-0.8363090934426267
2016-08-04,-0.05837161024567858
2016-08-05,0.09861315059553125
2016-08-08,-0.039948678310332386
2016-08-09,0.18558231972358527
2016-08-10,0.3022242389418997
2016-08-11,0.2813869548410043
2016-08-12,0.13119627047603605
2016-08-15,0.4716251573160104
2016-08-16,0.07035078275443504
2016-08-17,0.13387332923002981
2016-08-18,-0.2616565667034121
2016-08-19,-0.2975330516354365
2016-08-22,-0.7617928637284246
2016-08-23,-0.24043919176883904
2016-08-24,-0.14029828096748317
2016-08-25,-0.13514381774218387
2016-08-26,0.037379460026783405
2016-08-29,0.26491837892323766
2016-08-30,0.03537588867427721
2016-08-31,0.04338806497175607
2016-09-01,0.10515545060999104
2016-09-02,0.022606730126383215
2016-09-05,-0.017800290445996837
2016-09-06,0.21560380767349208
2016-09-07,-0.041037013569889286
2016-09-08,-0.06841363764440427
2016-09-09,0.03145586081787358
2016-09-12,0.13881836645872891
2016-09-13,-0.3543179777814668
2016-09-14,0.10499309463408642
2016-09-19,0.17062912893255122
2016-09-20,-0.04756148318852784
2016-09-21,-0.29835232306950354
2016-09-22,0.4175410657330725
2016-09-23,-0.1930075232289303
2016-09-26,0.05832872639893853
2016-09-27,0.15366509260339362
2016-09-28,0.15907590453749137
2016-09-29,-0.31129931393680466
2016-09-30,0.20079043763253765
2016-10-10,-0.036956751612572544
2016-10-11,-0.20652140222546983
2016-10-12,-0.0019399249061402835
2016-10-13,0.10943269101200699
2016-10-14,0.0254330157377244
2016-10-17,0.20532409855133665
2016-10-18,0.37140000188668554
2016-10-19,0.10576986809836762
2016-10-20,-0.027526461918191147
2016-10-21,-0.021728438856108367
2016-10-24,-0.3090331245393881
2016-10-25,-0.45835798799873984
2016-10-26,-0.03579822443318305
2016-10-27,0.06828543862597669
2016-10-28,-0.1173887296672647
2016-10-31,-0.19443698055010206
2016-11-01,0.2855654272985597
2016-11-02,-0.03884758074539547
2016-11-03,0.24479033947733617
2016-11-04,0.018100822378037958
2016-11-07,0.13649483816153687
2016-11-08,-0.05834773425499582
2016-11-09,0.34117042868349723
2016-11-10,-0.44708183996776396
2016-11-11,0.1806546058813629
2016-11-14,0.22210488634328757
2016-11-15,-0.08679929913675143
2016-11-16,-0.5751880736241503
2016-11-17,0.20745796513834935
2016-11-18,-0.28256448224466146
2016-11-21,-0.08268462703437204
2016-11-22,0.07484982204145944
2016-11-23,0.2985583424371635
2016-11-24,-0.02739013975402949
2016-11-25,0.3497865655860042
2016-11-28,-0.14008590277840832
2016-11-29,0.334925332016031
2016-11-30,-0.0013461103197789717
2016-12-01,0.04015769828643315
2016-12-02,-0.28305255395785
2016-12-05,0.06307212807115788
2016-12-06,-0.6245544866304521
2016-12-07,-0.20458122459339687
2016-12-08,-0.24958136259968686
2016-12-09,0.26520152446697554
2016-12-12,0.25922197803621005
2016-12-13,0.3009812601446056
2016-12-14,0.23423131092762142
2016-12-15,0.45567118845524834
2016-12-16,-0.3330062170095135
2016-12-19,-0.45759807570933764
2016-12-20,0.0709665138234373
2016-12-21,-0.10456752070655129
2016-12-22,-0.4857877778638733
2016-12-23,0.16418295916755762
2016-12-26,0.47720791854816824
2016-12-27,-0.2196723087023814
2016-12-28,-0.02171519576986893
2016-12-29,0.25023797129471637
2016-12-30,-0.09625920498772363
2017-01-03,-0.37756010467874446
2017-01-04,0.13250209117523942
2017-01-05,-0.025077827741265185
2017-01-06,-0.10283422459893782
2017-01-09,0.06626356519188432
2017-01-10,-0.13455483352314423
2017-01-11,-0.07070209973753853
2017-01-12,0.16683579509151686
2017-01-13,0.20167691957166867
2017-01-16,0.3758746470722316
2017-01-17,0.24378881987577378
2017-01-18,0.34139971102961125
2017-01-19,-0.10059655026602421
2017-01-20,-0.16527445354651812
2017-01-23,-0.5433323630796065
2017-01-24,-0.0028382395634167735
2017-01-25,-0.5953029502158187
2017-01-26,-0.04748495411838226
2017-02-03,0.22265347803079427
2017-02-06,0.12464675640171219
2017-02-07,0.0636542891854351
2017-02-08,0.3884494249452493
2017-02-09,0.1146447938337602
2017-02-10,-0.3566053511705638
2017-02-13,-0.010094137783474642
2017-02-14,-0.12887538824473027
2017-02-15,-0.219095688610963
2017-02-16,-0.21575053943591083
2017-02-17,0.5358822252071214
2017-02-20,0.33933383095896136
2017-02-21,0.1571269873918491
2017-02-22,0.10177222114616039
2017-02-23,0.22868245621208072
2017-02-24,-0.5508033360802539
2017-02-27,-0.3857305920925659
2017-02-28,-0.10162224992418582
2017-03-01,0.10604054352281353
2017-03-02,0.018722199450440846
2017-03-03,0.19465939706984056
2017-03-06,-0.0029387397808505883
2017-03-07,-0.03819432594377353
2017-03-08,-0.1030748607096492
2017-03-09,-0.20395676219204362
2017-03-10,-0.06619269678668806
2017-03-13,0.36595414249046
2017-03-14,2.442022287884346
2017-03-15,0.027717014511460133
2017-03-16,0.11096966761320248
2017-03-17,0.16096820704663345
2017-03-20,-0.3105086621068544
2017-03-21,-3.0645146844533797
2017-03-22,0.09501262231492283
2017-03-23,-0.044542729346742554
2017-03-24,-0.13729800068481784
2017-03-27,0.12692260198447755
2017-03-28,0.7242756875340779
2017-03-29,-0.15217089315120708
2017-03-30,0.02453514854311995
2017-03-31,-0.12330275229357544
2017-04-05,-0.11298701298700978
2017-04-06,-0.03430446455205028
2017-04-07,0.052469736920963864
2017-04-10,-0.06555767504488463
2017-04-11,0.31980629539952066
2017-04-12,0.05558568084663906
2017-04-13,-0.07290937557562156
2017-04-14,0.09379785419957169
2017-04-17,0.12020916833667605
2017-04-18,-0.30403706463029745
2017-04-19,-0.012047571016394913
2017-04-20,0.08004031672404081
2017-04-21,-0.2179535894388197
2017-04-24,-0.018655420799531797
2017-04-25,0.06103808589239931
2017-04-26,-0.0945049091702723
2017-04-27,0.0855806030496486
2017-04-28,0.18680761993991143
2017-05-02,-0.0764590505674419
2017-05-03,0.1605260166717099
2017-05-04,0.07291185098804134
2017-05-05,-0.07353137368256901
2017-05-08,-3.892944039322194e-05
2017-05-09,0.018468091048733634
2017-05-10,-0.08926650755767118
2017-05-11,0.07765341751567637
2017-05-12,0.1264275925079893
2017-05-15,-0.0951767568341197
2017-05-16,0.10803159973665959
2017-05-17,0.03546623031801734
2017-05-18,-0.14779490408529844
2017-05-19,-0.44896831274096605
2017-05-22,0.18957050844109619
2017-05-23,0.12475854601543815
2017-05-24,0.10355027723965615
2017-05-25,0.7097619181137006
2017-05-26,0.4013677335704234
2017-05-31,-0.02138859903454618
2017-06-01,-0.20729411690742905
2017-06-02,-0.11427455016773631
2017-06-05,-0.8298276636493946
2017-06-06,-0.13308123901127117
2017-06-07,-0.25091744264423166
2017-06-08,0.07255824662895757
2017-06-09,-0.016540126449182443
2017-06-12,0.20880403560589753
2017-06-13,0.031541157847125356
2017-06-14,0.13303496335455484
2017-06-15,-0.12870102028232044
2017-06-16,-0.007479547770155784
2017-06-19,0.043608922490069674
2017-06-20,0.019583257235570334
2017-06-21,0.021657122611780245
2017-06-22,0.18468326981295852
2017-06-23,0.08911910876985432
2017-06-26,-0.10973047846589004
2017-06-27,-0.028477539782708738
2017-06-28,-0.08653833480856885
2017-06-29,-0.2599425404474478
2017-06-30,-0.2581935614255774
2017-07-03,0.0639585161047737
2017-07-04,-0.021593091011612445
2017-07-05,0.23121682319313583
2017-07-06,0.19252302194529802
2017-07-07,0.18679576037612677
2017-07-10,-0.009344244845822814
2017-07-11,0.1861173073318656
2017-07-12,-0.17070794544273357
2017-07-13,-0.010943683409437285
2017-07-14,0.09807869752757299
2017-07-17,0.18360737699282714
2017-07-18,-0.20912989493689016
2017-07-19,-0.033343711801472345
2017-07-20,-0.10554182602726558
2017-07-21,-0.13659133711092591
2017-07-24,-0.30049669497241094
2017-07-25,-0.02204787191046787
2017-07-26,0.031538441902380754
2017-07-27,0.07400100960864593
2017-07-28,-0.009125861689655144
2017-07-31,0.03641599022674767
2017-08-01,0.1556513477588851
2017-08-02,-0.16643511606901817
2017-08-03,0.16837088177810045
2017-08-04,0.09605942043655727
2017-08-07,0.13320570831883216
2017-08-08,-0.22255659469793754
2017-08-09,0.16544542565829667
2017-08-10,-0.2039489788112934
2017-08-11,0.007818997948156069
2017-08-14,-0.048739258422294006
2017-08-15,0.18798832936552493
2017-08-16,-0.007466545580409923
2017-08-17,-0.13941769107608032
2017-08-18,-0.12876695626727486
2017-08-21,-0.025395189068714526
2017-08-22,-0.0728464085295534
2017-08-23,0.13419525778457353
2017-08-24,0.25101750482904767
2017-08-25,0.30911780514331166
2017-08-28,0.16447058720102328
2017-08-29,-0.01708974134798425
2017-08-30,-0.08339347373005548
2017-08-31,-0.09664173516917289
2017-09-01,-0.393008072784762
2017-09-04,-0.30398125270637977
2017-09-05,0.10164432765842082
2017-09-06,-0.18922699620224326
2017-09-07,0.04558209785762477
2017-09-08,0.06784847566582121
2017-09-11,0.29746257758305716
2017-09-12,-0.11954266917792249
2017-09-13,0.11364669674395401
2017-09-14,-0.044736455733370165
2017-09-15,0.062477315050009544
2017-09-18,-0.24341279419421893
2017-09-19,0.11782068824788748
2017-09-20,0.016835309846734987
2017-09-21,0.007887640309821593
2017-09-22,0.046956300702769654
2017-09-25,0.0676029718326747
2017-09-26,-0.23159011601192064
2017-09-27,0.0469962606311677
2017-09-28,-0.16339784439145918
2017-09-29,-0.09130214192751206
2017-10-09,0.5079975533297661
2017-10-10,0.35643561637816457
2017-10-11,-0.04532063038913921
2017-10-12,0.22237150951032159
2017-10-13,-0.0017567054733316073
2017-10-16,-0.7149210903873797
2017-10-17,-0.3768556568639992
2017-10-18,0.0570989956863251
2017-10-19,-0.2237001131865462
2017-10-20,0.15462474093836662
2017-10-23,0.23604240353256792
2017-10-24,0.34545513150059187
2017-10-25,-0.1634502664118102
2017-10-26,0.5395717758013056
2017-10-27,0.15566322172099883
2017-10-30,0.19275856842819147
2017-10-31,-0.246247543270863
2017-11-01,0.26711233876115664
2017-11-02,-0.4907958653335073
2017-11-03,-0.3681102926423863
2017-11-06,-0.3566736731476643
2017-11-07,0.3169605029383585
2017-11-08,-0.17353375767220425
2017-11-09,0.13675696351439742
2017-11-10,0.2551247355509977
2017-11-13,0.18449197860963115
2017-11-14,-0.3216296296296274
2017-11-15,-0.06257850786404823
2017-11-16,0.10886693829067158
2017-11-17,-0.046158876215160405
2017-11-20,0.1628878029418578
2017-11-21,0.45037248284359044
2017-11-22,0.20458018681111032
2017-11-23,0.16394101222089383
2017-11-24,-0.1248659369238271
2017-11-27,-0.1518874023492374
2017-11-28,-0.5190762951603038
2017-11-29,-0.07678378430770366
2017-11-30,-0.5097965946206746
2017-12-01,0.01796523035599437
2017-12-04,-0.008415652248221087
2017-12-05,0.33681540778314667
2017-12-06,-0.04188624334924196
2017-12-07,0.22960977062853757
2017-12-08,0.05147745336424471
2017-12-11,-0.03797547258961467
2017-12-12,-0.22758218370172761
2017-12-13,-0.06508237511564414
2017-12-14,-0.06993464052287356
2017-12-15,-0.04551614724052187
2017-12-18,-0.012378739378671205
2017-12-19,-0.014674925296052493
2017-12-20,-0.03427690743241327
2017-12-21,0.1347288847104488
2017-12-22,-0.06287099826002387
2017-12-25,0.14576680777203874
2017-12-26,8.86029622408635e-05
2017-12-27,0.3467137489605293
2017-12-28,-0.13431860726032271
2017-12-29,0.09038755250095093
2018-01-02,-0.10799044560565657
2018-01-03,0.08909838522348303
2018-01-04,-0.4616092697703144
2018-01-05,-0.038952154682120085
2018-01-08,-0.036148712163935046
2018-01-09,-0.09801229481378486
2018-01-10,-0.03466938163112267
2018-01-11,0.220866454689987
2018-01-12,0.13386175700871722
2018-01-15,0.17904125259169187
2018-01-16,0.12606330679691563
2018-01-17,0.20995526659442898
2018-01-18,0.06243768693918036
2018-01-19,0.012222505786927088
2018-01-22,-0.22653311541387983
2018-01-23,0.0034476703193577624
2018-01-24,-0.28519361122509385
2018-01-25,-0.017502336877994053
2018-01-26,0.017172616716329657
2018-01-29,0.3597853561309049
2018-01-30,0.02169218199659819
2018-01-31,0.0949634175993126
2018-02-01,-0.08575549337955926
2018-02-02,0.008900770899096383
2018-02-05,-0.34037253983129884
2018-02-06,0.015311309163707217
2018-02-07,0.33399123887676946
2018-02-08,0.21532877732089872
2018-02-09,0.2026714072827691
2018-02-12,0.008877411500889977
2018-02-13,-0.07195268750769168
2018-02-14,-0.5421096425567584
2018-02-22,-0.34922443313273355
2018-02-23,-0.7106644640492905
2018-02-26,0.07372381245635612
2018-02-27,0.039144711230301395
2018-02-28,0.22844933133356893
2018-03-01,0.27386692299438503
2018-03-02,0.435405074571582
2018-03-05,-0.018680297029171386
2018-03-06,-0.05228793599760789
2018-03-07,0.0495229085816901
2018-03-08,-0.1808842303299053
2018-03-09,-0.026013785381897886
2018-03-12,-0.115388741863957
2018-03-13,-0.019454303460513862
2018-03-14,-0.26995100222717044
2018-03-15,0.09748247552027534
2018-03-16,0.13673255622336652
2018-03-19,0.14908248732667953
2018-03-20,-0.046267874635421
2018-03-21,0.365616550629825
2018-03-22,0.043520434911953024
2018-03-23,-0.0512847517974571
2018-03-26,0.03249812718076162
2018-03-27,0.15979822653521808
2018-03-28,-0.11931191486823853
2018-03-29,0.07282449103793104
2018-03-30,-0.16417411303093715
2018-04-02,-0.08222183222183031
2018-04-03,-0.12198286924232908
2018-04-04,-0.16881341910576425
2018-04-09,-0.37971174756958803
2018-04-10,0.30853196394259375
2018-04-11,-0.10315814465774371
2018-04-12,0.06978931621302353
2018-04-13,0.17893949826032485
2018-04-16,0.3745928695976418
2018-04-17,-0.24766279819470693
2018-04-18,0.12500175860661938
2018-04-19,-0.009723574870248119
2018-04-20,-0.057259111213778274
2018-04-23,-0.23639797227557807
2018-04-24,0.06761550258961253
2018-04-25,-0.07616488362360357
2018-04-26,0.12159332176011799
2018-04-27,0.028193332339766685
2018-05-02,0.08244752104336411
2018-05-03,-0.09340621175689662
2018-05-04,0.08882770123998579
2018-05-07,-0.21548734696973423
2018-05-08,-0.08346620186492182
2018-05-09,-0.046867268678871525
2018-05-10,-0.013264371554466164
2018-05-11,-0.08082651197624857
2018-05-14,-0.04384042638939001
2018-05-15,-0.08689873417721544
2018-05-16,0.180651211413111
2018-05-17,0.059328449754698004
2018-05-18,0.26786806127743445
2018-05-21,0.17369010773330587
2018-05-22,0.1732254444924037
2018-05-23,-0.08128430298271894
2018-05-24,0.03895427324347174
2018-05-25,-0.3121667308811683
2018-05-28,-0.05267610946695326
2018-05-29,-0.047840829107787176
2018-05-30,-0.0533737711079848
2018-05-31,0.03640378209949622
2018-06-01,0.054166153217301026
2018-06-04,0.03135039326465328
2018-06-05,-0.028723273531584485
2018-06-06,-0.12679059732570436
2018-06-07,-0.1448738486183369
2018-06-08,0.1893237796686021
2018-06-11,-0.05148278216759852
2018-06-12,0.12796733932494542
2018-06-13,0.19781561136464915
2018-06-14,0.1345332519829091
2018-06-15,-0.27628681096046254
2018-06-19,0.37401678186999027
2018-06-20,-0.11580127820294306
2018-06-21,0.11263016480489227
2018-06-22,-0.0661145952153169
2018-06-25,0.3212369770734229
2018-06-26,-0.4511857387557063
2018-06-27,0.209830184573604
2018-06-28,-0.18025297155813363
2018-06-29,0.08871116992744653
2018-07-02,-0.03166463107083528
2018-07-03,0.14303294149829276
2018-07-04,-0.2898522778141255
2018-07-05,0.021753306552373855
2018-07-06,0.010880713489409832
2018-07-09,-0.3330087397168856
2018-07-10,-0.1625816947631218
2018-07-11,0.08763492783044635
2018-07-12,0.06720152748566706
2018-07-13,-0.2881106235872865
2018-07-16,0.12821796572766309
2018-07-17,0.13934336691346197
2018-07-18,0.05173948593734588
2018-07-19,-0.2154825832241306
2018-07-20,0.6470297317864968
2018-07-23,0.049310140000672686
2018-07-24,0.03700492375559196
2018-07-25,-0.11211456020700672
2018-07-26,0.1978081182883055
2018-07-27,-0.6964298729297602
2018-07-30,-0.029277092983776846
2018-07-31,-0.134031427844378
2018-08-01,0.4431520891008679
2018-08-02,0.039490462980090395
2018-08-03,0.32322159240022696
2018-08-06,0.059166713660992895
2018-08-07,0.20549647095755122
2018-08-08,-0.4981664440820789
2018-08-09,-0.09367681498828799
2018-08-10,-0.09614561027837293
2018-08-13,-0.05695560547462837
2018-08-14,-0.2562914753589577
2018-08-15,0.23313618355582988
2018-08-16,-0.014471191425983942
2018-08-17,0.16122560257471547
2018-08-20,-0.005093559650468524
2018-08-21,0.20095261229248762
2018-08-22,-0.248866935839186
2018-08-23,-0.08650846192744759
2018-08-24,-0.16561230277030006
2018-08-27,0.02229889426539047
2018-08-28,-0.16680014504143006
2018-08-29,0.1147284876585886
2018-08-30,0.08588911009387558
2018-08-31,-0.07157516565392005
2018-09-03,-0.06761659687370113
2018-09-04,0.2971812138478788
2018-09-05,0.2761885697127426
2018-09-06,0.01592110804360675
2018-09-07,0.13917071785503798
2018-09-10,0.08238214224988717
2018-09-11,-0.2859770793369689
2018-09-12,-0.391586763751715
2018-09-13,-0.028608342561830837
2018-09-14,-0.14733583613251533
2018-09-17,-0.08202463009447698
2018-09-18,0.3155429893329841
2018-09-19,0.24919297316773942
2018-09-20,-0.07461456671982983
2018-09-21,0.518141035260975
2018-09-25,0.08498560559818462
2018-09-26,-0.30412634217923384
2018-09-27,-0.18933597854003364
2018-09-28,0.20387906522346483
2018-10-08,-0.5002758595010628
2018-10-09,0.03162110903011454
2018-10-10,0.055533437289214546
2018-10-11,0.35235557312089344
2018-10-12,-0.022099534096329185
2018-10-15,-0.005566148622177386
2018-10-16,0.03704945200292481
2018-10-17,0.11337362736758036
2018-10-18,-0.37527755154528913
2018-10-19,0.06487075835771189
2018-10-22,0.3147304625843761
2018-10-23,0.01837490666239673
2018-10-24,-0.10624783522176404
2018-10-25,0.17070135276986298
2018-10-26,-0.23669854973885862
2018-10-29,-0.2400308571737425
2018-10-30,-0.19407117317247913
2018-10-31,-0.044612345432025
2018-11-01,-0.12859206652461241
2018-11-02,0.0738647533584317
2018-11-05,-0.16322916682306832
2018-11-06,-0.02145749641030284
2018-11-07,0.06604982179187054
2018-11-08,0.010779032111619534
2018-11-09,-0.05612069389159545
2018-11-12,0.12507329371281725
2018-11-13,0.28108823883471423
2018-11-14,-0.058134918681982145
2018-11-15,0.06531833982045807
2018-11-16,0.11740379627630587
2018-11-19,0.11055257028309368
2018-11-20,-0.24404970710905144
2018-11-21,-0.013116734278959166
2018-11-22,0.0076561087490991326
2018-11-23,-0.07446954607348893
2018-11-26,-0.047226017551900826
2018-11-27,-0.002584764203274151
2018-11-28,0.11042728971823006
2018-11-29,-0.030127690791132547
2018-11-30,-0.05597673753895816
2018-12-03,0.012689279027137275
2018-12-04,0.04673949842444019
2018-12-05,-0.11459720494622125
2018-12-06,-0.031233485467215192
2018-12-07,0.03202474690664296
2018-12-10,-0.060348349379098304
2018-12-11,-0.05001935703364214
2018-12-12,0.02131610285361093
2018-12-13,0.19882163580001827
2018-12-14,0.09863956393367661
2018-12-17,0.011791539057601892
2018-12-18,0.29769348374873283
2018-12-19,0.18970848459419423
2018-12-20,-0.0628524640285161
2018-12-21,0.060800068880659
2018-12-24,0.08851824597435738
2018-12-25,-0.12144184079995349
2018-12-26,-0.19050680163923284
2018-12-27,-0.16020395569641233
2018-12-28,-0.1715858560538708
2019-01-02,0.04566354642495642
2019-01-03,-0.21529370848388724
2019-01-04,0.23750998492944314
2019-01-07,0.004060139183508657
2019-01-08,-0.009208948705554873
2019-01-09,-0.14147686406136786
2019-01-10,0.08527275515327636
2019-01-11,-0.40114690616254645
2019-01-14,0.04198355127244434
2019-01-15,0.2867468770142172
2019-01-16,-0.07518275538894587
2019-01-17,0.06311579445820897
2019-01-18,0.29902780273090795
2019-01-21,0.08035695538329632
2019-01-22,-0.2661858455154022
2019-01-23,0.15603203459141324
2019-01-24,-0.02631301759091417
2019-01-25,-0.12257839151600364
2019-01-28,0.03811138682049829
2019-01-29,0.06682952707798641
2019-01-30,-0.04715163009239143
2019-01-31,3.3626166293067335e-05
2019-02-01,-0.01681916338297662
2019-02-11,-0.11931074231611154
2019-02-12,-0.09032110091742765
2019-02-13,0.3150276982677783
2019-02-14,-0.0640765520679017
2019-02-15,0.21945453231836498
2019-02-18,0.02828245189356878
2019-02-19,0.21021153830254044
2019-02-20,-0.45966008465956354
2019-02-21,0.21452790613008763
2019-02-22,-0.08478645410190139
2019-02-25,0.5495835698680628
2019-02-26,-0.01852322661422924
2019-02-27,0.26359395300576305
2019-02-28,-0.18430662278838084
2019-03-01,-0.08589090128660344
2019-03-04,-0.7190758994648363
2019-03-05,-0.2724498135391858
2019-03-06,-0.13886219222773838
2019-03-07,0.11087876742071137
2019-03-08,0.0006418986182470964
2019-03-11,-0.005205675152204464
2019-03-12,0.27260844813490465
2019-03-13,0.020096690641243677
2019-03-14,-0.13612356585368413
2019-03-15,-0.07952678251640093
2019-03-18,0.31873328191619765
2019-03-19,-0.15858603786825765
2019-03-20,-0.013820378441243697
2019-03-21,0.017673066137063785
2019-03-22,0.07127215384987333
2019-03-25,-0.23380835468436933
2019-03-26,0.02557059031411584
2019-03-27,-0.04601419111671606
2019-03-28,0.07694101971369494
2019-03-29,0.27872941260701023
2019-04-01,0.06879659328810167
2019-04-02,-0.03987801035779882
2019-04-03,0.18662356583500384
2019-04-04,0.003456057856772561
2019-04-08,-0.36717981144256195
2019-04-09,-0.029917051422827284
2019-04-10,0.20200187576259915
2019-04-11,-0.01133685782950515
2019-04-12,-0.09570324363065683
2019-04-15,0.12821056536584519
2019-04-16,0.3100309669963921
2019-04-17,-0.18940003522087095
2019-04-18,-0.27988474165814964
2019-04-19,0.21644768320797175
2019-04-22,0.007697458209845638
2019-04-23,-0.45804617781000556
2019-04-24,0.14583931075307652
2019-04-25,0.24271571592222502
2019-04-26,-0.26035072202504494
2019-04-29,-0.1364572102410099
2019-04-30,0.15214426020288566
2019-05-06,0.06065779479003451
2019-05-07,-0.016504589882479395
2019-05-08,0.10681285815384572
2019-05-09,0.11932240993725057
2019-05-10,0.2818289326567443
2019-05-13,-0.35590818494425974
2019-05-14,-0.07091243187844906
2019-05-15,0.023692669463007434
2019-05-16,-0.15378292615527867
2019-05-17,-0.3917480370116349
2019-05-20,0.29603683750307785
2019-05-21,0.010466683361559767
2019-05-22,-0.11614063106676874
2019-05-23,0.19034883667484687
2019-05-24,0.03860702343660331
2019-05-27,-0.04407829170465752
2019-05-28,-0.02954447986021559
2019-05-29,0.2051274308863676
2019-05-30,-0.07617791498338826
2019-05-31,0.13078058714718474
2019-06-03,-0.1578839698887271
2019-06-04,0.02122761402048653
2019-06-05,-0.21335153438112303
2019-06-06,-0.04892759224551961
2019-06-10,-0.04241969540968463
2019-06-11,0.2528843135910922
2019-06-12,-0.08187064850899498
2019-06-13,0.0716444879256513
2019-06-14,0.12123417343054313
2019-06-17,-0.012948281718684364
2019-06-18,-0.3944070064167692
2019-06-19,0.2820383530335972
2019-06-20,0.5271987510053383
2019-06-21,-0.08623632491579958
2019-06-24,0.08362001330667827
2019-06-25,0.4378893567745371
2019-06-26,-0.22136686767038033
2019-06-27,-0.7736344012199121
2019-06-28,0.019031590686448503
2019-07-01,-0.04732818828245786
2019-07-02,-0.476998444836813
2019-07-03,0.08941924496417267
2019-07-04,0.25307035891674023
2019-07-05,0.04508598438232249
2019-07-08,0.21803621730382136
2019-07-09,0.3691214263126753
2019-07-10,-0.050732891312899216
2019-07-11,0.04574778444432655
2019-07-12,0.020225323637778517
2019-07-15,-0.14702824858757185
2019-07-16,-0.10327611010438148
2019-07-17,-0.0013486102735569298
2019-07-18,-0.1436620030107144
2019-07-19,-0.06876394612800563
2019-07-22,-0.2888141129456715
2019-07-23,-0.03907375266598502
2019-07-24,0.03542818280226563
2019-07-25,0.1778240281824447
2019-07-26,-0.04670066358131826
2019-07-29,0.06807045610904272
2019-07-30,0.08070564233514232
2019-07-31,-0.10731746338719458
2019-08-01,-0.009592371759344402
2019-08-02,0.09482083035507313
2019-08-05,0.42586836844670783
2019-08-06,0.14402435718307222
2019-08-07,0.13477841700985582
2019-08-08,-0.11358840112767396
2019-08-09,0.002914051723510277
2019-08-12,-0.3197268748493293
2019-08-13,-0.3248663853727127
2019-08-14,-0.07991117165276528
2019-08-15,0.31815159199774895
2019-08-16,0.013557374701539823
2019-08-19,0.15068339499453504
2019-08-20,0.1536068211657527
2019-08-21,-0.07450239149473444
2019-08-22,-0.464699792323263
2019-08-23,-0.008264887232426604
2019-08-26,-0.28034591246063933
2019-08-27,0.14878634122740644
2019-08-28,0.20983305793442764
2019-08-29,0.2748759595228388
2019-08-30,-0.08659543431740968
2019-09-02,0.22561121907914344
2019-09-03,-0.25812276259494726
2019-09-04,-0.07833216306637292
2019-09-05,0.07348615296312379
2019-09-06,0.009584320350618562
2019-09-09,-0.06548401695644536
2019-09-10,0.1928177228071548
2019-09-11,-0.03350610001377517
2019-09-12,-0.24445439224773174
2019-09-16,0.07217860572108983
2019-09-17,0.12467031432619403
2019-09-18,-0.12806553154958178
2019-09-19,-0.03268982641223211
2019-09-20,-0.02057437881895703
2019-09-23,-0.0651514842015906
2019-09-24,-0.29371135693170697
2019-09-25,0.061928063379099306
2019-09-26,0.01883877115734098
2019-09-27,0.158649750811724
2019-09-30,0.16920010351476156
2019-10-08,0.2908419986245637
2019-10-09,0.0446887585630205
2019-10-10,0.05321415435973831
2019-10-11,0.15719514472455565
2019-10-14,-0.15638106288600956
2019-10-15,-0.22958835384882087
2019-10-16,0.04169093748680859
2019-10-17,-0.10248299570703576
2019-10-18,-0.06260125595264379
2019-10-21,-0.07185994537022053
2019-10-22,0.19780013364130206
2019-10-23,-0.16936204274834016
2019-10-24,0.12366652333412873
2019-10-25,-0.30836377901239004
2019-10-28,0.09466223397884937
2019-10-29,-0.10837727498512492
2019-10-30,0.033331482620020156
2019-10-31,-0.1529954014686856
2019-11-01,0.3056957410405655
2019-11-04,-0.07880443615481618
2019-11-05,0.29923825532453613
2019-11-06,-0.021382274587342653
2019-11-07,0.16438497075899006
2019-11-08,-0.2153465653782204
2019-11-11,0.1864018392190889
2019-11-12,-0.42038743520009203
2019-11-13,0.07321398190374141
2019-11-14,-0.16264798942120012
2019-11-15,-0.010901385863066312
2019-11-18,-0.0805260225119368
2019-11-19,0.14564828283356712
2019-11-20,0.0967539034233804
2019-11-21,0.13803392744685788
2019-11-22,0.3163231059716172
2019-11-25,-0.10966394945941707
2019-11-26,-0.015540265185615671
2019-11-27,-0.1768135056713377
2019-11-28,-0.016940555893707472
2019-11-29,-0.30453408380238417
2019-12-02,0.033553509943087804
2019-12-03,0.10829170829170434
2019-12-04,0.014187747637916255
2019-12-05,-0.09147382601010193
2019-12-06,-0.14563524372543307
2019-12-09,0.04728421764620718
2019-12-10,-0.26839952500329356
2019-12-11,0.08540185564526626
2019-12-12,0.05553290310713438
2019-12-13,0.55276237030144
2019-12-16,-0.017274974552859364
2019-12-17,0.6313875786163503
2019-12-18,-0.02646013488932311
2019-12-19,0.028360730471158942
2019-12-20,-0.4503246667975844
2019-12-23,0.23536293263449928
2019-12-24,-0.7042835635326132
2019-12-25,-0.03711858264338321
2019-12-26,0.015260441875189195
2019-12-27,0.2545993524775946
2019-12-30,-0.14426030158407754
2019-12-31,0.3113325117526789
2020-01-02,0.10615164400131286
2020-01-03,-0.04019975169726722
2020-01-06,-0.02922031321223395
2020-01-07,-0.2502278195873696
2020-01-08,-0.012940179415631699
2020-01-09,-0.1610763495752529
2020-01-10,-0.038927038626612974
2020-01-13,-0.22710654985679238
2020-01-14,0.2539700737866316
2020-01-15,0.013182897862235275
2020-01-16,0.15372552228222955
2020-01-17,0.07299215176651229
2020-01-20,0.02713070691437322
2020-01-21,-0.03734270881866218
2020-01-22,0.08629785531341146
2020-01-23,0.2841195363766366
2020-02-03,0.4217044400871879
2020-02-04,0.29695113832372744
2020-02-05,-0.02390960704544463
2020-02-06,-0.11418020825459156
2020-02-07,-0.4845200157826418
2020-02-10,-0.7294451360569792
2020-02-11,-0.3699436913451508
2020-02-12,-0.10871372152535635
2020-02-13,-0.1733371592539458
2020-02-14,0.10999793301229256
2020-02-17,0.42213437989064906
2020-02-18,0.14296016630007385
2020-02-19,0.09826454813856943
2020-02-20,0.3064630471187119
2020-02-21,0.04582088307914049
2020-02-24,-0.21938583568736608
2020-02-25,0.08134696237403283
2020-02-26,0.1496062697060467
2020-02-27,-0.3165083570579753
2020-02-28,0.14035708731807903
2020-03-02,0.24014874696847155
2020-03-03,-0.04070649219796108
2020-03-04,-0.2557144313380969
2020-03-05,0.3222106650024236
2020-03-06,-0.26443577761787096
2020-03-09,-0.262172070583633
2020-03-10,0.18524387086716426
2020-03-11,0.13953776724340236
2020-03-12,-0.24395492198606486
2020-03-13,0.47549937084942084
2020-03-16,0.24348403239790278
2020-03-17,-0.12400128835868328
2020-03-18,0.10531642750407105
2020-03-19,0.2531441649157642
2020-03-20,-0.49361473955609503
2020-03-23,-0.24255602126788495
2020-03-24,-0.18574516232767385
2020-03-25,-0.32002605114038074
2020-03-26,-0.4033075653816137
2020-03-27,-0.008770548806627518
2020-03-30,-0.023745944565622915
2020-03-31,0.0443690966277223
2020-04-01,0.2326345379033998
2020-04-02,0.28805620051410896
2020-04-03,0.08575791133930544
2020-04-07,0.05348037550806367
2020-04-08,-0.04472234149134481
2020-04-09,-0.2693468933735911
2020-04-10,-0.18164428431051205
2020-04-13,-0.06838197644650282
2020-04-14,0.20802634266385966
2020-04-15,0.15022302759966258
2020-04-16,0.2653637613342738
2020-04-17,0.1223505069264708
2020-04-20,0.16502710161462328
2020-04-21,-0.04773361164781198
2020-04-22,0.05989692103556259
2020-04-23,-0.0028619086237490557
2020-04-24,-0.08509270597712942
2020-04-27,0.03041605529111708
2020-04-28,-0.06568184947334864
2020-04-29,-0.11313751929985431
2020-04-30,0.004147669373995785
2020-05-06,0.21411009227386862
2020-05-07,-0.17583301694057246
2020-05-08,-0.17731741573033197
2020-05-11,0.02284119389382765
2020-05-12,-0.14841115023101958
2020-05-13,-0.2720188639974612
2020-05-14,0.12498958315818126
2020-05-15,0.21384933565207748
2020-05-18,0.04614412703797975
2020-05-19,0.0781494554738278
2020-05-20,0.0994663286750792
2020-05-21,-0.012074775339630195
2020-05-22,0.21592594524679515
2020-05-25,-0.09657443495418086
2020-05-26,-0.009169194170170836
2020-05-27,0.06325733739935555
2020-05-28,0.1402727469996145
2020-05-29,-0.5098034826984194
2020-06-01,0.10071418714744643
2020-06-02,0.12827811761855706
2020-06-03,0.08546306187854169
2020-06-04,-0.31060843016334966
2020-06-05,0.24140774944978763
2020-06-08,-0.1129649702735527
2020-06-09,-0.14234597618892914
2020-06-10,-0.2240101103581361
2020-06-11,0.3083935531195996
2020-06-12,0.09929743986851176
2020-06-15,0.14510073800254175
2020-06-16,0.0005864679292291591
2020-06-17,0.12107041439519071
2020-06-18,-0.20481765085132017
2020-06-19,-0.11613850237398425
2020-06-22,-0.09147460371150708
2020-06-23,0.12189540985419292
2020-06-24,0.04121691954079816
2020-06-29,0.06279574955441312
2020-06-30,-0.10532590812410972
2020-07-01,0.18957436012323237
2020-07-02,0.2011338918001686
2020-07-03,0.12650066354426598
2020-07-06,0.6317328990494234
2020-07-07,0.33584481557937396
2020-07-08,-0.13811457185665033
2020-07-09,-0.3517568767477685
2020-07-10,-0.13918652143503446
2020-07-13,-0.8724673946011539
2020-07-14,-0.341484954772471
2020-07-15,-0.09294459815071304
2020-07-16,0.39236678260122715
2020-07-17,-0.0631132962584331
2020-07-20,0.22207451509858678
2020-07-21,0.01818182503072506
2020-07-22,0.09198137875968324
2020-07-23,-0.5248928471960296
2020-07-24,0.22504565516031674
2020-07-27,-0.09865065238014334
2020-07-28,0.10484911256054874
2020-07-29,-0.07618266197961476
2020-07-30,0.07673685684491773
2020-07-31,-0.2854173815677755
2020-08-03,0.04303172660948484
2020-08-04,0.023192959736861866
2020-08-05,-0.04802611937232119
2020-08-06,0.26903944899772864
2020-08-07,0.00542791876775317
2020-08-10,0.1881673639543303
2020-08-11,0.06471379470144434
2020-08-12,0.11853302229530763
2020-08-13,-0.2554481907894745
2020-08-14,0.08676713084587154
2020-08-17,-0.09040464913817065
2020-08-18,-0.2474685171810453
2020-08-19,-0.024978169927165
2020-08-20,0.09774301387000503
2020-08-21,-0.08941797558021092
2020-08-24,-0.24564816907809764
2020-08-25,0.18421257001460184
2020-08-26,-0.0565751022926806
2020-08-27,0.01918620771599298
2020-08-28,0.32978659462640314
2020-08-31,0.3804621389662856
2020-09-01,-0.06164179341538706
2020-09-02,0.0451951116376883
2020-09-03,0.04601468117501699
2020-09-04,-0.42469620605121144
2020-09-07,-0.166100243674296
2020-09-08,0.07589792339095433
2020-09-09,-0.01586597488691901
2020-09-10,-0.12964601697934394
2020-09-11,0.21909088412343128
2020-09-14,-0.27912503052624416
2020-09-15,-0.053296461483134404
2020-09-16,-0.10272628443151925
2020-09-17,0.07960644535868164
2020-09-18,0.3246852515730234
2020-09-21,0.44107529163302445
2020-09-22,0.09166105687654265
2020-09-23,0.09712839488003405
2020-09-24,0.06509460896768222
2020-09-25,-0.5903171544717336
2020-09-28,-0.3035998924291976
2020-09-29,-0.2876258392866498
2020-09-30,0.2217680587279427
2020-10-09,-0.20195702730085108
2020-10-12,0.6046712358867501
2020-10-13,0.12180148316596667
2020-10-14,0.1709952885105566
2020-10-15,-0.318797589114522
2020-10-16,0.24502979931912752
2020-10-19,-0.364610668853533
2020-10-20,-0.04531539155867884
2020-10-21,0.08825169110164181
2020-10-22,0.21084877349273906
2020-10-23,-0.13273380659195755
2020-10-26,-0.12100006519590865
2020-10-27,0.08330660900052614
2020-10-28,-0.025240598466854967
2020-10-29,-0.022711309517754533
2020-10-30,0.08858203896371375
2020-11-02,0.06185787130033972
2020-11-03,0.05427438151858501
2020-11-04,-0.021943761743657184
2020-11-05,-0.18056675387623589
2020-11-06,-0.1309147930321556
2020-11-09,0.047729716075326445
2020-11-10,-0.11704415903311316
2020-11-11,-0.0886331613332664
2020-11-12,0.09058197788667126
2020-11-13,0.11990186255613944
2020-11-16,-0.06260244667752995
2020-11-17,-0.04693772348276639
2020-11-18,0.12712884660559404
2020-11-19,0.08915334109922642
2020-11-20,-0.24286895840116607
2020-11-23,0.2646714056466532
2020-11-24,0.13195929968081543
2020-11-25,0.07391632092674344
2020-11-26,-0.15417607519607796
2020-11-27,0.39987803131144184
2020-11-30,-0.02715946106949882
2020-12-01,0.11065021824118484
2020-12-02,-0.1623921277000489
2020-12-03,0.08139823166429908
2020-12-04,-0.27507824790759544
2020-12-07,-0.3273591122963465
2020-12-08,-0.3102539573186056
2020-12-09,0.061069182389934834
2020-12-10,0.04000629567788277
2020-12-11,0.1672038317333196
2020-12-14,0.08299779984993355
2020-12-15,0.11118467485190284
2020-12-16,-0.14674097664543714
2020-12-17,0.05508983541760842
2020-12-18,-0.21021400174171403
2020-12-21,0.17638893111387924
2020-12-22,0.15470236420508868
2020-12-23,0.19324487249193317
2020-12-24,-0.15596844638535629
2020-12-25,0.1025942059836687
2020-12-28,-0.15614179650064905
2020-12-29,-0.24914917313206936
2020-12-30,-0.00213366101880072
2020-12-31,0.19105456813959498
2021-01-04,0.018250950570333623
2021-01-05,0.12729707907434226
2021-01-06,0.26018153310414105
2021-01-07,0.021747388038846308
2021-01-08,-0.08888206346480379
2021-01-11,0.08322204451967823
2021-01-12,0.14648590444548143
2021-01-13,-0.09134831983458624
2021-01-14,-0.11920819973941936
2021-01-15,-0.03782741762049904
2021-01-18,-0.12918931535691305
2021-01-19,-0.37705853459253824
2021-01-20,-0.12274383880481624
2021-01-21,0.02404905940450916
2021-01-22,-0.1137477908629737
2021-01-25,0.022221814772390446
2021-01-26,0.138752460710621
2021-01-27,0.03603879277764262
2021-01-28,-0.046299715799130316
2021-01-29,0.28863636363636413
2021-02-01,-0.11093575455277467
2021-02-02,-0.10822528953684098
2021-02-03,0.0906596555094859
2021-02-04,0.07336283366023297
2021-02-05,-0.28891492429704746
2021-02-08,0.20430658226046228
2021-02-09,0.3166687356534804
2021-02-10,0.07278973627575294
2021-02-18,0.24649007418494454
2021-02-19,0.1057163786753024
2021-02-22,0.0936553878564811
2021-02-23,-0.18871373274440728
2021-02-24,-0.009474269451728079
2021-02-25,-0.438013798816971
2021-02-26,0.022312285762881596
2021-03-01,-0.37023412513310916
2021-03-02,0.140899807440932
2021-03-03,-0.19707433814876063
2021-03-04,0.27727687269758644
2021-03-05,0.05888538035138757
2021-03-08,0.4456696281781981
2021-03-09,-0.18899159932052384
2021-03-10,0.0015848813251795602
2021-03-11,-0.14061711793620468
2021-03-12,-0.16610391207803465
2021-03-15,-0.4369500309841678
2021-03-16,-0.07858183133008434
2021-03-17,0.16483891298706135
2021-03-18,-0.11221960707150434
2021-03-19,0.23761106503434382
2021-03-22,0.11544673384632392
2021-03-23,0.19577223319912107
2021-03-24,-0.0593894580435335
2021-03-25,0.18050429475659202
2021-03-26,-0.24044925590497396
2021-03-29,-0.006416008153985117
2021-03-30,-0.17108978220089405
2021-03-31,-0.08251620307609954
2021-04-01,0.01276916529503333
2021-04-02,0.0178179824561394
2021-04-06,0.09112965472751931
2021-04-07,0.16721543774994188
2021-04-08,0.05136009696812203
2021-04-09,-0.0347146281562982
2021-04-12,0.1332665797317449
2021-04-13,-0.003934624697335038
2021-04-14,-0.12106629515926119
2021-04-15,0.014132968800076369
2021-04-16,-0.019665067420198724
2021-04-19,0.13662097638803336
2021-04-20,-0.051529468695654335
2021-04-21,0.027996621620149008
2021-04-22,-0.010769236117590474
2021-04-23,-0.0006126500335877586
2021-04-26,-0.21086214684283183
2021-04-27,0.0005160162389333325
2021-04-28,0.048439844625823264
2021-04-29,0.018573293602537247
2021-04-30,0.04323700245875217
2021-05-06,-0.038488485157705456
2021-05-07,0.18214650310109448
2021-05-10,0.013755570482401922
2021-05-11,0.04629853835818477
2021-05-12,-0.0979656394873215
2021-05-13,-0.051067541062152576
2021-05-14,-0.05371207665174978
2021-05-17,-0.005500211485894087
2021-05-18,-0.18017106032569702
2021-05-19,0.01369086734151085
2021-05-20,0.1023420662891232
2021-05-21,-0.15919888145444636
2021-05-24,-0.08530653383849078
2021-05-25,0.6569156470930113
2021-05-26,0.10447199469220009
2021-05-27,0.1280983275566742
2021-05-28,0.04447741228536355
2021-05-31,0.0604667941079105
2021-06-01,-0.7803485851463163
2021-06-02,0.002500271347274957
2021-06-03,-0.21367666879477767
2021-06-04,0.08322686949266377
2021-06-07,-0.025284009057808716
2021-06-08,0.35851857698869893
2021-06-09,-0.15618811700315993
2021-06-10,0.09061800654157205
2021-06-11,-0.2043886999244112
2021-06-15,0.15029698111634965
2021-06-16,-0.21045560085485665
2021-06-17,0.11458808040913251
2021-06-18,0.0286709779851809
2021-06-21,0.15224178429957294
2021-06-22,-0.24423228860071222
2021-06-23,0.04770470941103031
2021-06-24,-0.022242572505306465
2021-06-25,-0.010505200742966892
2021-06-28,-0.04573668225875895
2021-06-29,0.12324185925029425
2021-06-30,-0.019951946737865538
2021-07-01,0.12827615908153384
2021-07-02,0.07528917806695161
2021-07-05,0.020642695661535315
2021-07-06,0.006116274456696395
2021-07-07,0.18696034775507786
2021-07-08,-0.08829729963746871
2021-07-09,-0.2326010174654078
2021-07-12,0.08835403280084225
2021-07-13,-0.029365349725355414
2021-07-14,-0.08433819818993793
2021-07-15,0.005461170263051783
2021-07-16,0.16511789489726997
2021-07-19,0.001764608074548521
2021-07-20,-0.022765427085253313
2021-07-21,-0.08351380508301506
2021-07-22,-0.21230364305704658
2021-07-23,-0.06806946948563321
2021-07-26,0.2123780988779596
2021-07-27,0.3859677446327434
2021-07-28,0.13819534400390004
2021-07-29,0.2031987537324374
2021-07-30,0.03630126137906251
2021-08-02,-0.323028175957831
2021-08-03,-0.5263546983060688
2021-08-04,-0.20605320856846582
2021-08-05,0.04021998798949526
2021-08-06,-0.024067463835035288
2021-08-09,-0.08738832108516796
2021-08-10,0.3592148613987809
2021-08-11,0.17813028747750442
2021-08-12,-0.1550046963635651
2021-08-13,0.08119952924805421
2021-08-16,-0.01591389103311716
2021-08-17,-0.17423580091878826
2021-08-18,0.00465944755272768
2021-08-19,0.14050415844880568
2021-08-20,0.03852948612986124
2021-08-23,0.13783429458716168
2021-08-24,-0.14090391150698003
2021-08-25,-0.15241451668268935
2021-08-26,-0.005196803013036509
2021-08-27,-0.1409722432079689
2021-08-30,0.04270769899294946
2021-08-31,0.1988402440996314
2021-09-01,0.36045728695416657
2021-09-02,-0.12052055083072398
2021-09-03,0.07928924452812527
2021-09-06,-0.015968306006734653
2021-09-07,-0.062361795719608544
2021-09-08,-0.4437020684813139
2021-09-09,0.01718528227839306
2021-09-10,-0.05424162548050906
2021-09-13,-0.06542170485242013
2021-09-14,0.023225626861191336
2021-09-15,0.17673853077816779
2021-09-16,0.13818409755994515
2021-09-17,0.014225742188526291
2021-09-22,-0.016931219027641026
2021-09-23,-0.1292031167196808
2021-09-24,-0.020987753961059022
2021-09-27,-0.09919828458345205
2021-09-28,-0.024223624105389134
2021-09-29,0.18952275851057987
2021-09-30,0.02336153961291501
2021-10-08,0.005223483029571629
2021-10-11,0.011237003694958687
2021-10-12,0.031686053959876004
2021-10-13,-0.14986991399869298
2021-10-14,0.13767880793905837
2021-10-15,0.04912035608649474
2021-10-18,0.15599471789028582
2021-10-19,-0.048838031038972496
2021-10-20,-0.053105346301198425
2021-10-21,-0.05635131840896682
2021-10-22,-0.036283432537884665
2021-10-25,-0.37047979196196074
2021-10-26,0.16094707065629257
2021-10-27,0.07271429605913968
2021-10-28,-0.058023358133235454
2021-10-29,-0.1442663320152485
2021-11-01,0.25127661670357815
2021-11-02,0.04286670869668588
2021-11-03,0.02609651553781802
2021-11-04,0.03300774193933585
2021-11-05,0.23050038990682076
2021-11-08,-0.0450740643736891
2021-11-09,-0.30420152790628013
2021-11-10,0.02945424369228954
2021-11-11,0.2701402812112677
2021-11-12,-0.1296281071557223
2021-11-15,0.004406934282990184
2021-11-16,0.11546983765170485
2021-11-17,-0.18967594344947525
2021-11-18,-0.4370400699945811
2021-11-19,0.21788373858896792
2021-11-22,-0.06556756223715927
2021-11-23,0.029295051927722717
2021-11-24,0.183495916579795
2021-11-25,0.14277839677574536
2021-11-26,-0.32485660865084265
2021-11-29,0.12724758081372645
2021-11-30,0.08628501139989843
2021-12-01,-0.17104917554356353
2021-12-02,0.11188271604937702
2021-12-03,0.15259740259740193
2021-12-06,-0.05139220439132765
2021-12-07,-0.1932637868589716
2021-12-08,0.4316856973438172
2021-12-09,0.22925257731958695
2021-12-10,-0.04150039904229914
2021-12-13,0.1625586121209431
2021-12-14,0.10781235885924509
2021-12-15,-0.3860186990182882
2021-12-16,-0.566810852377861
2021-12-17,0.2202354822534288
2021-12-20,-0.2683778609131621
2021-12-21,0.002624731087497791
2021-12-22,0.007513189639036896
2021-12-23,0.38949897610136786
2021-12-24,-0.2955802633474503
2021-12-27,-0.0092362552175497
2021-12-28,0.03267004164821595
2021-12-29,0.34249098394011984
2021-12-30,-0.11160247966182621
2021-12-31,0.0847697084382115
2022-01-04,0.2886161563408724
2022-01-05,0.06827049913750532
2022-01-06,-0.3332593907128071
2022-01-07,-0.06774206753511015
2022-01-10,0.10748249826194683
2022-01-11,-0.26123109899583336
2022-01-12,-0.16466639215440798
2022-01-13,0.12024074427278965
2022-01-14,0.13871755441394626
2022-01-17,-0.12696185471441088
2022-01-18,0.1769151177859809
2022-01-19,0.05065749985610893
2022-01-20,-0.08849106397696178
2022-01-21,-0.13015863706674075
2022-01-24,0.09322293883756358
2022-01-25,-0.11046055545757551
2022-01-26,0.06292370483665867
2022-01-27,-0.05641924186230905
2022-01-28,0.5372338176955231
2022-02-07,0.014515503202070797
2022-02-08,0.023620163011942086
2022-02-09,-0.046354753192146526
2022-02-10,0.009059435149636752
2022-02-11,-0.7734679443277156
2022-02-14,-0.12187073575595701
2022-02-15,-0.1690933409795457
2022-02-16,-0.09508685890142685
2022-02-17,0.08576336110933702
2022-02-18,0.2949945143760293
2022-02-21,0.023518447168101315
2022-02-22,0.24993745600102235
2022-02-23,0.152569255700605
2022-02-24,0.1926764585883266
2022-02-25,0.0003118137900730909
2022-02-28,0.036728964816652124
2022-03-01,-0.10172396988928807
2022-03-02,-0.12272712702873877
2022-03-03,-0.3301482873851266
2022-03-04,-0.08653248224028956
2022-03-07,0.2860330349748487
2022-03-08,0.27622191797214185
2022-03-09,0.6853643439773416
2022-03-10,0.12637200270179114
2022-03-11,0.25739011517339394
2022-03-14,-0.29827821255251297
2022-03-15,-0.1132029270327119
2022-03-16,-0.6611163004889212
2022-03-17,0.03934915540763533
2022-03-18,-0.2170627824714354
2022-03-21,0.0035145462850362415
2022-03-22,-0.38488929006628436
2022-03-23,-0.23075431655158507
2022-03-24,-0.11783003784406176
2022-03-25,-0.007785124674824208
2022-03-28,0.07603408432277148
2022-03-29,0.21858230263333328
2022-03-30,0.33866408146166305
2022-03-31,-0.00145723171229184
2022-04-01,0.11318960699046912
2022-04-06,-0.21593141773403302
2022-04-07,0.07398292851314375
2022-04-08,-0.13059363874785296
2022-04-11,0.29759130421025615
2022-04-12,-0.11001712884263146
2022-04-13,0.17561299405111247
2022-04-14,-0.07738491295937891
2022-04-15,0.06727645984972035
2022-04-18,-0.3538210362741008
2022-04-19,0.040709091968061495
2022-04-20,-0.025318255759424296
2022-04-21,0.11078902542308965
2022-04-22,0.060613886104274484
2022-04-25,0.3998725393610071
2022-04-26,0.0014782436486157806
2022-04-27,0.04355915957225299
2022-04-28,-0.1349713627887498
2022-04-29,0.023814816939091703
2022-05-05,-0.4539475472210841
2022-05-06,-0.015806445928565047
2022-05-09,-0.07792769345821418
2022-05-10,0.21686032124191276
2022-05-11,-0.19188853574130887
2022-05-12,0.1557905810590366
2022-05-13,-0.07187708279127136
2022-05-16,0.11185400471496712
2022-05-17,-0.42201745100639276
2022-05-18,0.07941321256749084
2022-05-19,0.09138468923180801
2022-05-20,0.20174610923057973
2022-05-23,-0.09939746604151359
2022-05-24,0.3349403618417607
2022-05-25,-0.05175436917743423
2022-05-26,-0.005646526387428762
2022-05-27,-0.1732679069796881
2022-05-30,-0.1002079256360019
2022-05-31,-0.08013000604972172
2022-06-01,0.09357986899706838
2022-06-02,-0.20996258127512915
2022-06-06,0.23256694649434811
2022-06-07,0.2703486048539402
2022-06-08,-0.043329474520484385
2022-06-09,0.019044076762392836
2022-06-10,0.36829831398037116
2022-06-13,-0.25159127363244593
2022-06-14,-0.05017694029771065
2022-06-15,0.21863459335624405
2022-06-16,0.013515554822695633
2022-06-17,-0.23024380986065512
2022-06-20,0.1175396761229765
2022-06-21,-0.18258991046542117
2022-06-22,-0.34129780547917243
2022-06-23,-0.0733325141779445
2022-06-24,-0.04394283580701552
2022-06-27,-0.06571975996463336
2022-06-28,0.12346048793781247
2022-06-29,0.17701446660321316
2022-06-30,0.19028793037491637
2022-07-01,0.045689829873906976
2022-07-04,0.030123144148171296
2022-07-05,0.031419744594847594
2022-07-06,0.04285587857869991
2022-07-07,-0.31400175741599656
2022-07-08,0.011937956332186573
2022-07-11,-0.023843909636601858
2022-07-12,-0.20021692822275586
2022-07-13,-0.20145315040118697
2022-07-14,0.15449187159031857
2022-07-15,0.2679400323584964
2022-07-18,0.12250230762865785
2022-07-19,0.1415929197677566
2022-07-20,0.12002747169159958
2022-07-21,-0.014759060085530518
2022-07-22,-0.4197390273812863
2022-07-25,-0.28831291724819397
2022-07-26,-0.1249175980898392
2022-07-27,0.025038170470230246
2022-07-28,0.12062988279573345
2022-07-29,0.30456353098203226
2022-08-01,0.23859226775770745
2022-08-02,0.25872004987975794
2022-08-03,0.09859307359307165
2022-08-04,-0.19350131034069068
2022-08-05,-0.2686631428180994
2022-08-08,-0.07262769401903318
2022-08-09,-0.31187071321033927
2022-08-10,-0.10834103432069547
2022-08-11,0.24207230074919833
2022-08-12,0.02672277191302952
2022-08-15,0.08156154472118168
2022-08-16,0.27346006181568383
2022-08-17,-0.002605539430756902
2022-08-18,-0.26015244986382796
2022-08-19,0.08059111094068751
2022-08-22,-0.07345959595959753
2022-08-23,-0.09994325626250598
2022-08-24,0.03455880331069568
2022-08-25,0.19058674340340007
2022-08-26,-0.02522594364699224
2022-08-29,-0.041045751633989866
2022-08-30,0.008883120555912326
2022-08-31,0.08104073416207579
2022-09-01,-0.18980681717224546
2022-09-02,0.2035723084503571
2022-09-05,0.11971791571053017
2022-09-06,-0.07505705477258069
2022-09-07,-0.36421664565342154
2022-09-08,0.04263339015212682
2022-09-09,-0.12683230568295348
2022-09-13,-0.07276773722224489
2022-09-14,0.05743981511971275
2022-09-15,0.4033396486946444
2022-09-16,0.26771006885756504
2022-09-19,-0.1750785557649525
2022-09-20,-0.007305082269673514
2022-09-21,0.06588876723342064
2022-09-22,-0.19146529128216114
2022-09-23,-0.35104826766066555
2022-09-26,0.23421909757374126
2022-09-27,0.07800196260491624
2022-09-28,-0.09342813188893724
2022-09-29,0.17428313906771573
2022-09-30,0.11021768374709923
2022-10-10,0.10636595475185531
2022-10-11,-0.1310160427807465
2022-10-12,0.2826396648957275
2022-10-13,-0.2069541600698574
2022-10-14,0.14470756874763868
2022-10-17,-0.4070110867313192
2022-10-18,0.1540363515627815
2022-10-19,-0.34280332456249524
2022-10-20,0.15107782714528245
2022-10-21,-0.16455358913232893
2022-10-24,0.6686313792631883
2022-10-25,-0.021430909007887376
2022-10-26,0.07905352704368962
2022-10-27,-0.01966748795453757
2022-10-28,0.10070960212495342
2022-10-31,-0.6753938666163914
2022-11-01,0.0759861000829479
2022-11-02,0.0241161468617443
2022-11-03,-0.1294654228431385
2022-11-04,0.07510324970856538
2022-11-07,0.20592482457546651
2022-11-08,-0.3040565798039331
2022-11-09,-0.06298333850171065
2022-11-10,0.09532450049498953
2022-11-11,-0.24033735581935392
2022-11-14,0.022411549201357992
2022-11-15,0.3008812347456016
2022-11-16,0.002058884511714952
2022-11-17,-0.010454287572471613
2022-11-18,-0.014186477828356567
2022-11-21,-0.06201743971235893
2022-11-22,-0.2252929640646742
2022-11-23,0.08593882059442476
2022-11-24,0.02921216004176174
2022-11-25,0.18867561617156742
2022-11-28,0.09571212041860136
2022-11-29,0.1995419918608678
2022-11-30,-0.06319211645672912
2022-12-01,-0.015796577546904986
2022-12-02,-0.15366238339880892
2022-12-05,-0.0757488333258785
2022-12-06,-0.24748999809142083
2022-12-07,0.15769979541376425
2022-12-08,-0.1767547926116318
2022-12-09,0.2664885477133692
2022-12-12,-0.04741447348449995
2022-12-13,0.01997856391625631
2022-12-14,-0.2154568220641207
2022-12-15,0.27843763248840575
2022-12-16,-0.3030185537763143
2022-12-19,0.2930284017990852
2022-12-20,0.35217323091576735
2022-12-21,-0.0029165837558567387
2022-12-22,-0.14307038045436477
2022-12-23,0.16785533000438474
2022-12-26,-0.39585990535176196
2022-12-27,-0.45969861131142487
2022-12-28,0.1592645837010827
2022-12-29,-0.0429807953961556
2022-12-30,-0.17590686815786855
2023-01-03,0.32932338696902036
2023-01-04,0.21092055193996795
2023-01-05,0.008445066103275695
2023-01-06,0.037163702690375555
2023-01-09,0.21179356630409615
2023-01-10,-0.338177128461861
2023-01-11,0.05799117696410167
2023-01-12,-0.20839624989629918
2023-01-13,0.20857622328210332
2023-01-16,0.337516778523485
2023-01-17,0.22629477322844022
2023-01-18,0.004283441621199667
2023-01-19,0.20926320388880654
2023-01-20,-0.2532507632103271
2023-01-30,-0.5125138775739306
2023-01-31,0.06923412413320879
2023-02-01,0.002505836582092094
2023-02-02,-0.10171877722300574
2023-02-03,0.16594653703531814
2023-02-06,-0.04916496625864161
2023-02-07,-0.23335048557752464
2023-02-08,-0.1274320587282801
2023-02-09,0.09124532847070496
2023-02-10,-0.2763362599486958
2023-02-13,0.24594113891454647
2023-02-14,0.09558120971528433
2023-02-15,0.10362293907618586
2023-02-16,0.06937200956938108
2023-02-17,0.3820862095639449
2023-02-20,0.0967797524500211
2023-02-21,0.06103939530689841
2023-02-22,-0.030253710817089226
2023-02-23,-0.2512686289120719
2023-02-24,-0.23866153118753075
2023-02-27,-0.4266441417728295
2023-02-28,0.04840427955158323
2023-03-01,0.11539961013645653
2023-03-02,0.0508487996900613
2023-03-03,-0.037039678274619646
2023-03-06,0.30336165708236584
2023-03-07,-0.033297813173304915
2023-03-08,-0.2681883872290362
2023-03-09,0.14153094033312055
2023-03-10,0.11340826259269221
2023-03-13,-0.10078329865163968
2023-03-14,-0.16110236616130716
2023-03-15,0.19828304834224802
2023-03-16,-0.11676999231064426
2023-03-17,0.10316994229115939
2023-03-20,0.03370652801865419
2023-03-21,0.07191031148502322
2023-03-22,-0.06165609891044306
2023-03-23,0.008748787898846842
2023-03-24,-0.39347139843395906
2023-03-27,-0.04196719587826851
2023-03-28,-0.0034523226203607912
2023-03-29,0.06202119784626671
2023-03-30,0.146560093300695
2023-03-31,0.3003571627332965
2023-04-03,-0.003736060177479142
2023-04-04,0.048610161768059976
2023-04-06,-0.1349689052524738
2023-04-07,-0.19833730407524502
2023-04-10,-0.08441604336202094
2023-04-11,0.0803561528931464
2023-04-12,-0.0020234032179461134
2023-04-13,0.16804055437151194
2023-04-14,0.015063886353719705
2023-04-17,0.36741641372431366
2023-04-18,-0.03787698510693136
2023-04-19,0.04965761613878284
2023-04-20,-0.06696644603560738
2023-04-21,0.27031357474514006
2023-04-24,-0.37225409460990466
2023-04-25,0.03215145725605073
2023-04-26,-0.11354800763103229
2023-04-27,0.10991864196358644
2023-04-28,-0.3174018795116584
2023-05-04,-0.033999266765192736
2023-05-05,-0.031209454597838585
2023-05-08,0.18453063134109018
2023-05-09,-0.12844998705979827
2023-05-10,0.1316437575141324
2023-05-11,0.015727777898437115
2023-05-12,0.06746098385283243
2023-05-15,-0.0330717432073241
2023-05-16,-0.07704547378307154
2023-05-17,-0.03831557539876676
2023-05-18,0.11901087979913932
2023-05-19,-0.07183183970378482
2023-05-22,-0.16375902163750383
2023-05-23,0.22962437843283656
2023-05-24,0.05076964623278549
2023-05-25,-0.06745258960448686
2023-05-26,-0.0004874153219173857
2023-05-29,0.026502825945726276
2023-05-30,-0.1478607452833341
2023-05-31,-0.043889289013888305
2023-06-01,0.015254649546027302
2023-06-02,-0.012224834637726294
2023-06-05,-0.010541975315535655
2023-06-06,0.0035327568385339963
2023-06-07,-0.007416145919707124
2023-06-08,0.05613216125446434
2023-06-09,-0.08131760078662507
2023-06-12,0.10613062860414929
2023-06-13,-0.11873556473007026
2023-06-14,-0.041101273632546974
2023-06-15,-0.1700817458828601
2023-06-16,0.1819776200740003
2023-06-19,-0.05468558284898699
2023-06-20,0.08992115558491666
2023-06-21,0.11122569709912151
2023-06-26,0.04819431606540281
2023-06-27,-0.0560783394984571
2023-06-28,-0.04682570890473954
2023-06-29,0.0729380223034492
2023-06-30,-0.06942100348400504
2023-07-03,0.16636497656004984
2023-07-04,-0.1538366173901677
2023-07-05,0.025041781794048742
2023-07-06,-0.001479373852751202
2023-07-07,-0.058457167832164425
2023-07-10,-0.1998845040632344
2023-07-11,0.18084738972467518
2023-07-12,0.017073892416179275
2023-07-13,-0.06542948478431798
2023-07-14,0.028311965811961146
2023-07-17,0.10959432902864297
2023-07-18,-0.04215736473800484
2023-07-19,-0.01999358494600759
2023-07-20,0.07994673505621466
2023-07-21,0.20742381386274464
2023-07-24,-0.07546396200515759
2023-07-25,0.13292327759083203
2023-07-26,0.01287075246861866
2023-07-27,-0.11816841568021158
2023-07-28,0.3314128611581386
2023-07-31,0.26205937915364874
2023-08-01,-0.15816877404526158
2023-08-02,0.12651140989541326
2023-08-03,0.08949608370327433
2023-08-04,-0.6891710131722371
2023-08-07,-0.42127188347769307
2023-08-08,0.028744589755069945
2023-08-09,-0.25152859052022786
2023-08-10,-0.0542201280958509
2023-08-11,0.4236645503860661
2023-08-14,0.28523563059625934
2023-08-15,-0.01639770421946881
2023-08-16,0.1706227493641589
2023-08-17,0.0592003094548691
2023-08-18,-0.37989151491670264
2023-08-21,-0.011184290229858548
2023-08-22,0.04300857881942581
2023-08-23,0.07240065196233045
2023-08-24,-0.045053472346980074
2023-08-25,0.11497140876797989
2023-08-28,0.34551831203686234
2023-08-29,-0.06325071577413666
2023-08-30,-0.1681570338058851
2023-08-31,0.013374934543551261
2023-09-01,-0.018767053942934923
2023-09-04,-0.7382153386281736
2023-09-05,-0.12159099789013153
2023-09-06,0.03659686719424593
2023-09-07,-0.03849390149760887
2023-09-08,0.04090566159531617
2023-09-11,0.30497364292346535
2023-09-12,0.11984112655714427
2023-09-13,0.1792286662128216
2023-09-14,0.01636730892509498
2023-09-15,0.17189651852147614
2023-09-18,0.028367515634518874
2023-09-19,0.07587860790449205
2023-09-20,-0.30371452668336096
2023-09-21,0.08563943629825578
2023-09-22,0.07882483838883636
2023-09-25,-0.0416435000609198
2023-09-26,-0.032132833732756334
2023-09-27,0.22204746362274203
2023-09-28,-0.028440940948885322
2023-10-09,-0.4461665848098998
2023-10-10,0.11955360419312372
2023-10-11,-0.047921871451286596
2023-10-12,-0.07115862200713433
2023-10-13,-0.16409502597036235
2023-10-16,0.24103056105214687
2023-10-17,-0.21457014246142275
2023-10-18,0.014497102580006874
2023-10-19,0.2793565372705005
2023-10-20,0.19469126683029347
2023-10-23,0.02040292403690243
2023-10-24,0.20746340842799318
2023-10-25,0.08072131930016088
2023-10-26,-0.45256568864585245
2023-10-27,0.07832936362299277
2023-10-30,-0.18914285177997694
2023-10-31,-0.16666413417283094
2023-11-01,-0.06868148558624165
2023-11-02,0.1993204363767625
2023-11-03,-0.2955216343063576
2023-11-06,0.11702092537721302
2023-11-07,0.10266072395879064
2023-11-08,-0.013929714262619724
2023-11-09,-0.10856866135761273
2023-11-10,0.11909138650850032
2023-11-13,0.11656554449769418
2023-11-14,0.06294756481126193
2023-11-15,-0.07895756549007907
2023-11-16,0.17826227651483778
2023-11-17,0.029666329625883663
2023-11-20,-0.02243940798158002
2023-11-21,-0.054942810457517414
2023-11-22,0.13176114596635272
2023-11-23,-0.11492883288292995
2023-11-24,-0.02975876131886098
2023-11-27,-0.051808158892179434
2023-11-28,-0.10530490513357373
2023-11-29,0.06094244149271993
2023-11-30,-0.03342186584799306
2023-12-01,0.18446068870568563
2023-12-04,-0.10182893644894875
2023-12-05,0.43644181884413646
2023-12-06,-0.11138873024937486
2023-12-07,0.12161546940144329
2023-12-08,-0.23137611624395332
2023-12-11,0.33496330681809405
2023-12-12,-0.508867443673552
2023-12-13,0.0806572068708003
2023-12-14,-0.03488913267510259
2023-12-15,0.22339829963610786
2023-12-18,-0.37317060689247417
2023-12-19,0.19885328531169927
2023-12-20,-0.14805053876912766
2023-12-21,0.031022309317286056
2023-12-22,-0.20204726001517068
2023-12-25,-0.02192917278843423
2023-12-26,-0.09602260776279453
2023-12-27,0.08217551121787837
2023-12-28,0.0633402936290029
2023-12-29,-0.032216765685634245
2024-01-02,0.26429167754557836
2024-01-03,0.04557795698924555
2024-01-04,0.09640723359171106
2024-01-05,-0.23584783818153063
2024-01-08,0.20589124640822987
2024-01-09,-0.19638275871095784
2024-01-10,0.08704646017699702
2024-01-11,-0.1674975134603159
2024-01-12,-0.0029904587328421217
2024-01-15,-0.10884209468849255
2024-01-16,0.19986620337087682
2024-01-17,0.0736902318382134
2024-01-18,0.30110833493497213
2024-01-19,0.1367273705069619
2024-01-22,0.14947747345923443
2024-01-23,-0.10216020978577484
2024-01-24,-0.1103040782333968
2024-01-25,-0.25239596016827137
2024-01-26,-0.03854335567189029
2024-01-29,-0.3283011541587896
2024-01-30,-0.05171696768486772
2024-01-31,-0.15766250152736733
2024-02-01,-0.13902613337959277
2024-02-02,0.5424414896457163
2024-02-05,0.3585068614662549
2024-02-06,0.2514181888815792
2024-02-07,0.14080359656945263
2024-02-08,0.13678132847618157
2024-02-19,-0.770877636195949
2024-02-20,-0.3851992037659992
2024-02-21,-0.2109362368751287
2024-02-22,-0.056186268065603534
2024-02-23,0.02023146536721519
2024-02-26,0.3243041081972095
2024-02-27,0.2231820915039073
2024-02-28,-0.31044687295265755
2024-02-29,0.0452564211342911
2024-03-01,0.011853116095120792
2024-03-04,-0.2221657485543186
2024-03-05,0.09681041444757793
2024-03-06,0.22782659506189362
2024-03-07,-0.02475544381348698
2024-03-08,-0.02903842110555406
2024-03-11,0.204200372100596
2024-03-12,-0.0621384941916042
2024-03-13,0.12698584020764786
2024-03-14,0.030753155650767902
2024-03-15,0.01901676447789002
2024-03-18,-0.09245517902933317
2024-03-19,-0.182752442610256
2024-03-20,-0.07788547294393182
2024-03-21,-0.10544270596025343
2024-03-22,0.12184490181713069
2024-03-25,0.052602406648616866
2024-03-26,0.06495617876863133
2024-03-27,0.013892603068710012
2024-03-28,0.2704211628114288
2024-03-29,-0.22461388529903184
2024-04-01,-0.008796911587874262
2024-04-02,0.05688071530176683
2024-04-03,-0.033950697795756546
2024-04-08,-0.3108033139393618
2024-04-09,0.08832516964004097
2024-04-10,-0.04436973077608697
2024-04-11,0.07312629399585718
2024-04-12,0.1820246577341258
2024-04-15,0.37896899764403724
2024-04-16,0.09681346711149563
2024-04-17,0.13705929759488852
2024-04-18,0.0020177037229933276
2024-04-19,-0.19224769328117589
2024-04-22,-0.3737028821066726
2024-04-23,-0.17395575707776345
2024-04-24,-0.22685049110438643
2024-04-25,-0.15874616425600052
2024-04-26,0.1353079860869641
2024-04-29,0.2111428473631622
2024-04-30,0.1151702915935277
2024-05-06,0.12422342669311712
2024-05-07,-0.0004965642474649007
2024-05-08,-0.2382685363602608
2024-05-09,-0.2594527997498842
2024-05-10,0.03956949818389291
2024-05-13,0.005041672952003648
2024-05-14,0.13971524354941423
2024-05-15,0.29727401730013653
2024-05-16,0.19390976680039065
2024-05-17,0.05791112914895
2024-05-20,-0.03324087891318391
2024-05-21,-0.08266982981811632
2024-05-22,-0.24693117753430532
2024-05-23,-0.012498436066393958
2024-05-24,-0.19522411041598958
2024-05-27,-0.020603837680157566
2024-05-28,0.06652421652421743
2024-05-29,0.20069451752078832
2024-05-30,0.06696121431028301
2024-05-31,0.012786415711944402
2024-06-03,0.06863803151305765
2024-06-04,0.03306878306877973
2024-06-05,-0.17504990603577797
2024-06-06,-0.0912815314601863
2024-06-07,0.14322487644151655
2024-06-11,0.08689024390244061
2024-06-12,-0.16290417401528295
2024-06-13,0.1378134990319274
2024-06-14,0.017953441867140287
2024-06-17,-0.2528913039881444
2024-06-18,-0.2759252018430134
2024-06-19,0.11124771613476749
2024-06-20,-0.10655534941249659
2024-06-21,-0.050129501920464996
2024-06-24,0.4633916324946591
2024-06-25,0.2736267153147722
2024-06-26,0.050926827098344465
2024-06-27,0.07940650129021681
2024-06-28,0.04864671478186472
2024-07-01,-0.3847924564100207
2024-07-02,-0.17511103353470295
2024-07-03,-0.15733435474295188
2024-07-04,-0.003861444557847992
2024-07-05,0.1840614777730531
2024-07-08,0.0685281278313202
2024-07-09,0.2988738155646423
2024-07-10,0.09111210060448892
2024-07-11,-0.010960783491206473
2024-07-12,-0.3847311731251255
2024-07-15,0.0009233680036594277
2024-07-16,-0.4831566449210747
2024-07-17,0.06023637820513395
2024-07-18,-0.05287176214976834
2024-07-19,0.38852676891863036
2024-07-22,0.12743201757859585
2024-07-23,0.34749156354853467
2024-07-24,-0.007814946037894364
2024-07-25,0.11563540729988611
2024-07-26,-0.2141580891349929
2024-07-29,-0.19907549587771217
2024-07-30,-0.16213265200967836
2024-07-31,0.15663247155443788
2024-08-01,-0.16656952301109035
2024-08-02,0.004333663308743272
2024-08-05,0.29281332341597877
2024-08-06,0.2724004512667248
2024-08-07,-0.36326401072758135
2024-08-08,0.1496262578816114
2024-08-09,0.02835502637696247
2024-08-12,-0.35276343205040694
2024-08-13,-0.469642583158299
2024-08-14,0.09179691256146705
2024-08-15,0.15948223640530834
2024-08-16,-0.03416689104290524
2024-08-19,0.27404267589388653
2024-08-20,0.3084947839046214
2024-08-21,0.09814814814814007
2024-08-22,-0.4667864187094913
2024-08-23,0.08169649031430497
2024-08-26,-0.15819468515308638
2024-08-27,-0.16352822179300527
2024-08-28,0.02431265621449974
2024-08-29,0.26707372588875167
2024-08-30,0.1905076124686366
2024-09-02,0.10217138221489157
2024-09-03,0.1745531264364304
2024-09-04,-0.07217513303502682
2024-09-05,-0.03213851745833376
2024-09-06,-0.3867376497298959
2024-09-09,-0.049365046576368865
2024-09-10,-0.04125016568626182
2024-09-11,-0.047350660845439
2024-09-12,0.0326467505121405
2024-09-13,0.076600764787246
2024-09-18,-0.07785726452051929
2024-09-19,0.21854713509041707
2024-09-20,0.10263891921067128
2024-09-23,0.02235676178897661
2024-09-24,0.7044357550116266
2024-09-25,0.19322177912637806
2024-09-26,0.1419368589994632
2024-09-27,0.5058395453544866
2024-09-30,0.3584226696511297
2024-10-08,-0.3824581143978619
2024-10-09,0.0020112600986730844
2024-10-10,-0.3786001447827734
2024-10-11,-0.6590485631850198
2024-10-14,-0.5877120507598166
2024-10-15,-0.5430053620471696
2024-10-16,-0.3532749887590819
2024-10-17,-0.1410979153690138
2024-10-18,0.3053724036908499
2024-10-21,0.1290325803618454
2024-10-22,0.19737457799314734
2024-10-23,0.20104258928648752
2024-10-24,0.031511968171667445
2024-10-25,-0.6022369583871182
2024-10-28,0.006049708269056771
2024-10-29,0.17716672278503737
2024-10-30,0.04672080125463955
2024-10-31,0.1517649009435274
2024-11-01,0.43915523661789607
2024-11-04,0.10946132551151724
2024-11-05,-0.005438020508614083
2024-11-06,-0.0033481444046892204
2024-11-07,0.26665663806631995
2024-11-08,0.08593456602478639
2024-11-11,-0.05526729773187172
2024-11-12,-0.04569495924116737
2024-11-13,-0.05070078198252759
2024-11-14,-0.49946496635152704
2024-11-15,-0.25194173526478386
2024-11-18,0.043982138680847056
2024-11-19,-0.1582401527185765
2024-11-20,-0.037947733918125705
2024-11-21,0.08305584145627552
2024-11-22,0.3384833827101525
2024-11-25,-0.06830948506757502
2024-11-26,0.09025133531415955
2024-11-27,0.12572006389117527
2024-11-28,0.1618959282393278
2024-11-29,-0.35627976350050444
2024-12-02,-0.06944044312294875
2024-12-03,0.0036136592204249335
2024-12-04,-0.14540324503629315
2024-12-05,-0.13650500968257956
2024-12-06,0.16796863052162034
2024-12-09,0.0955217183925258
2024-12-10,0.42854588500191115
2024-12-11,0.086045598636867
2024-12-12,0.15946883299484693
2024-12-13,0.019156796282900516
2024-12-16,-0.08431898255564448
2024-12-17,-0.6431007243071244
2024-12-18,-0.030058836554586632
2024-12-19,-0.11140824493426021
2024-12-20,-0.2227526220386685
2024-12-23,0.2577528550669326
2024-12-24,0.24276247262120493
2024-12-25,0.0606261262959248
2024-12-26,-0.05971642373158911
2024-12-27,0.188443807348692
2024-12-30,-0.2736220916504569
2024-12-31,0.06438620723930277
