date,FCT_Cr_Atr_Dfive
2013-11-08,
2013-11-11,
2013-11-12,
2013-11-13,
2013-11-14,
2013-11-15,
2013-11-18,
2013-11-19,
2013-11-20,
2013-11-21,
2013-11-22,0.1911172353484104
2013-11-25,0.8280203349282356
2013-11-26,0.11131085592691686
2013-11-27,0.0817351598173483
2013-11-28,0.01102694061438423
2013-11-29,0.12932478577411233
2013-12-02,-1.1171062691131513
2013-12-03,0.06133256142621032
2013-12-04,-0.1737641453245961
2013-12-05,-0.17971923770684833
2013-12-06,0.2458294717330901
2013-12-09,0.27603484054171695
2013-12-10,-0.10047846889952024
2013-12-11,0.10869565217390977
2013-12-12,0.09268292682926915
2013-12-13,-0.25066972828166423
2013-12-16,0.17111584481508912
2013-12-17,-0.10280373831775537
2013-12-18,0.01041666666666916
2013-12-19,0.5504400301734942
2013-12-20,-0.09457761696568705
2013-12-23,-0.0748875721371956
2013-12-24,0.0990443398215129
2013-12-25,0.04618710691823952
2013-12-26,-0.7880706921943994
2013-12-27,0.09043965293965864
2013-12-30,-0.016332952480846555
2013-12-31,0.14237325988238006
2014-01-02,-0.08269073010664582
2014-01-03,0.24374999999999958
2014-01-06,0.277432126696829
2014-01-07,0.17821130693034137
2014-01-08,-0.20015232292459847
2014-01-09,0.14084105488239498
2014-01-10,-0.05719537815126273
2014-01-13,-0.3799759436393808
2014-01-14,-0.3145895463820456
2014-01-15,0.08263550795196514
2014-01-16,-0.11888632976561417
2014-01-17,0.07888699048084391
2014-01-20,0.09366046778142056
2014-01-21,0.13704902867715432
2014-01-22,0.06009953478307582
2014-01-23,-0.1381602587136182
2014-01-24,0.02856760426028101
2014-01-27,0.09514403292181359
2014-01-28,0.025175821240984678
2014-01-29,-0.16316379431133496
2014-01-30,0.11104249011857867
2014-02-07,0.1705069124423955
2014-02-10,0.029380831212892602
2014-02-11,-0.031410012581561016
2014-02-12,0.032497248450443446
2014-02-13,0.0349674721189556
2014-02-14,-0.06292882744495801
2014-02-17,-0.19192667803058594
2014-02-18,-0.007496101021279301
2014-02-19,0.07511099030533736
2014-02-20,0.15342538502389824
2014-02-21,-0.4006172839506158
2014-02-24,0.1750124212759675
2014-02-25,0.3191439126690919
2014-02-26,0.09898805447766873
2014-02-27,-0.2336600075386327
2014-02-28,0.2476014109347459
2014-03-03,-0.06892510791968993
2014-03-04,-0.45302076534168473
2014-03-05,-0.23611556660518096
2014-03-06,0.07651715039577885
2014-03-07,0.5066702878870167
2014-03-10,0.06530230108690824
2014-03-11,0.15897146892271924
2014-03-12,0.12560413354530883
2014-03-13,0.259860788863104
2014-03-14,-0.6546366125384271
2014-03-17,0.1494580276195352
2014-03-18,0.026139465953937437
2014-03-19,-0.028253305548826303
2014-03-20,-0.4502637867353775
2014-03-21,0.1783943906270299
2014-03-24,-0.5232118634285703
2014-03-25,-0.20595042055399637
2014-03-26,0.18921983357417682
2014-03-27,0.15888437323043794
2014-03-28,-0.14315841255212128
2014-03-31,0.2521827954562649
2014-04-01,0.27553882929334517
2014-04-02,-0.28762436801021884
2014-04-03,0.1909389144969065
2014-04-04,0.008801775147926391
2014-04-08,0.15965998008252313
2014-04-09,-0.11553529213103184
2014-04-10,0.07395498392283348
2014-04-11,-0.3065774804905234
2014-04-14,0.28504901960784856
2014-04-15,-0.21283385934335472
2014-04-16,-0.013420990286665721
2014-04-17,0.1420334848652763
2014-04-18,0.16451830174656146
2014-04-21,-0.04626915612661825
2014-04-22,0.12489105097800801
2014-04-23,0.04095619823730013
2014-04-24,-0.05374067352288273
2014-04-25,-0.020146626431443892
2014-04-28,-0.1793524891795521
2014-04-29,0.020085813891123974
2014-04-30,-0.003505350493020424
2014-05-05,-0.1645535407145318
2014-05-06,-0.028860054299919707
2014-05-07,-0.05150253770036788
2014-05-08,0.10468746635660675
2014-05-09,-0.06228685877194187
2014-05-12,0.22222848871092368
2014-05-13,0.09225163022631244
2014-05-14,0.056003734827263826
2014-05-15,-0.2180574735319245
2014-05-16,0.14157030074412663
2014-05-19,-0.009459701670886458
2014-05-20,0.11506961506961666
2014-05-21,0.39569786535303736
2014-05-22,0.06012667958060623
2014-05-23,-0.08197930814762293
2014-05-26,-0.20237490345920672
2014-05-27,-0.27319001601984627
2014-05-28,-0.5759399961036435
2014-05-29,-0.012779882233809499
2014-05-30,0.13784329465566583
2014-06-03,0.08971004005250402
2014-06-04,0.07257668448382082
2014-06-05,0.14441458233993865
2014-06-06,0.19232304008840545
2014-06-09,-0.34743581103847465
2014-06-10,-0.009210081066366359
2014-06-11,0.12923213438795644
2014-06-12,0.12051008809320911
2014-06-13,-0.26947444096634793
2014-06-16,0.23976290794829472
2014-06-17,0.1819980728198777
2014-06-18,-0.2159570095449756
2014-06-19,-0.06963066418373894
2014-06-20,0.12210788947604777
2014-06-23,-0.024641664200244308
2014-06-24,-0.3088839658383104
2014-06-25,0.1313993731226298
2014-06-26,-0.005190124346729309
2014-06-27,0.11064126934865036
2014-06-30,-0.09725035936146958
2014-07-01,0.21879915387535978
2014-07-02,0.8014752791068581
2014-07-03,0.06366808008158442
2014-07-04,-0.19093741828641458
2014-07-07,0.17807741783387782
2014-07-08,-0.019065265994918312
2014-07-09,-1.215197083618134
2014-07-10,0.00729966185389885
2014-07-11,0.45910339660339433
2014-07-14,-0.1637198867581871
2014-07-15,-0.13376674776211372
2014-07-16,0.36777528498665846
2014-07-17,-0.03846924464035118
2014-07-18,-0.6740384615384596
2014-07-21,0.1405676027965399
2014-07-22,0.232323931818408
2014-07-23,0.0706022007838427
2014-07-24,0.06661386468798114
2014-07-25,0.15052742616033565
2014-07-28,0.01972718460047264
2014-07-29,-0.29535595286709604
2014-07-30,-0.028112118822055374
2014-07-31,-0.16228112800177397
2014-08-01,0.1508243687468963
2014-08-04,-0.20999134846174494
2014-08-05,0.2036922067767035
2014-08-06,0.04621959545756614
2014-08-07,0.2195255022615464
2014-08-08,-0.06236287523964471
2014-08-11,0.10118370409116023
2014-08-12,-0.02947354754584162
2014-08-13,0.13693019943020274
2014-08-14,-0.1770294816263816
2014-08-15,0.14207168639301943
2014-08-18,0.10856558022358533
2014-08-19,0.046905967848488495
2014-08-20,-0.3904633378317598
2014-08-21,0.00396073605586484
2014-08-22,-0.12136672850958466
2014-08-25,-0.18458844961790827
2014-08-26,-0.14179318589360285
2014-08-27,0.24624786232794155
2014-08-28,0.07577052395628522
2014-08-29,-0.03027792313506666
2014-09-01,0.03356275616735324
2014-09-02,-0.010793650793652243
2014-09-03,-0.09314575840913998
2014-09-04,-0.02393306659997845
2014-09-05,0.1031380024185749
2014-09-09,0.11412326124479386
2014-09-10,0.17613927291346704
2014-09-11,0.08793103448275824
2014-09-12,0.2024637812114073
2014-09-15,-0.1346567605728496
2014-09-16,-0.011383794023936931
2014-09-17,-0.15988098966489156
2014-09-18,-0.07072538860103693
2014-09-19,-0.36290071584189215
2014-09-22,0.3081154619661671
2014-09-23,-0.01733103380950764
2014-09-24,0.13077596904883654
2014-09-25,-0.028570386046850995
2014-09-26,0.2924162257495611
2014-09-29,-0.3426100324072795
2014-09-30,-0.11437689161295111
2014-10-08,-0.032534037797199614
2014-10-09,0.059739638877653316
2014-10-10,-0.19299454493253193
2014-10-13,0.17237085484241674
2014-10-14,0.10429495073891235
2014-10-15,-0.12744282744282287
2014-10-16,0.060177604696789
2014-10-17,0.09098470747854223
2014-10-20,-0.06591486883779278
2014-10-21,-0.05438468992247843
2014-10-22,0.04660876757650779
2014-10-23,-0.15512851118007548
2014-10-24,-0.16484676273594773
2014-10-27,-0.052001468968051474
2014-10-28,0.050123326286115356
2014-10-29,0.1955116588135778
2014-10-30,0.10079368720466009
2014-10-31,0.23141025641026047
2014-11-03,0.43837452869711574
2014-11-04,0.0013752171395501594
2014-11-05,-0.20012719949119762
2014-11-06,0.03227847646166567
2014-11-07,-0.13715924426450943
2014-11-10,-0.6323329931401604
2014-11-11,0.013731734732111147
2014-11-12,0.0761024310248476
2014-11-13,-0.13515730018375535
2014-11-14,0.04726863029132622
2014-11-17,0.2602476630493171
2014-11-18,-0.059703216634090055
2014-11-19,-0.09141296561604548
2014-11-20,0.1267259580351658
2014-11-21,-0.019135274393544892
2014-11-24,-0.15947313884903294
2014-11-25,0.05630955147571756
2014-11-26,0.13705357142857205
2014-11-27,-0.1138179897905313
2014-11-28,0.00850141284225393
2014-12-01,0.43520585367421133
2014-12-02,0.028527940839339152
2014-12-03,0.5064996064762973
2014-12-04,0.16626374648969636
2014-12-05,0.03828129689873165
2014-12-08,-0.34319809573970744
2014-12-09,0.030362349198491664
2014-12-10,-0.7799483799250703
2014-12-11,-0.14321244735578437
2014-12-12,0.10485001623257738
2014-12-15,0.054405145126262766
2014-12-16,-0.1939514960224166
2014-12-17,0.12901135246268003
2014-12-18,0.014833388719372377
2014-12-19,-0.21228822882288292
2014-12-22,-0.07651506009873925
2014-12-23,0.16446241701844683
2014-12-24,-0.040564557644696575
2014-12-25,0.10142452267303141
2014-12-26,-0.04936703347753907
2014-12-29,0.18445580006117857
2014-12-30,-0.07679424353327513
2014-12-31,0.41886935735798264
2015-01-05,-0.09665125298329441
2015-01-06,0.15811941117836412
2015-01-07,-0.1517595425349631
2015-01-08,-0.06089692315896433
2015-01-09,-0.6039260871420661
2015-01-12,-0.011942497016701512
2015-01-13,0.0373680506685446
2015-01-14,0.1278853686531011
2015-01-15,0.07814589477226792
2015-01-16,0.3377760444596073
2015-01-19,0.17995505136985612
2015-01-20,-0.13866486353577834
2015-01-21,0.06871464216013472
2015-01-22,0.08030657442890607
2015-01-23,-0.08114065812947258
2015-01-26,-0.0986301369862969
2015-01-27,0.13524016911975367
2015-01-28,-0.3567881059950677
2015-01-29,-0.01073943661971944
2015-01-30,0.05081828006793054
2015-02-02,-0.13748152881505127
2015-02-03,-0.06919930664070886
2015-02-04,0.22090780506622032
2015-02-05,-0.12019230769230821
2015-02-06,-0.0020208083233291003
2015-02-09,0.13628752659365306
2015-02-10,-0.1433435586055697
2015-02-11,-0.03207098245265902
2015-02-12,0.003217599521103502
2015-02-13,0.054925673973295105
2015-02-16,-0.19220092185208995
2015-02-17,0.20162567611989404
2015-02-25,0.46256223033521526
2015-02-26,0.057486756363973074
2015-02-27,0.05238571905238475
2015-03-02,0.20625169769531626
2015-03-03,-0.0473535638673229
2015-03-04,-0.5936054873326724
2015-03-05,-0.03295216795324732
2015-03-06,-0.03695362028695312
2015-03-09,-0.05980892654407231
2015-03-10,-0.04815473543797287
2015-03-11,0.00856096140286322
2015-03-12,0.12116818993591841
2015-03-13,-0.2893791433448492
2015-03-16,-0.011812174726626658
2015-03-17,0.04879576107899628
2015-03-18,0.12916957084536257
2015-03-19,-0.02428246348087712
2015-03-20,0.10633629657651328
2015-03-23,-0.023451485857495347
2015-03-24,0.04671253822629928
2015-03-25,0.6297879985627052
2015-03-26,-0.07501012282359365
2015-03-27,0.1411127052446964
2015-03-30,0.07003765959400508
2015-03-31,-0.011678524620855862
2015-04-01,-0.8912299351546737
2015-04-02,0.28810718617833514
2015-04-03,0.02729112896946124
2015-04-07,0.0313137192669319
2015-04-08,-0.10455828907484155
2015-04-09,0.18689721033031337
2015-04-10,-0.4215521040115663
2015-04-13,-0.1394445581960606
2015-04-14,-0.06344411069051763
2015-04-15,0.05819693016001892
2015-04-16,0.23408856762367874
2015-04-17,0.15459843919786215
2015-04-20,0.15444245676803936
2015-04-21,-0.027620760534424617
2015-04-22,0.00547540155420909
2015-04-23,-0.23130556298872862
2015-04-24,-0.21038630253289578
2015-04-27,-0.15159345391903492
2015-04-28,0.18993677785044566
2015-04-29,-0.03392793045866431
2015-04-30,0.2172752989584671
2015-05-04,0.14572136606520442
2015-05-05,0.1767931073066985
2015-05-06,-0.2960896637608968
2015-05-07,0.09832552177222184
2015-05-08,-0.17490792789300463
2015-05-11,0.16061019914486518
2015-05-12,-0.22631453885060113
2015-05-13,0.08844397611521132
2015-05-14,0.17636426235152147
2015-05-15,-0.08320895522387628
2015-05-18,-0.22704669027302316
2015-05-19,0.22922930843487338
2015-05-20,0.09905275191898792
2015-05-21,-0.4864043374681656
2015-05-22,0.28965863453814905
2015-05-25,0.397322767187838
2015-05-26,-0.14336965187349918
2015-05-27,0.07827971953112643
2015-05-28,0.21082278576721367
2015-05-29,-0.26491570394689234
2015-06-01,-0.3878817733990171
2015-06-02,-0.052007740686988706
2015-06-03,-0.16478281453426333
2015-06-04,0.10926138538078375
2015-06-05,0.04243394015703969
2015-06-08,0.06886023723569024
2015-06-09,0.1348563716984775
2015-06-10,-0.08356976390718474
2015-06-11,-0.1752837326607789
2015-06-12,0.4578231292517013
2015-06-15,0.06893197055651645
2015-06-16,-0.10189511633974596
2015-06-17,0.20591419840716196
2015-06-18,0.1323112730216578
2015-06-19,-0.6268656716417883
2015-06-23,-0.1334678834678823
2015-06-24,0.1429892309365806
2015-06-25,0.05130859478685157
2015-06-26,0.06744798411464802
2015-06-29,0.2554371002132136
2015-06-30,0.25239525239525573
2015-07-01,0.11002966258806297
2015-07-02,-0.28548243267343937
2015-07-03,-0.16753616753616574
2015-07-06,0.090408741400245
2015-07-07,-0.26966713548992544
2015-07-08,-0.17606364847696085
2015-07-09,0.4980194248714508
2015-07-10,0.22337027054008252
2015-07-13,-0.13709611200065547
2015-07-14,0.1860946330982332
2015-07-15,-0.17095280667668833
2015-07-16,-0.5290902801798674
2015-07-17,-0.34177135776910167
2015-07-20,0.1220914771971812
2015-07-21,-0.08673631057640384
2015-07-22,0.2131028421895017
2015-07-23,0.2136326530612273
2015-07-24,0.1793706947102524
2015-07-27,-0.0728067039993664
2015-07-28,0.3118332089005471
2015-07-29,-0.06622919617563867
2015-07-30,-0.03788235294117955
2015-07-31,0.0012231854807897057
2015-08-03,0.0005143371480018956
2015-08-04,-0.5667009043511084
2015-08-05,0.16534074080104694
2015-08-06,0.006651421433669611
2015-08-07,0.13300362841092886
2015-08-10,-0.20608654880622676
2015-08-11,0.32926716624065355
2015-08-12,-0.3056425286261048
2015-08-13,-0.07811713479083604
2015-08-14,-0.22187322649287017
2015-08-17,0.13479942009335197
2015-08-18,-0.1312766066574327
2015-08-19,0.28226773931759397
2015-08-20,0.11013495154424582
2015-08-21,0.007100085543197632
2015-08-24,0.24099284928493428
2015-08-25,0.18886439028266117
2015-08-26,-0.01566386815919875
2015-08-27,-0.10239245369137819
2015-08-28,0.3101531884574237
2015-08-31,-0.27470864448970567
2015-09-01,-0.19773867750746427
2015-09-02,-0.34890185742972296
2015-09-07,0.11010401081307591
2015-09-08,-0.48491794465930305
2015-09-09,0.15833999851579117
2015-09-10,0.16253895358373097
2015-09-11,0.20567269076305233
2015-09-14,-0.05468283953072299
2015-09-15,0.41875242321113126
2015-09-16,-0.18750471496466475
2015-09-17,-0.13345039508340634
2015-09-18,0.017156862745100244
2015-09-21,-0.05961634084425804
2015-09-22,-0.26584310241050374
2015-09-23,0.01766304347825924
2015-09-24,-0.00946915351506715
2015-09-25,0.040325685247922224
2015-09-28,0.2758209400275838
2015-09-29,0.15378820851049568
2015-09-30,0.11694994262765168
2015-10-08,0.20447945335484902
2015-10-09,-0.029799899591195896
2015-10-12,-0.1748093176664616
2015-10-13,-0.18198007679893075
2015-10-14,-0.058948437427868386
2015-10-15,-0.1873678727902253
2015-10-16,-0.0898368669357106
2015-10-19,-0.05436020562071129
2015-10-20,0.08459879870629673
2015-10-21,0.11505521748929168
2015-10-22,-0.043413492232386344
2015-10-23,0.17253979067318548
2015-10-26,-0.16463150065083706
2015-10-27,0.316699513861522
2015-10-28,-0.13287815126050473
2015-10-29,0.07123010861328685
2015-10-30,-0.20438477469113286
2015-11-02,0.3647537948907775
2015-11-03,-0.1411127600302075
2015-11-04,0.06103629976581115
2015-11-05,0.0677193246909839
2015-11-06,0.20363562468825447
2015-11-09,-0.1446041786467296
2015-11-10,-0.2899412045129476
2015-11-11,0.0373255656415086
2015-11-12,0.08505692599620443
2015-11-13,-0.12352531102531206
2015-11-16,-0.04275728353487622
2015-11-17,0.3115026428391645
2015-11-18,-0.08238142864662598
2015-11-19,-0.2212150433944067
2015-11-20,0.2729893702366645
2015-11-23,0.2038928623864789
2015-11-24,-0.2611814798912279
2015-11-25,0.20594773894171953
2015-11-26,0.21180327868852578
2015-11-27,-0.3406905941730903
2015-11-30,-0.06965272035894411
2015-12-01,0.19772088427477108
2015-12-02,-0.2798786036583266
2015-12-03,-0.20619173731636084
2015-12-04,0.09698866354995275
2015-12-07,-0.4367915435292814
2015-12-08,-0.06252480584339852
2015-12-09,0.08690701058896587
2015-12-10,0.09814392855142064
2015-12-11,-0.057557343375555174
2015-12-14,0.3295449327271873
2015-12-15,-0.11958506224066398
2015-12-16,0.00186138971718032
2015-12-17,-0.05400826600141582
2015-12-18,0.10689456500864207
2015-12-21,0.13225477106730565
2015-12-22,0.1118299601998485
2015-12-23,0.01785714285714124
2015-12-24,0.03804001050932769
2015-12-25,-0.007612116443745147
2015-12-28,-0.1604240154187403
2015-12-29,-0.07943857384851158
2015-12-30,0.029866047020230612
2015-12-31,-0.04516426361182549
2016-01-04,0.14474416017797553
2016-01-05,-0.03188105313982406
2016-01-06,0.09784501688549471
2016-01-07,-0.02646336084682875
2016-01-08,0.08977073377291181
2016-01-11,-0.26614086573734436
2016-01-12,0.01643750353646788
2016-01-13,0.14134865900383284
2016-01-14,-0.08593323775327488
2016-01-15,-0.029479294792946913
2016-01-18,0.20232250019483952
2016-01-19,-0.011615198881685992
2016-01-20,-0.336383561643836
2016-01-21,0.3162032115481441
2016-01-22,0.1213392200147169
2016-01-25,-0.23125120493541407
2016-01-26,0.06902559108369653
2016-01-27,0.17724529797824098
2016-01-28,-0.2726255529534226
2016-01-29,-0.26073980481004044
2016-02-01,0.14799735187024163
2016-02-02,-0.048300450483003174
2016-02-03,-0.04271248260306263
2016-02-04,-0.08431013431013293
2016-02-05,0.11518903700299027
2016-02-15,0.03683419602604693
2016-02-16,-0.007027809615732291
2016-02-17,0.14899968243886855
2016-02-18,0.03558057911669958
2016-02-19,-0.020094584065667102
2016-02-22,-0.259637661893729
2016-02-23,0.118872709781799
2016-02-24,-0.1288576740342881
2016-02-25,0.09835607246701111
2016-02-26,0.038025938621284464
2016-02-29,0.23211043248596955
2016-03-01,-0.08994708994708897
2016-03-02,-0.11471522526956276
2016-03-03,0.1273993808049538
2016-03-04,0.0366437365034846
2016-03-07,0.0673502382573172
2016-03-08,0.15139442231075723
2016-03-09,0.287053720919107
2016-03-10,-0.1331766917293251
2016-03-11,-0.006076424289384305
2016-03-14,-0.13341149181857143
2016-03-15,-0.2621815943224192
2016-03-16,-0.20197402008055004
2016-03-17,-0.10790468064358782
2016-03-18,0.017632072941807138
2016-03-21,0.062360368115765286
2016-03-22,0.1384688329113164
2016-03-23,0.046078269029088945
2016-03-24,0.20599952058625504
2016-03-25,-0.1417612692791263
2016-03-28,-0.13055360016212178
2016-03-29,-0.08022595502982109
2016-03-30,-0.13518903344718688
2016-03-31,-0.07233996863892425
2016-04-01,0.07782187533973293
2016-04-05,0.4843676077795555
2016-04-06,0.03935168199296396
2016-04-07,0.14182401067040068
2016-04-08,-0.13758581740249645
2016-04-11,0.11385026737967727
2016-04-12,-0.692049019607841
2016-04-13,0.2755500265858701
2016-04-14,0.05590812447651339
2016-04-15,0.1226206845293359
2016-04-18,-0.05045498862528317
2016-04-19,0.2907926509186342
2016-04-20,-0.10627275836401087
2016-04-21,0.026832731383200373
2016-04-22,0.21618983210326828
2016-04-25,-0.028837539196655017
2016-04-26,0.11183441178763423
2016-04-27,-0.23829691318480667
2016-04-28,-0.15799909063126547
2016-04-29,-0.42167203085130994
2016-05-03,-0.055631591079352546
2016-05-04,-0.1546211889911453
2016-05-05,-0.024516281182912936
2016-05-06,0.12162951055459179
2016-05-09,0.32056781045751603
2016-05-10,0.04710173292746463
2016-05-11,-0.011041334708032799
2016-05-12,0.07951765392932242
2016-05-13,-0.10169830169830385
2016-05-16,-0.2783562330041497
2016-05-17,-0.19977788140585256
2016-05-18,0.3265104900289132
2016-05-19,-0.022375892505762763
2016-05-20,0.00717543326239254
2016-05-23,0.1916003594835694
2016-05-24,0.35657886168272845
2016-05-25,-0.41884259219818976
2016-05-26,0.15941336645487938
2016-05-27,0.21707427536231683
2016-05-30,-0.06346655025069
2016-05-31,-0.16297122491233826
2016-06-01,0.2382914360372784
2016-06-02,-0.16299632374670592
2016-06-03,-0.3356393988480896
2016-06-06,0.2424593185291717
2016-06-07,-0.1025036394163929
2016-06-08,-0.2516883988689783
2016-06-13,0.5435278608730926
2016-06-14,0.15149930334593356
2016-06-15,-0.16778155706726874
2016-06-16,0.09355509355509598
2016-06-17,0.2251235003528593
2016-06-20,-0.7531680440771327
2016-06-21,0.10498744228840508
2016-06-22,-0.3092592592592594
2016-06-23,0.07588075880758448
2016-06-24,-0.05013563262933632
2016-06-27,0.4003099173553698
2016-06-28,-0.14929285960676086
2016-06-29,0.3859447004608275
2016-06-30,-0.09007954176904631
2016-07-01,0.09532398337324251
2016-07-04,-0.1598880597014935
2016-07-05,0.2503523194362884
2016-07-06,0.013025188604148474
2016-07-07,0.1673022312373227
2016-07-08,-0.10288065843621479
2016-07-11,0.021191887452690725
2016-07-12,-0.25330026968962777
2016-07-13,-0.3001033903244227
2016-07-14,-0.317791875575567
2016-07-15,-0.06039076376554038
2016-07-18,-0.057404961966698156
2016-07-19,0.03102950725055921
2016-07-20,0.07137890003245238
2016-07-21,0.1757995384108173
2016-07-22,0.18786329123806755
2016-07-25,0.03910795682758672
2016-07-26,-0.15687800905410942
2016-07-27,0.16168231207036798
2016-07-28,-0.06679039841623664
2016-07-29,-0.21237818784988627
2016-08-01,-0.01211478366592188
2016-08-02,0.1707686917345589
2016-08-03,-0.20837595902567047
2016-08-04,0.04255962214872336
2016-08-05,-0.05724948744526333
2016-08-08,0.08738485348411307
2016-08-09,0.030596700815800078
2016-08-10,0.126448248182296
2016-08-11,0.02414907692110719
2016-08-12,0.06215514782262409
2016-08-15,-0.1190179991496428
2016-08-16,-0.1065838707109305
2016-08-17,0.13302752293577874
2016-08-18,0.12257382710169037
2016-08-19,0.16214285714285487
2016-08-22,0.06324110671936607
2016-08-23,0.32769352884655545
2016-08-24,-0.20710159700985203
2016-08-25,-0.15931752458068393
2016-08-26,-0.14665898617511575
2016-08-29,-0.003134796238246155
2016-08-30,-0.5273989663117284
2016-08-31,0.2574801876111924
2016-09-01,-0.11819715340010604
2016-09-02,0.16365406006674588
2016-09-05,0.030585776630405462
2016-09-06,0.31040856498151936
2016-09-07,-0.25377648390749064
2016-09-08,0.24749709648491264
2016-09-09,-0.12801879746047976
2016-09-12,-0.07577811793863024
2016-09-13,-0.0578781011450399
2016-09-14,0.07438643462740184
2016-09-19,-0.14358565737052165
2016-09-20,-0.033619133574004506
2016-09-21,0.23499380421313804
2016-09-22,0.09101416198501992
2016-09-23,-0.035706205102101894
2016-09-26,-0.03636363636363328
2016-09-27,0.2672244094488154
2016-09-28,-0.3500653594771258
2016-09-29,-0.024607911985017432
2016-09-30,-0.02846023509477829
2016-10-10,0.22836363636363394
2016-10-11,-0.4061132983377053
2016-10-12,0.3199204319408976
2016-10-13,-0.06913768796992738
2016-10-14,0.12991781780031383
2016-10-17,-0.20272463768115787
2016-10-18,0.7090224766751467
2016-10-19,-0.15905338470005936
2016-10-20,0.18997366512728614
2016-10-21,-0.010686479059587563
2016-10-24,0.07758414181339082
2016-10-25,-0.541838819174588
2016-10-26,0.015031645569619688
2016-10-27,-0.2216268722190895
2016-10-28,0.026445352988595745
2016-10-31,-0.008677685950415855
2016-11-01,-0.05706460988151293
2016-11-02,0.031168122270743136
2016-11-03,-0.005217211632831141
2016-11-04,-0.18418102430965128
2016-11-07,0.21067390321122131
2016-11-08,0.06292976029818254
2016-11-09,-0.08325145560407438
2016-11-10,0.4096787954147318
2016-11-11,0.1358114128820541
2016-11-14,-0.23041335379179131
2016-11-15,0.06110139142407567
2016-11-16,0.060731369587107696
2016-11-17,-0.5232065615012362
2016-11-18,-0.053402191726496614
2016-11-21,-0.11587356026179793
2016-11-22,-0.08681536450646843
2016-11-23,-0.054115069220808595
2016-11-24,0.26456428187197306
2016-11-25,0.014149051305921163
2016-11-28,0.06911186492946077
2016-11-29,0.1291092416920222
2016-11-30,0.2723159205742169
2016-12-01,-0.17151035576395846
2016-12-02,0.0771926272882051
2016-12-05,0.0662612511317541
2016-12-06,-0.14747272728857558
2016-12-07,-0.5253233866964389
2016-12-08,0.36037863034651896
2016-12-09,-0.20535671227158875
2016-12-12,-0.11241196948361229
2016-12-13,0.07750659817478037
2016-12-14,0.3796453851652064
2016-12-15,-0.5322184429327275
2016-12-16,0.15838552104208445
2016-12-19,0.13398372389449947
2016-12-20,0.18496942100798686
2016-12-21,-0.1501819425870093
2016-12-22,0.21238425925925897
2016-12-23,0.018323087431693464
2016-12-26,0.02837143968192156
2016-12-27,-0.4003274281874176
2016-12-28,0.18654201626338052
2016-12-29,0.07701198630137007
2016-12-30,-0.12091617253807749
2017-01-03,-0.19719546232105734
2017-01-04,0.3851864404044313
2017-01-05,-0.24519949907816624
2017-01-06,0.10637095020656467
2017-01-09,0.0018423867823609968
2017-01-10,0.13533444121312815
2017-01-11,-0.11204324025216801
2017-01-12,0.18559107453711304
2017-01-13,-0.1391395154553033
2017-01-16,0.13595023658259742
2017-01-17,0.2197823552273601
2017-01-18,-0.2612548182986268
2017-01-19,-0.12597809076682676
2017-01-20,-0.10164649591894252
2017-01-23,-0.036458866616782035
2017-01-24,-0.46999249812453037
2017-01-25,0.252226720647775
2017-01-26,-0.002838605028384629
2017-02-03,0.24381295858724095
2017-02-06,-0.11189968524723562
2017-02-07,0.15868418777556825
2017-02-08,-0.1107567229518478
2017-02-09,0.036842436446011664
2017-02-10,-0.447904927773794
2017-02-13,0.7665626760258224
2017-02-14,0.1650473132815154
2017-02-15,0.1446298673513059
2017-02-16,0.021551724137930137
2017-02-17,0.4890152053431851
2017-02-20,-1.0039330340050778
2017-02-21,-0.13196480938416752
2017-02-22,-0.09622993654348465
2017-02-23,0.07725321888411966
2017-02-24,-0.14877265133016113
2017-02-27,0.3648754140557405
2017-02-28,0.18204898446834233
2017-03-01,-0.06034182071852324
2017-03-02,-0.1617602611376406
2017-03-03,-0.2087955868832363
2017-03-06,-0.07985422004113682
2017-03-07,-0.23157137720245008
2017-03-08,0.24723083739477433
2017-03-09,0.08450704225352094
2017-03-10,0.13563867325334825
2017-03-13,0.07087600053660409
2017-03-14,0.023238043869117486
2017-03-15,-0.30400651908189685
2017-03-16,0.2471264367816103
2017-03-17,0.009026339153598802
2017-03-20,0.19984051036682288
2017-03-21,0.15978478478478442
2017-03-22,0.13277099784637486
2017-03-23,-0.37833211054047555
2017-03-24,0.15062541145490504
2017-03-27,-0.43041362530413485
2017-03-28,0.19164619164619012
2017-03-29,-0.046428571428574754
2017-03-30,0.27990455851722673
2017-03-31,-0.09894987121062057
2017-04-05,0.31136600625651784
2017-04-06,-0.53768453768454
2017-04-07,0.08967331118494395
2017-04-10,-0.07120810985060914
2017-04-11,-0.0570887086048676
2017-04-12,-0.2495170310116951
2017-04-13,0.4511403348783821
2017-04-14,-0.09876517280675767
2017-04-17,-0.14758866755085476
2017-04-18,0.0629417025962856
2017-04-19,0.407849149185326
2017-04-20,-0.15754870868763532
2017-04-21,0.056942886400033775
2017-04-24,0.031881332133548504
2017-04-25,-0.01423294212575393
2017-04-26,-0.438556697088167
2017-04-27,-0.10193279055285101
2017-04-28,0.07900531097642549
2017-05-02,-0.018926296633301955
2017-05-03,0.027529965519126873
2017-05-04,0.15267626515932406
2017-05-05,-0.023475764229014887
2017-05-08,0.26361985472154564
2017-05-09,0.07476400251730361
2017-05-10,-0.1273120818575344
2017-05-11,0.06551913153600691
2017-05-12,0.14643559309691956
2017-05-15,-0.6006528417818717
2017-05-16,0.05401209244790445
2017-05-17,0.08874458874458631
2017-05-18,-0.10840626468683268
2017-05-19,-0.01849992646071415
2017-05-22,0.29341840954744247
2017-05-23,-0.2216332378223517
2017-05-24,-0.027863777089781654
2017-05-25,-0.02665281515037715
2017-05-26,0.1598107491344019
2017-05-31,-0.058533303431264526
2017-06-01,0.5967455621301738
2017-06-02,0.1055733885417271
2017-06-05,0.13972854397563345
2017-06-06,-0.2573995112706957
2017-06-07,-0.048884278986319425
2017-06-08,-0.6931521329720616
2017-06-09,-0.15400388938109894
2017-06-12,-0.021527766116437745
2017-06-13,-0.08456986194867494
2017-06-14,0.026548786783686468
2017-06-15,0.29867137920425346
2017-06-16,0.13589692693577524
2017-06-19,-0.03539823008849788
2017-06-20,0.23537215099715164
2017-06-21,0.14930468251358764
2017-06-22,-0.08076221768878972
2017-06-23,0.06039735099338091
2017-06-26,0.1547619047619075
2017-06-27,-0.06375644329897077
2017-06-28,-0.13057374901755203
2017-06-29,-0.020885306722959667
2017-06-30,-0.18060606060606268
2017-07-03,-0.3229646697388647
2017-07-04,0.2813205014707145
2017-07-05,0.020309477756283823
2017-07-06,0.2914209326098938
2017-07-07,0.06915306915307064
2017-07-10,0.2495586971803499
2017-07-11,-0.5057008136576391
2017-07-12,0.09432903333891868
2017-07-13,-0.4682500657526118
2017-07-14,0.0378567037499747
2017-07-17,-0.09244240670450013
2017-07-18,0.23963619494777777
2017-07-19,-0.22849132494801794
2017-07-20,0.30102481677314874
2017-07-21,-0.21809744779582307
2017-07-24,-0.08695274118516441
2017-07-25,0.047976492215131825
2017-07-26,0.324011709398529
2017-07-27,-0.08683219835027757
2017-07-28,0.3687740274696427
2017-07-31,0.20576279292204652
2017-08-01,-0.14807111516325405
2017-08-02,-0.31550648912860185
2017-08-03,-0.05988180140751488
2017-08-04,-0.09188969501605825
2017-08-07,-0.11006551253463345
2017-08-08,0.09519565095007378
2017-08-09,0.3265632194101481
2017-08-10,0.13132378260119418
2017-08-11,-0.15326752003166805
2017-08-14,-0.07509914214221637
2017-08-15,-0.00542802220836212
2017-08-16,-0.40410142330380544
2017-08-17,0.0029380513572876757
2017-08-18,-0.11754152556039399
2017-08-21,0.19804409251645355
2017-08-22,-0.11747569637654943
2017-08-23,0.5245244057818168
2017-08-24,-0.07915184655785688
2017-08-25,0.2206469116354186
2017-08-28,-0.18894833881638362
2017-08-29,0.11895527814810339
2017-08-30,-0.400524459296385
2017-08-31,-0.04023543180229127
2017-09-01,-0.10470448891602785
2017-09-04,0.029708960104643183
2017-09-05,0.050987157370135025
2017-09-06,-0.13784461152882316
2017-09-07,0.2441773145672364
2017-09-08,0.06379367297675048
2017-09-11,0.05487766294030857
2017-09-12,-0.13965802001360128
2017-09-13,0.39739403252656985
2017-09-14,-0.32089569395590356
2017-09-15,-0.030744725443622726
2017-09-18,-0.008994922492350732
2017-09-19,-0.005502447357182312
2017-09-20,-0.4138442196911401
2017-09-21,0.7558184345623984
2017-09-22,0.03724563508582654
2017-09-25,0.00891523935002218
2017-09-26,0.11287192909688246
2017-09-27,0.2979023918206981
2017-09-28,-0.8163694787735737
2017-09-29,-0.08256545935589243
2017-10-09,0.0640270630836673
2017-10-10,-0.02825839721496625
2017-10-11,-0.008600009791283648
2017-10-12,-0.004487061282192062
2017-10-13,0.08473171278144562
2017-10-16,-0.2262282832056801
2017-10-17,-0.017467248908295305
2017-10-18,-0.18257759532251197
2017-10-19,0.31467700119554526
2017-10-20,-0.03168688727791635
2017-10-23,0.10711744827177615
2017-10-24,-0.018691588785045836
2017-10-25,0.08971704623878751
2017-10-26,-0.1718150923666786
2017-10-27,0.1587278611234595
2017-10-30,0.1086191253855879
2017-10-31,-0.060628524529403253
2017-11-01,0.15492063492063327
2017-11-02,0.033943030653557464
2017-11-03,-0.3352190423990924
2017-11-06,-0.10417972831765496
2017-11-07,0.14360582760016521
2017-11-08,-0.2206711409395944
2017-11-09,0.04436608167951328
2017-11-10,0.2912326744853629
2017-11-13,-0.03812450210538545
2017-11-14,-0.13190137264870622
2017-11-15,0.21135816384035722
2017-11-16,0.008539775350057791
2017-11-17,-0.03583941605839609
2017-11-20,0.1722957342463226
2017-11-21,0.07894710312219747
2017-11-22,-0.06306797528171398
2017-11-23,-0.07905617729754004
2017-11-24,-0.18235955056179481
2017-11-27,-0.1503213849126556
2017-11-28,-0.02133144475920912
2017-11-29,-0.09812409812409631
2017-11-30,0.2963552926006
2017-12-01,0.21568817845563945
2017-12-04,0.07506298925852095
2017-12-05,0.47872613394031027
2017-12-06,0.03434643458903393
2017-12-07,-0.2599184392151964
2017-12-08,-0.16619699724551296
2017-12-11,-0.022333641807415434
2017-12-12,-0.8097303180407269
2017-12-13,0.12409512385252083
2017-12-14,-0.14876696386147772
2017-12-15,0.2096260485325559
2017-12-18,-0.05864405510632005
2017-12-19,0.4356414080751818
2017-12-20,-0.25202872695667805
2017-12-21,0.3052395975032107
2017-12-22,-0.3055812085926504
2017-12-25,0.12298118548118858
2017-12-26,-0.20283394528623847
2017-12-27,0.09997457196134965
2017-12-28,-0.24478114478114626
2017-12-29,0.2357466063348393
2018-01-02,-0.21325896325896315
2018-01-03,0.21517346549751942
2018-01-04,0.08613445378150776
2018-01-05,-0.029032258064514885
2018-01-08,0.11752136752136949
2018-01-09,0.06930601698043111
2018-01-10,-0.19941371897595786
2018-01-11,-0.16238717709305459
2018-01-12,0.33955857385398974
2018-01-15,-0.4509661835748797
2018-01-16,0.29974160206718814
2018-01-17,0.05894415182340498
2018-01-18,0.22928126145947464
2018-01-19,-0.3265977443609065
2018-01-22,0.44339042599912626
2018-01-23,-0.32860520094562856
2018-01-24,0.13825472772841604
2018-01-25,-0.07873847729600116
2018-01-26,0.09096682606097367
2018-01-29,-0.1697013048944438
2018-01-30,0.07262770446180133
2018-01-31,-0.13096277812435309
2018-02-01,-0.09743698778413422
2018-02-02,0.08760460251045711
2018-02-05,0.03260637368186052
2018-02-06,0.08547941219263816
2018-02-07,0.022102512706707125
2018-02-08,0.07137980032847666
2018-02-09,-0.001024590163932436
2018-02-12,-0.09996680584915751
2018-02-13,-0.03952901597981531
2018-02-14,0.10048390282441419
2018-02-22,0.047166824944606174
2018-02-23,0.08486605357856707
2018-02-26,-0.03187381910786326
2018-02-27,0.007672427717656402
2018-02-28,-0.22300891879205323
2018-03-01,-0.06243446763893272
2018-03-02,-0.30423620025673836
2018-03-05,0.2070668693009123
2018-03-06,0.11505308525175642
2018-03-07,0.22802197802197963
2018-03-08,-0.020593615389151332
2018-03-09,0.1677308024158755
2018-03-12,-0.09902597402597225
2018-03-13,-0.3026421539079754
2018-03-14,-0.18504879151267012
2018-03-15,-0.009747744187580412
2018-03-16,-0.13970619544390206
2018-03-19,0.3471603023841785
2018-03-20,0.30902586681343003
2018-03-21,0.09317399963787767
2018-03-22,0.12325478222292195
2018-03-23,0.46707943219571346
2018-03-26,-0.49922128487994455
2018-03-27,-0.11642872593553917
2018-03-28,0.046301433194635706
2018-03-29,0.12053784428539986
2018-03-30,-0.3697140824403049
2018-04-02,0.1636363636363629
2018-04-03,-0.07058990760483334
2018-04-04,-0.08376935449489145
2018-04-09,-0.30702164318251246
2018-04-10,-0.1818307628575354
2018-04-11,-0.24945307072990205
2018-04-12,-0.014350180951833422
2018-04-13,0.059243537885415434
2018-04-16,-0.0545709988690483
2018-04-17,0.34374730767813966
2018-04-18,0.38204255250416647
2018-04-19,0.08083598001923514
2018-04-20,-0.10397384471362053
2018-04-23,0.2815508447683838
2018-04-24,-0.11823858034833969
2018-04-25,-0.33864717618170725
2018-04-26,0.009128818872796877
2018-04-27,0.12106151537884698
2018-05-02,-0.06687243790691885
2018-05-03,-0.10155219310389796
2018-05-04,0.16209803088256536
2018-05-07,0.02171257099989367
2018-05-08,-0.11280427468830667
2018-05-09,-0.12751576292559705
2018-05-10,0.10451328436473048
2018-05-11,0.05867506477262005
2018-05-14,-0.14101687673574173
2018-05-15,0.35532626882320484
2018-05-16,0.0017086123297128247
2018-05-17,-0.05352821501231278
2018-05-18,0.2190285670319577
2018-05-21,0.12910620676055531
2018-05-22,-0.22646995009763915
2018-05-23,0.10181266974041875
2018-05-24,0.03939393939393863
2018-05-25,-0.41477163626389135
2018-05-28,0.04405411192704372
2018-05-29,-0.28223773565923105
2018-05-30,-0.02839612255310091
2018-05-31,0.03283582089552284
2018-06-01,0.09723548630309417
2018-06-04,-0.22011998154130075
2018-06-05,0.3090266650232154
2018-06-06,-0.1251805071528984
2018-06-07,0.036761248701546304
2018-06-08,0.2037770211418136
2018-06-11,0.11861215707369707
2018-06-12,-0.22074614246459517
2018-06-13,0.4059235193983043
2018-06-14,-0.158545856659063
2018-06-15,-0.3054632406581791
2018-06-19,0.24344592373438076
2018-06-20,0.25699682583023054
2018-06-21,-0.4018274764827615
2018-06-22,0.08609978421299057
2018-06-25,0.16221470836855065
2018-06-26,-0.4313282472613429
2018-06-27,-0.18776244148433574
2018-06-28,-0.04040011377642749
2018-06-29,0.1956741149566255
2018-07-02,0.312781954887219
2018-07-03,0.2282966923353162
2018-07-04,0.05197343863578273
2018-07-05,0.16407715821650642
2018-07-06,-0.298380667663177
2018-07-09,-0.5724092840797633
2018-07-10,-0.09673696359248753
2018-07-11,0.16831024930747862
2018-07-12,-0.020912262676858005
2018-07-13,0.11333765672286855
2018-07-16,0.19900956857478688
2018-07-17,0.25221172589593166
2018-07-18,-0.37649484536082656
2018-07-19,0.2565537406735259
2018-07-20,0.031087156783216854
2018-07-23,0.12796469939326927
2018-07-24,-0.20643953861431147
2018-07-25,0.21002235345144052
2018-07-26,-0.2900880050288578
2018-07-27,0.05017183793988097
2018-07-30,-0.15710435117443167
2018-07-31,-0.049929405724553455
2018-08-01,0.1282437096215622
2018-08-02,-0.030087433567636226
2018-08-03,0.07167318982387455
2018-08-06,0.11239477503628516
2018-08-07,0.0914990760264191
2018-08-08,0.1718646992713661
2018-08-09,0.13936077636965688
2018-08-10,-0.2675774096841551
2018-08-13,0.038616072120384856
2018-08-14,0.11956429669108624
2018-08-15,-0.5192996337977024
2018-08-16,0.06244373490853905
2018-08-17,0.048338950941878324
2018-08-20,-0.09445806796238167
2018-08-21,-0.2540442014126215
2018-08-22,0.2225289205759169
2018-08-23,-0.27694519317160693
2018-08-24,0.11428625481237795
2018-08-27,-0.10079939094023746
2018-08-28,0.2972121212121215
2018-08-29,0.023542959503548684
2018-08-30,0.17408805031446703
2018-08-31,-0.15706927132687076
2018-09-03,0.1269910371318827
2018-09-04,-0.39621660649819335
2018-09-05,-0.12226001511715827
2018-09-06,-0.23134020618557102
2018-09-07,0.12745098039215735
2018-09-10,-0.02638100752749924
2018-09-11,0.4280088142904061
2018-09-12,0.13948626045400006
2018-09-13,0.30978580204049294
2018-09-14,0.1059316808484393
2018-09-17,0.07744161358810366
2018-09-18,-0.3022803967685921
2018-09-19,0.05366993922394261
2018-09-20,0.07685320892595442
2018-09-21,-0.2710585225455722
2018-09-25,-0.0504593175853001
2018-09-26,0.11792568897638157
2018-09-27,-0.1371058745436459
2018-09-28,-0.41129880478087727
2018-10-08,0.3536427367113323
2018-10-09,0.017988053217488316
2018-10-10,0.22025997899159344
2018-10-11,0.28904476996080003
2018-10-12,0.2658913043478241
2018-10-15,-0.19619002887178721
2018-10-16,-0.025862068965518917
2018-10-17,-0.2721948883180201
2018-10-18,-0.4352432432432461
2018-10-19,0.09552123690630057
2018-10-22,-0.06832302942610348
2018-10-23,-0.06481481481481481
2018-10-24,-0.06061150156466358
2018-10-25,0.19200000000000206
2018-10-26,0.10284832831109428
2018-10-29,0.055753077448766064
2018-10-30,0.19384707287933178
2018-10-31,0.13326475504693094
2018-11-01,0.057213930348259674
2018-11-02,-0.38826086956522143
2018-11-05,0.11454847425696076
2018-11-06,-0.2440322580645173
2018-11-07,-0.03285640912759182
2018-11-08,-0.060007226437647214
2018-11-09,0.12358543417367185
2018-11-12,-0.18730864438798947
2018-11-13,0.13057632398754007
2018-11-14,0.17274964472634957
2018-11-15,-0.017932092511647804
2018-11-16,0.07080610021786571
2018-11-19,0.02338220424671504
2018-11-20,0.09939693804454475
2018-11-21,-0.11690279678097748
2018-11-22,0.016231006578563953
2018-11-23,-0.04793555245022726
2018-11-26,0.19450800915331778
2018-11-27,-0.2004603395668761
2018-11-28,-0.2801897612344936
2018-11-29,0.034881122353963435
2018-11-30,0.19048771779059687
2018-12-03,-0.26492496468466303
2018-12-04,0.0906284657095996
2018-12-05,0.19002557544757243
2018-12-06,-0.051329148708455785
2018-12-07,-0.3079597425126538
2018-12-10,0.04186221802450153
2018-12-11,0.12258187289130812
2018-12-12,-0.05242931683945924
2018-12-13,-0.0582034638467397
2018-12-14,0.15431680134824607
2018-12-17,0.05983787642518924
2018-12-18,-0.23883437217722825
2018-12-19,0.08933610854164653
2018-12-20,0.14307281286297457
2018-12-21,-0.19926642380354753
2018-12-24,0.1996951219512176
2018-12-25,0.06725146198830546
2018-12-26,0.04574413863404869
2018-12-27,-0.07691395362628393
2018-12-28,0.12772005120096286
2019-01-02,-0.17367511520737153
2019-01-03,0.04840510366826108
2019-01-04,-0.08678234878990543
2019-01-07,0.2036846874056153
2019-01-08,0.11855811403508472
2019-01-09,-0.17805846143496293
2019-01-10,-0.013279078999605
2019-01-11,0.018338748579743464
2019-01-14,-0.164031007751936
2019-01-15,-0.11793154761904492
2019-01-16,0.17786994027869993
2019-01-17,-0.013687900209526462
2019-01-18,0.02715919654043327
2019-01-21,-0.1032432432432451
2019-01-22,0.3842044134727081
2019-01-23,-0.03918380889183784
2019-01-24,0.08609193664869552
2019-01-25,-0.06764439850109594
2019-01-28,-0.053053053053050775
2019-01-29,-0.46850025947068186
2019-01-30,0.045155288392729226
2019-01-31,-0.11655502736963369
2019-02-01,0.04421963251590983
2019-02-11,0.6143235071806499
2019-02-12,-0.019287855523873326
2019-02-13,0.028975152814159952
2019-02-14,0.08763365013364993
2019-02-15,0.09462838093794737
2019-02-18,-0.7929130556332118
2019-02-19,0.2502126501309954
2019-02-20,-0.11615056351897997
2019-02-21,0.05703840486449361
2019-02-22,-0.19574692907145594
2019-02-25,0.3428726434287232
2019-02-26,0.01103794589984805
2019-02-27,0.05894687791239284
2019-02-28,-0.1743961352657062
2019-03-01,0.1393700457157206
2019-03-04,0.14424561722227808
2019-03-05,-0.2540167184852779
2019-03-06,0.20407523510972164
2019-03-07,0.09401553975864518
2019-03-08,-0.029415956953994047
2019-03-11,-0.283767996426487
2019-03-12,0.14396887159532887
2019-03-13,-0.2372955496386494
2019-03-14,-0.0376077174689147
2019-03-15,-0.017212313294444604
2019-03-18,0.19123255022131022
2019-03-19,0.06694560669455804
2019-03-20,-0.09933546640413826
2019-03-21,-0.05599090745947023
2019-03-22,0.13783102425094
2019-03-25,-0.29432823813354436
2019-03-26,0.13975830391996932
2019-03-27,0.10413943355120142
2019-03-28,0.12065331928345585
2019-03-29,-0.14752625760088633
2019-04-01,0.43545275342868295
2019-04-02,-0.43836414227475773
2019-04-03,0.12246417271543067
2019-04-04,-0.03383190883190648
2019-04-08,-0.021882634035735326
2019-04-09,-0.31580606081972373
2019-04-10,0.27534156105153057
2019-04-11,0.07942370644487848
2019-04-12,0.037751982799770135
2019-04-15,0.07628078218388581
2019-04-16,0.0007758216188652745
2019-04-17,-0.09165180909609769
2019-04-18,-0.25012215995273257
2019-04-19,-0.025432459887031123
2019-04-22,0.06875000000000017
2019-04-23,0.08754208754208438
2019-04-24,0.07827351000782856
2019-04-25,0.01909484724122637
2019-04-26,0.018483918323771307
2019-04-29,-0.3281368821292773
2019-04-30,0.28078817733990435
2019-05-06,0.08508158508158606
2019-05-07,0.09031440162271774
2019-05-08,-0.11960815504122567
2019-05-09,0.3274015880116261
2019-05-10,-0.4747681104502681
2019-05-13,-0.19837216725183648
2019-05-14,0.02111093774379646
2019-05-15,0.14045214045213789
2019-05-16,0.031882835101258195
2019-05-17,0.38600891861761
2019-05-20,0.1589753938125078
2019-05-21,-0.06784773883477813
2019-05-22,0.013087105572658568
2019-05-23,-0.2554718653079308
2019-05-24,-0.14881910896403236
2019-05-27,-0.14403517922339504
2019-05-28,0.05117029862792655
2019-05-29,0.27322843074287856
2019-05-30,0.18409443926685157
2019-05-31,-0.11913178543692195
2019-06-03,0.09152151568186237
2019-06-04,0.05170380078637176
2019-06-05,-0.6462019344184933
2019-06-06,-0.07806279786935698
2019-06-10,0.206356691502406
2019-06-11,0.01773461280503663
2019-06-12,-0.19109317131030845
2019-06-13,0.3540544456834692
2019-06-14,-0.009955904643792295
2019-06-17,-0.3746208291203236
2019-06-18,-0.06813186813187047
2019-06-19,0.12662821863235016
2019-06-20,-0.04655405327391016
2019-06-21,0.2491788201287604
2019-06-24,0.5076781100036919
2019-06-25,-0.03840355624275181
2019-06-26,-0.06957371754005842
2019-06-27,0.12110894941634247
2019-06-28,-0.2865867982147043
2019-07-01,-0.29051909051909086
2019-07-02,0.13754885538805284
2019-07-03,0.087442197336902
2019-07-04,-0.2453007518796984
2019-07-05,0.04001554001553779
2019-07-08,-0.07238817765133707
2019-07-09,0.07063492063491925
2019-07-10,-0.03367875647668732
2019-07-11,0.19984620642515188
2019-07-12,0.12827260458839723
2019-07-15,0.1495345364206095
2019-07-16,-0.2314935064935068
2019-07-17,1.532522017343939e-15
2019-07-18,0.07257424620267833
2019-07-19,-0.0679995443153372
2019-07-22,-0.11288083801839699
2019-07-23,0.07077922077922111
2019-07-24,0.07727272727272867
2019-07-25,-0.34199311846965186
2019-07-26,0.06953463203463489
2019-07-29,0.10521433646483096
2019-07-30,0.06763089851325269
2019-07-31,-0.13546238244514291
2019-08-01,0.2539466442661444
2019-08-02,-0.2654569892473118
2019-08-05,0.17036768263183383
2019-08-06,0.02999911220630517
2019-08-07,0.12623304867127103
2019-08-08,0.10716729593323011
2019-08-09,0.15605796659139734
2019-08-12,-0.3411570001951111
2019-08-13,-0.17474493490152027
2019-08-14,-0.15240553341655172
2019-08-15,-0.3532629943879655
2019-08-16,-0.09366874291185333
2019-08-19,0.23199502395996258
2019-08-20,0.0038118460446295716
2019-08-21,0.22721928277483938
2019-08-22,0.0463841740377714
2019-08-23,0.40659340659340953
2019-08-26,-0.2048350071735987
2019-08-27,0.20372566602065537
2019-08-28,-0.07226890756302766
2019-08-29,0.1686053308393727
2019-08-30,-0.47577741407528873
2019-09-02,0.134424552429665
2019-09-03,-0.01850603908558597
2019-09-04,-0.16108597285067772
2019-09-05,-0.023016784210813913
2019-09-06,0.32572057436327506
2019-09-09,-0.08005659247973008
2019-09-10,-0.22129154879773616
2019-09-11,-0.027149321266968687
2019-09-12,0.07120917153363827
2019-09-16,-0.13886871194812267
2019-09-17,0.1389137737961923
2019-09-18,0.11518395008605913
2019-09-19,0.14447632711620967
2019-09-20,-0.13816654618059504
2019-09-23,-0.1774569323545936
2019-09-24,-0.26276394579262174
2019-09-25,0.10230090035231171
2019-09-26,0.002972056210634018
2019-09-27,0.06986886222514282
2019-09-30,0.1936108112430554
2019-10-08,0.3455053084016013
2019-10-09,-0.12158430027052378
2019-10-10,0.061842880348438795
2019-10-11,-0.020269143741811133
2019-10-14,-0.08715944089078285
2019-10-15,-0.24308809558314823
2019-10-16,0.02569778987239698
2019-10-17,-0.19079434649481236
2019-10-18,-0.04290705800139768
2019-10-21,0.23766926954630296
2019-10-22,0.08220795026320356
2019-10-23,0.15990377526868668
2019-10-24,0.09676350679819248
2019-10-25,0.2249556137341633
2019-10-28,-0.22412700125436114
2019-10-29,-0.06481393807404712
2019-10-30,-0.23909140102321522
2019-10-31,0.04628907386925576
2019-11-01,-0.07183741000760309
2019-11-04,0.04293382581379979
2019-11-05,0.08038332260602174
2019-11-06,0.12580503512880614
2019-11-07,-0.07933550989053137
2019-11-08,-0.3007629219912259
2019-11-11,0.0822767067753482
2019-11-12,-0.07169043172363473
2019-11-13,-0.13633812978476517
2019-11-14,0.09759523302830718
2019-11-15,0.20559277145972804
2019-11-18,-0.11681702521397438
2019-11-19,0.09684206674473342
2019-11-20,0.1620211898940525
2019-11-21,-0.02743993993994248
2019-11-22,-0.0031593148556091763
2019-11-25,-0.15455220354997393
2019-11-26,-0.05741974043715967
2019-11-27,0.01004566210046072
2019-11-28,-0.07797921967769311
2019-11-29,-0.060325336760434965
2019-12-02,0.31161579723328825
2019-12-03,0.013054028548373378
2019-12-04,-0.23711683047973559
2019-12-05,-0.02087577083227663
2019-12-06,0.05600505003443122
2019-12-09,0.21606184087995317
2019-12-10,0.029578461265344268
2019-12-11,0.17239490938647034
2019-12-12,0.019109071605283884
2019-12-13,0.04947380535863164
2019-12-16,-0.6785198037874216
2019-12-17,-0.19292516040858598
2019-12-18,0.14347177720008722
2019-12-19,0.07047824213700732
2019-12-20,0.11703887510338823
2019-12-23,0.37521107733873715
2019-12-24,0.3021477180495684
2019-12-25,-0.28523317724036085
2019-12-26,-0.04007442849547816
2019-12-27,-0.22304648862512128
2019-12-30,-0.03636902372350031
2019-12-31,-0.2995930264532759
2020-01-02,0.2958226528830162
2020-01-03,0.12537937671181887
2020-01-06,0.08771885329748502
2020-01-07,0.03829181000034904
2020-01-08,0.16903785869302682
2020-01-09,-0.13219749384993712
2020-01-10,-0.13846730223511516
2020-01-13,-0.1090592385929149
2020-01-14,-0.13694208206592906
2020-01-15,0.037332981860718734
2020-01-16,0.0073223039215669986
2020-01-17,-0.017489931548763247
2020-01-20,0.23748352086335467
2020-01-21,0.10570969961018348
2020-01-22,0.08046301524562552
2020-01-23,-0.14339869281045575
2020-02-03,-0.058762655926609966
2020-02-04,0.1883029847330719
2020-02-05,0.09225493476078818
2020-02-06,-0.20327813450490229
2020-02-07,0.12811863656485176
2020-02-10,0.29230991060271083
2020-02-11,-0.6372819846170508
2020-02-12,-0.0978613152440156
2020-02-13,0.02572456679115126
2020-02-14,-0.08317565061948053
2020-02-17,-0.1427798943099413
2020-02-18,0.2383682286473913
2020-02-19,0.041320666197511895
2020-02-20,0.0972874923257235
2020-02-21,0.1473485203415167
2020-02-24,-0.12184080669384345
2020-02-25,0.08295754937023804
2020-02-26,-0.17702947845804795
2020-02-27,0.09224003493231872
2020-02-28,-0.1078866560023051
2020-03-02,0.26901495061301156
2020-03-03,0.07055150521505632
2020-03-04,0.2276628352490403
2020-03-05,-0.28041306760604146
2020-03-06,0.0123825893289439
2020-03-09,-0.22735214304300588
2020-03-10,-0.19322763469402598
2020-03-11,-0.08825296895120802
2020-03-12,0.2740507803400877
2020-03-13,0.08111045828437023
2020-03-16,-0.07259430119632965
2020-03-17,0.068051966441292
2020-03-18,0.09534807782671278
2020-03-19,-0.16632313472893123
2020-03-20,-0.0970660500072253
2020-03-23,0.17459794418357752
2020-03-24,0.02763352521947357
2020-03-25,-0.2717283270711596
2020-03-26,0.016184560780833634
2020-03-27,-0.01976188904293558
2020-03-30,-0.1532321739878208
2020-03-31,-0.08727907833806105
2020-04-01,0.14762113600145854
2020-04-02,-0.13543986785314396
2020-04-03,0.03810348288668122
2020-04-07,0.22956779672140026
2020-04-08,0.17574251211368053
2020-04-09,0.13781977125919867
2020-04-10,0.12172129508486808
2020-04-13,0.15069190995813894
2020-04-14,-0.25590894406256676
2020-04-15,0.03411687753166856
2020-04-16,-0.14578974620414925
2020-04-17,0.05886129262626845
2020-04-20,-0.20537124865096856
2020-04-21,0.09439149594759079
2020-04-22,-0.21623095235493994
2020-04-23,0.04829788267009175
2020-04-24,-0.008840926413342526
2020-04-27,-0.09595609134568107
2020-04-28,0.03519949658820168
2020-04-29,0.00540160277065832
2020-04-30,-0.04920088300220812
2020-05-06,-0.05011655011655007
2020-05-07,0.11154937906564126
2020-05-08,-0.06140120511810036
2020-05-11,0.14447927760361123
2020-05-12,0.011992292870903552
2020-05-13,-0.04861021331609298
2020-05-14,0.10542597070118138
2020-05-15,0.041012079318530285
2020-05-18,-0.13000640966944235
2020-05-19,0.04298206610345577
2020-05-20,0.07996323529411588
2020-05-21,-0.1035388172590834
2020-05-22,-0.0002496159754258923
2020-05-25,0.1430903733758391
2020-05-26,-0.08286994130367727
2020-05-27,0.01937899361022176
2020-05-28,0.1980535691133439
2020-05-29,-0.018272138210593904
2020-06-01,-0.15107730620064141
2020-06-02,0.06773072971169536
2020-06-03,-0.13044573174227833
2020-06-04,-0.2851268460019295
2020-06-05,0.061011622473757965
2020-06-08,0.21407054982750692
2020-06-09,-0.12104165980739898
2020-06-10,0.2664316225251188
2020-06-11,0.0652862154530679
2020-06-12,0.018687380389510795
2020-06-15,-0.16080694249155364
2020-06-16,0.13866935885059561
2020-06-17,-0.27100882454040404
2020-06-18,0.26687081645131583
2020-06-19,-0.15973647117222015
2020-06-22,-0.03431226578555148
2020-06-23,-0.04445604370448569
2020-06-24,0.058551097823691334
2020-06-29,-0.38784261294493544
2020-06-30,0.07753541297116036
2020-07-01,-0.046132828919709955
2020-07-02,-0.1086734693877545
2020-07-03,0.026811918978701006
2020-07-06,0.04065778149931551
2020-07-07,0.044746887966805926
2020-07-08,0.02252432360389217
2020-07-09,0.47898230088495575
2020-07-10,0.04378174033841023
2020-07-13,0.2669493934260362
2020-07-14,0.15254856657864846
2020-07-15,0.16120396070788406
2020-07-16,-0.48626929640065536
2020-07-17,0.021051831585355018
2020-07-20,-0.018164995413284618
2020-07-21,-0.23369813910921428
2020-07-22,-0.1108555286521351
2020-07-23,0.12245898568769237
2020-07-24,-0.03400209026616108
2020-07-27,0.026242489113780104
2020-07-28,0.07558706634250262
2020-07-29,0.030952380952378823
2020-07-30,0.09316134316133814
2020-07-31,-0.0474009034803084
2020-08-03,-0.2699732146453486
2020-08-04,-0.10069507061484775
2020-08-05,-0.002597402597403549
2020-08-06,-0.026041666666664895
2020-08-07,0.27639160132528817
2020-08-10,0.07964100642049601
2020-08-11,0.20154444411036784
2020-08-12,0.09144428350477465
2020-08-13,-0.1597222222222226
2020-08-14,-0.35690465074177213
2020-08-17,0.05300920833100825
2020-08-18,-0.24919549394910775
2020-08-19,-0.15282053763947934
2020-08-20,0.2524139175580241
2020-08-21,0.0412680891464082
2020-08-24,-0.08837838859824243
2020-08-25,0.12176572727883365
2020-08-26,0.10720132243815991
2020-08-27,-0.3157292183560604
2020-08-28,0.0535414974907117
2020-08-31,0.14048088293259406
2020-09-01,-0.033911431969682965
2020-09-02,0.03812826649733808
2020-09-03,0.24411576230970444
2020-09-04,0.09294624980748173
2020-09-07,-0.04202284450994588
2020-09-08,0.24260474066299204
2020-09-09,-0.12198798637946132
2020-09-10,-0.1724875530149359
2020-09-11,-0.1009362730292959
2020-09-14,0.02941776430819661
2020-09-15,-0.2853801988517016
2020-09-16,-0.1525497640057465
2020-09-17,0.14693454846727388
2020-09-18,-0.015653911306084668
2020-09-21,0.20374394431117682
2020-09-22,0.2561267792254829
2020-09-23,0.2111042704505991
2020-09-24,-0.04792229156899007
2020-09-25,0.09674244674422643
2020-09-28,-0.42194160890313726
2020-09-29,-0.3758360854632851
2020-09-30,0.01158574445253258
2020-10-09,0.0556149443006669
2020-10-12,-0.08595574030534686
2020-10-13,0.22695882484017735
2020-10-14,0.15406086450862616
2020-10-15,0.0809018979159098
2020-10-16,-0.1457368268674006
2020-10-19,0.10435901740249588
2020-10-20,-0.11421436346415477
2020-10-21,0.0582507287454022
2020-10-22,-0.25033078049821766
2020-10-23,0.2704346682299481
2020-10-26,-0.021707841115512105
2020-10-27,-0.0189134101971178
2020-10-28,0.28761544599885364
2020-10-29,0.21818155542621082
2020-10-30,-0.25778804066396355
2020-11-02,-0.12704992285964195
2020-11-03,0.3401050830446287
2020-11-04,-0.4773900299483894
2020-11-05,-0.17106829415918373
2020-11-06,0.057235376619089215
2020-11-09,0.07004517221908432
2020-11-10,-0.38182461234899134
2020-11-11,0.16410716223393837
2020-11-12,0.16070865916186933
2020-11-13,0.012455095131795706
2020-11-16,-0.041784302653867435
2020-11-17,0.06701341231429107
2020-11-18,0.0015401931165187274
2020-11-19,-0.024567901234569894
2020-11-20,0.006085061589314461
2020-11-23,0.16363888119634473
2020-11-24,0.029836229331505905
2020-11-25,0.01664048408681424
2020-11-26,-0.12964285714285598
2020-11-27,0.006577098791775108
2020-11-30,0.0530511608793922
2020-12-01,0.07593520069212717
2020-12-02,0.04286097607171914
2020-12-03,0.15792077700645513
2020-12-04,-0.10285074592056657
2020-12-07,-0.25925297113752177
2020-12-08,-0.08978658231784796
2020-12-09,0.16464593643264946
2020-12-10,0.497147354849622
2020-12-11,0.15712182845240447
2020-12-14,0.21216888659576533
2020-12-15,0.0660435549585327
2020-12-16,-0.2597212492816521
2020-12-17,-0.9106389499268954
2020-12-18,0.024701519242065678
2020-12-21,0.02173296544985455
2020-12-22,0.02058619617968359
2020-12-23,0.04677833448318937
2020-12-24,0.33510068086339306
2020-12-25,-0.09727701195278218
2020-12-28,-0.16842490667013119
2020-12-29,0.03961976903939756
2020-12-30,0.014982308712956489
2020-12-31,0.019851556441786048
2021-01-04,0.08433887482109703
2021-01-05,-0.2136186639898659
2021-01-06,-0.012667649743698203
2021-01-07,0.09007532772451687
2021-01-08,0.1038772571175348
2021-01-11,-0.04545743795584911
2021-01-12,0.33713481992435346
2021-01-13,-0.051887584451581474
2021-01-14,-0.155087210019896
2021-01-15,-0.03373335564533399
2021-01-18,-0.07982818032372244
2021-01-19,-0.1175439304375892
2021-01-20,-0.16773665006163133
2021-01-21,0.16125217207455594
2021-01-22,-0.16592256381433024
2021-01-25,-0.060356898907103315
2021-01-26,-0.022752844420900687
2021-01-27,0.17744372302577005
2021-01-28,-0.14621546356269396
2021-01-29,-0.021829722234582863
2021-02-01,0.38296381887774034
2021-02-02,0.06853186513474782
2021-02-03,0.11388981439742865
2021-02-04,-0.04291329739442563
2021-02-05,0.10127916016164734
2021-02-08,-0.4528663153954744
2021-02-09,0.0472297660568755
2021-02-10,-0.26554745767518245
2021-02-18,0.20169413919413837
2021-02-19,0.10478989604003952
2021-02-22,0.3988689968741128
2021-02-23,-0.11537018829105403
2021-02-24,0.2032300356573199
2021-02-25,0.051513854712741
2021-02-26,-0.12537046931441423
2021-03-01,-0.22279343844561167
2021-03-02,0.024815739419872775
2021-03-03,-0.055964948712044535
2021-03-04,-0.2995766027754885
2021-03-05,-0.032819321531430495
2021-03-08,-0.18402468402468466
2021-03-09,0.20937307455329776
2021-03-10,-0.14474547305438407
2021-03-11,0.05616567716211815
2021-03-12,0.16263024884420132
2021-03-15,0.35493507444726946
2021-03-16,-0.2900322785333967
2021-03-17,0.12597200622083815
2021-03-18,0.13299086083162776
2021-03-19,-0.14685352819282121
2021-03-22,-0.19183755069400607
2021-03-23,0.004013545716795186
2021-03-24,0.05772811918063632
2021-03-25,-0.21140798278040157
2021-03-26,0.06588050314465313
2021-03-29,-0.020125283220045306
2021-03-30,0.10386197032004474
2021-03-31,-0.009102326368795814
2021-04-01,0.20936506133575455
2021-04-02,-0.12060229445506776
2021-04-06,-0.12018941542481235
2021-04-07,-0.0013196875841687446
2021-04-08,-0.17205148550705182
2021-04-09,0.15533463107156303
2021-04-12,0.17398709255482886
2021-04-13,0.21997094187443486
2021-04-14,0.0655886587900599
2021-04-15,0.20292155362236491
2021-04-16,-0.2649352145452243
2021-04-19,-0.1750807482464225
2021-04-20,0.010342196237879846
2021-04-21,-0.12691329294200304
2021-04-22,-0.06988047631176703
2021-04-23,0.024688909126505013
2021-04-26,0.3029827870818297
2021-04-27,-0.14684150028873355
2021-04-28,0.04030389620419643
2021-04-29,-0.07808385308385277
2021-04-30,-0.06236713640969259
2021-05-06,-0.19349365996288734
2021-05-07,0.1845911194925426
2021-05-10,0.07511775215201874
2021-05-11,0.11891891891891793
2021-05-12,0.08769752928725431
2021-05-13,-0.11796559076538474
2021-05-14,-0.23803265388905706
2021-05-17,0.09006018463422132
2021-05-18,-0.15897758223339542
2021-05-19,0.00949362368558555
2021-05-20,0.1527914614121509
2021-05-21,0.20925492444147104
2021-05-24,-0.24345125920850064
2021-05-25,0.12338912753666138
2021-05-26,0.11908313625613925
2021-05-27,-0.17238627294493133
2021-05-28,-0.08501846316159474
2021-05-31,0.2039081885856079
2021-06-01,0.0025798647113987813
2021-06-02,-0.20152620043833697
2021-06-03,0.19501515921017817
2021-06-04,0.06276184999589259
2021-06-07,-0.333530630364013
2021-06-08,0.018019132442684434
2021-06-09,0.13745596868884766
2021-06-10,-0.1672306925049804
2021-06-11,-0.21441472157462932
2021-06-15,0.4346794218353832
2021-06-16,-0.1625198164372096
2021-06-17,-0.07822865512190892
2021-06-18,0.28654319818112817
2021-06-21,0.16691010709541823
2021-06-22,-0.3694469004813796
2021-06-23,0.1297910639665716
2021-06-24,0.02704231144928011
2021-06-25,-0.37334422334422773
2021-06-28,0.07816251930929977
2021-06-29,0.12192344194874999
2021-06-30,-0.02495446265938399
2021-07-01,-0.16726529601188758
2021-07-02,0.6355212355212378
2021-07-05,-0.18384528674087544
2021-07-06,0.08403452581292839
2021-07-07,0.22561205273070084
2021-07-08,0.16848058045241024
2021-07-09,-0.6726676842955892
2021-07-12,0.193601143220068
2021-07-13,-0.02001487373492212
2021-07-14,-0.3177515326361369
2021-07-15,0.04766738569555655
2021-07-16,0.1669529598308633
2021-07-19,-0.07752229841781928
2021-07-20,0.017056293853267575
2021-07-21,0.21634470496051555
2021-07-22,-0.04163289253263718
2021-07-23,0.17549626006904462
2021-07-26,0.06624909333713148
2021-07-27,-0.10700917839186812
2021-07-28,-0.06634825895757808
2021-07-29,-0.032628465599690126
2021-07-30,-0.22436362629144302
2021-08-02,-0.20809337664483168
2021-08-03,0.03749081536254838
2021-08-04,-0.18176654903287334
2021-08-05,-0.006285631810635971
2021-08-06,0.15095460458540882
2021-08-09,0.18584566173530873
2021-08-10,0.012755763875673724
2021-08-11,0.23704089606668813
2021-08-12,-0.03972845791869414
2021-08-13,-0.03302852356042707
2021-08-16,-0.17708220204654307
2021-08-17,0.08899597324062208
2021-08-18,-0.28981972652991494
2021-08-19,0.29377120413865065
2021-08-20,-0.11609154308541147
2021-08-23,0.5225601906263917
2021-08-24,-0.004612072311829002
2021-08-25,0.26358725253624615
2021-08-26,-0.32868365445554604
2021-08-27,0.11137279531062202
2021-08-30,-0.5557764333045221
2021-08-31,-0.17169788519637247
2021-09-01,-0.10158936859327732
2021-09-02,0.10858380279396575
2021-09-03,0.03446489190637361
2021-09-06,0.07207413048996901
2021-09-07,0.03876598555479385
2021-09-08,0.05981351503663249
2021-09-09,0.03432315773051611
2021-09-10,-0.15554187192117747
2021-09-13,0.187641655731839
2021-09-14,0.02832320398940668
2021-09-15,0.03327901192211852
2021-09-16,-0.122790303800152
2021-09-17,0.32225274725274533
2021-09-22,-0.21954484605086816
2021-09-23,0.05046583850931499
2021-09-24,-0.07372363493002083
2021-09-27,0.245871327254308
2021-09-28,-0.3430369324864735
2021-09-29,0.08998435054772876
2021-09-30,0.07207091469681307
2021-10-08,0.3970818134445019
2021-10-11,-0.14393369788106716
2021-10-12,0.17589099431250202
2021-10-13,0.09495226391908979
2021-10-14,-0.06909472422062055
2021-10-15,-0.6019869333872132
2021-10-18,-0.07379221138027657
2021-10-19,-0.011243352093776887
2021-10-20,-0.07649930014715475
2021-10-21,-0.05032394995532113
2021-10-22,0.3384710790393465
2021-10-25,0.13155193472103238
2021-10-26,0.07211398662402438
2021-10-27,0.4291748319881325
2021-10-28,0.06867784448845957
2021-10-29,-0.17747461341399406
2021-11-01,-0.2051950730787352
2021-11-02,-0.0696095076400694
2021-11-03,-0.7822387401147215
2021-11-04,0.22289928612843635
2021-11-05,0.03121057848261193
2021-11-08,0.2045929858429828
2021-11-09,-0.20103826563928398
2021-11-10,0.3442169675908489
2021-11-11,-0.5674478193562145
2021-11-12,0.2953426066248108
2021-11-15,-0.1473940784285619
2021-11-16,0.16822552447552588
2021-11-17,-0.03947076408924505
2021-11-18,0.2964060814807079
2021-11-19,-0.415703080779499
2021-11-22,0.11241228812762946
2021-11-23,0.04461671802773239
2021-11-24,-0.0007884338586465062
2021-11-25,0.0806275788294002
2021-11-26,0.16015654976594776
2021-11-29,0.13686600890439443
2021-11-30,-0.06612429378530907
2021-12-01,0.08982341353594592
2021-12-02,-0.12402837589121293
2021-12-03,-0.0648027589119182
2021-12-06,-0.34963196635120997
2021-12-07,-0.009403508771929171
2021-12-08,0.21827421126981641
2021-12-09,0.2851146416320633
2021-12-10,0.0536504232310737
2021-12-13,0.16752010573162168
2021-12-14,0.08002838592172784
2021-12-15,-0.40835742131685004
2021-12-16,-0.47695564521969447
2021-12-17,0.032420113361672165
2021-12-20,0.10545885329384638
2021-12-21,-0.16607232459724525
2021-12-22,0.12831091822683943
2021-12-23,0.2754470245300372
2021-12-24,-0.04765693464323441
2021-12-27,-0.18507941564647062
2021-12-28,0.19218102861225367
2021-12-29,0.07200467562829256
2021-12-30,-0.021381578947365455
2021-12-31,-0.10368615580342214
2022-01-04,0.2935819381024862
2022-01-05,-0.09331081693716657
2022-01-06,-0.09161951531973961
2022-01-07,-0.02928589678078413
2022-01-10,0.33504262478365393
2022-01-11,-0.4376409017713362
2022-01-12,0.008250895446020718
2022-01-13,0.0010901321240142856
2022-01-14,0.15544688749285673
2022-01-17,-0.34073504437822355
2022-01-18,0.20801127214170542
2022-01-19,-0.04939797045060357
2022-01-20,0.07014196734189639
2022-01-21,-0.32207592339261043
2022-01-24,0.37859454461396314
2022-01-25,0.07184903534713688
2022-01-26,0.0995564450695085
2022-01-27,0.02038741585382667
2022-01-28,0.23867809057527795
2022-02-07,-0.4148809523809541
2022-02-08,-0.08688496680097955
2022-02-09,-0.004703929164363491
2022-02-10,-0.02605363984674062
2022-02-11,-0.08524027459954805
2022-02-14,0.19620786516853747
2022-02-15,0.03347393467445657
2022-02-16,-0.07456262149402504
2022-02-17,-0.07091136079900201
2022-02-18,0.04048271140020864
2022-02-21,-0.02589536516853526
2022-02-22,-0.08501853724300845
2022-02-23,0.23863272860210277
2022-02-24,-0.00043366844076621336
2022-02-25,0.09544701746229772
2022-02-28,-0.08139109531772903
2022-03-01,0.14276718999244545
2022-03-02,-0.30797382244035976
2022-03-03,0.1023547461810437
2022-03-04,-0.157472657759062
2022-03-07,0.08884577089024187
2022-03-08,-0.08016883363643841
2022-03-09,0.07095941825005771
2022-03-10,-0.009581145512706425
2022-03-11,0.1948360351951181
2022-03-14,0.03473282442748449
2022-03-15,0.5330827067669158
2022-03-16,-0.005349526494616223
2022-03-17,-0.032733763083105785
2022-03-18,-0.25515525297900027
2022-03-21,-0.1304878048780472
2022-03-22,-0.9148162182644903
2022-03-23,0.27877033821264696
2022-03-24,0.11408296943231307
2022-03-25,0.21288354074531368
2022-03-28,0.1845340476526127
2022-03-29,0.38220589664893445
2022-03-30,-0.10560471976400782
2022-03-31,-0.28029411764705775
2022-04-01,-0.18766631270794404
2022-04-06,-0.08203848190767472
2022-04-07,0.27303604864608916
2022-04-08,-0.3866370355728189
2022-04-11,0.32176191549771593
2022-04-12,0.20491626489765496
2022-04-13,-0.13431877598568348
2022-04-14,-0.5515484242846165
2022-04-15,0.2706047403017698
2022-04-18,-0.20048140329283176
2022-04-19,-0.28819786187001517
2022-04-20,0.18465144065070827
2022-04-21,0.3285830147144004
2022-04-22,0.12116050039925216
2022-04-25,-0.02679720536864108
2022-04-26,0.2768517580301949
2022-04-27,-0.1668029662485239
2022-04-28,0.022210802786344727
2022-04-29,-0.29545812549225253
2022-05-05,0.2146569646569676
2022-05-06,0.01849047078127211
2022-05-09,0.13196254071660513
2022-05-10,-0.08708936465285463
2022-05-11,0.15699658703071687
2022-05-12,-0.3781452192667112
2022-05-13,-0.42802790107800015
2022-05-16,-0.0432803468208044
2022-05-17,0.07964415802745775
2022-05-18,-0.07777777777778505
2022-05-19,0.3869496678301956
2022-05-20,0.38812243793828544
2022-05-23,0.2354454185911392
2022-05-24,-0.11265948782915741
2022-05-25,0.16944444444444978
2022-05-26,-0.3000551825623131
2022-05-27,0.11621348984364004
2022-05-30,-0.39940676918730456
2022-05-31,0.048370082144401236
2022-06-01,-0.08714177978883712
2022-06-02,0.1779451206932249
2022-06-06,-0.12552197065471893
2022-06-07,0.4076449232234248
2022-06-08,0.024292435758234553
2022-06-09,0.018128834805017847
2022-06-10,-0.005730413958274706
2022-06-13,-0.2693117280273158
2022-06-14,-0.4812492334110141
2022-06-15,0.21961599528587034
2022-06-16,-0.09642421348612581
2022-06-17,0.1377562450991456
2022-06-20,0.25232242801915095
2022-06-21,0.3969174361759895
2022-06-22,-0.3128179597678732
2022-06-23,0.18563489858293503
2022-06-24,-0.27927368875459135
2022-06-27,-0.01906111146886022
2022-06-28,-0.2851503759398504
2022-06-29,0.04880851862276229
2022-06-30,-0.1197384225276834
2022-07-01,0.2257549361207911
2022-07-04,-0.03399656282526446
2022-07-05,0.27292170355217027
2022-07-06,0.13385402007692215
2022-07-07,-0.045798300636152985
2022-07-08,-0.27725657427149786
2022-07-11,-0.07092198581560229
2022-07-12,-0.19837697671607168
2022-07-13,-0.16855587735942512
2022-07-14,0.06236796855809025
2022-07-15,0.2875193000514598
2022-07-18,0.01775756591413588
2022-07-19,0.08514667033152624
2022-07-20,0.31476814516128715
2022-07-21,-0.04643150123051146
2022-07-22,-0.1325783186837899
2022-07-25,0.06601176323364186
2022-07-26,-0.021660836895977805
2022-07-27,-0.4280849358974361
2022-07-28,0.14403506165502233
2022-07-29,-0.060788965645568384
2022-08-01,0.2231502836127822
2022-08-02,-0.04632891351671902
2022-08-03,0.17311788318178103
2022-08-04,-0.12895293428126894
2022-08-05,0.17001720440243323
2022-08-08,-0.35032216934950583
2022-08-09,0.03314329387948584
2022-08-10,0.1822710781393875
2022-08-11,0.005262417335020784
2022-08-12,-0.2163805784639505
2022-08-15,0.27305130406617123
2022-08-16,-0.002201812024955011
2022-08-17,-0.22039194497406117
2022-08-18,0.02578649332269784
2022-08-19,0.1501756652452482
2022-08-22,-0.30050815507004913
2022-08-23,-0.04567168977345544
2022-08-24,-0.05379272124389445
2022-08-25,0.09241126263803397
2022-08-26,-0.07272238464898367
2022-08-29,0.10035650623886028
2022-08-30,0.24752089435919064
2022-08-31,0.0881914906292042
2022-09-01,-0.11422927040485158
2022-09-02,0.056776556776552835
2022-09-05,0.017945233061509934
2022-09-06,-0.3183371146403301
2022-09-07,0.06688924706424776
2022-09-08,-0.056687882315062235
2022-09-09,-0.027777777777775646
2022-09-13,0.1075829572077116
2022-09-14,0.13274973613956317
2022-09-15,-0.1267512332628663
2022-09-16,0.05829967748495695
2022-09-19,0.07568140137861058
2022-09-20,-0.2326308150298369
2022-09-21,-0.09863035515209273
2022-09-22,0.05722488038277623
2022-09-23,-0.00770117149989351
2022-09-26,-0.13638976432578578
2022-09-27,0.2939175828521702
2022-09-28,0.14223027375202046
2022-09-29,-0.00729296208081125
2022-09-30,0.30910495530293636
2022-10-10,0.3488871432312197
2022-10-11,-0.21450994070457505
2022-10-12,-0.030458089668622103
2022-10-13,0.20981280688688783
2022-10-14,-0.43729251805024083
2022-10-17,-0.5342105263157932
2022-10-18,0.39890710382514427
2022-10-19,-0.068763290802765
2022-10-20,-0.2908437753923802
2022-10-21,0.1276328682371435
2022-10-24,0.5639931740614353
2022-10-25,-0.5411255411255436
2022-10-26,0.3335413561847992
2022-10-27,0.10491166615900323
2022-10-28,0.014951800118038847
2022-10-31,-0.455381348868633
2022-11-01,0.19881017186406122
2022-11-02,-0.5269377445396464
2022-11-03,-0.013385234571920465
2022-11-04,0.24398148627520364
2022-11-07,0.023741115983669875
2022-11-08,0.027500554446662252
2022-11-09,0.31441911562757857
2022-11-10,-0.034911202647033956
2022-11-11,-0.42815211104685014
2022-11-14,0.4216118165327796
2022-11-15,-0.021896896896893923
2022-11-16,-0.1439137134052429
2022-11-17,0.07274526784609352
2022-11-18,0.41071428571428564
2022-11-21,-0.24548522554550967
2022-11-22,0.03376511870987015
2022-11-23,0.06582451038305985
2022-11-24,0.10478682589961827
2022-11-25,-0.3482228298017791
2022-11-28,-0.26943843627332964
2022-11-29,0.11197437077961536
2022-11-30,0.06919171752894908
2022-12-01,-0.20954177897573611
2022-12-02,0.10810266958816131
2022-12-05,0.46492715807783896
2022-12-06,-0.30185478199718463
2022-12-07,-0.04274544988464464
2022-12-08,0.13005478297513545
2022-12-09,0.12573384230617152
2022-12-12,-0.28195807585120064
2022-12-13,0.2756859999173802
2022-12-14,-0.07570335432212907
2022-12-15,-0.07319948607686055
2022-12-16,-0.19962135733729414
2022-12-19,-0.14732522148665586
2022-12-20,-0.14997611281508919
2022-12-21,0.22944419179789988
2022-12-22,-0.08114101118399147
2022-12-23,0.0825791038161675
2022-12-26,0.2998941679487313
2022-12-27,0.057735879592169075
2022-12-28,-0.30348014558539926
2022-12-29,0.23130393096836083
2022-12-30,0.0040298507462691174
2023-01-03,-0.10956410956411067
2023-01-04,-0.10975091237642909
2023-01-05,0.22250610344631455
2023-01-06,-0.20995989039355029
2023-01-09,0.0027339032990411818
2023-01-10,-0.17410592410592338
2023-01-11,0.01630074706997603
2023-01-12,-0.23907934845371984
2023-01-13,0.14890561268455194
2023-01-16,-0.01046238418229988
2023-01-17,0.020202020202016946
2023-01-18,0.06949806949806552
2023-01-19,0.20974434479989837
2023-01-20,-0.13381386682357715
2023-01-30,0.23652471709351627
2023-01-31,0.13888888888889467
2023-02-01,0.08000000000000625
2023-02-02,-0.17151201380592507
2023-02-03,0.12139831494670561
2023-02-06,-0.33686117467582133
2023-02-07,0.2574257425742514
2023-02-08,-0.04062992125984642
2023-02-09,0.14108679386457335
2023-02-10,-0.08365827720666766
2023-02-13,0.11782296650717264
2023-02-14,-0.3895012142723691
2023-02-15,0.23019513865114585
2023-02-16,-0.02039227895392697
2023-02-17,0.1343183843183858
2023-02-20,-0.03446272541364515
2023-02-21,0.0814425603057122
2023-02-22,-0.5562318840579681
2023-02-23,0.2059275380873214
2023-02-24,-0.24311380345863126
2023-02-27,-0.027360867659940512
2023-02-28,0.12172295878576841
2023-03-01,0.27781710914453533
2023-03-02,-0.2240904539385909
2023-03-03,0.2852602099548107
2023-03-06,0.25019257703080455
2023-03-07,-0.00859004739336746
2023-03-08,0.02432943368312491
2023-03-09,-0.13577961672474126
2023-03-10,-0.22860414082625252
2023-03-13,-0.3123119015047861
2023-03-14,0.047632158590310385
2023-03-15,-0.01151162219274002
2023-03-16,0.1441964716089909
2023-03-17,0.1087284302228157
2023-03-20,0.3663088849135373
2023-03-21,-0.2582803067384542
2023-03-22,-0.018461007591442067
2023-03-23,0.17987096024180066
2023-03-24,-0.029833227368318588
2023-03-27,-0.4336538461538478
2023-03-28,0.34814814814814105
2023-03-29,-0.004738015607581483
2023-03-30,-0.28186274509803844
2023-03-31,0.01345755693581447
2023-04-03,0.18750000000000078
2023-04-04,-0.3690647482014342
2023-04-06,0.053862803862807535
2023-04-07,0.010173106899662193
2023-04-10,-0.007246376811581423
2023-04-11,-0.050458715596329314
2023-04-12,0.23186668056858825
2023-04-13,0.08699527044721969
2023-04-14,0.10035547263668117
2023-04-17,0.4817263727654568
2023-04-18,0.04797853302413012
2023-04-19,-0.13664843018051354
2023-04-20,0.022516839064885552
2023-04-21,-0.00986469193405905
2023-04-24,-0.7199462680534239
2023-04-25,0.10213653996051622
2023-04-26,0.10509649781336589
2023-04-27,-0.15626535626535715
2023-04-28,0.0004428127465641637
2023-05-04,0.158709191924043
2023-05-05,-0.20929090888333438
2023-05-08,0.0620335820895497
2023-05-09,-0.2506774226910724
2023-05-10,0.07563621904113539
2023-05-11,0.028008557441172588
2023-05-12,0.21823183656288966
2023-05-15,-0.044303990252818774
2023-05-16,0.3211643935671508
2023-05-17,-0.15223311546841506
2023-05-18,0.13483547925607242
2023-05-19,-0.1342383107088978
2023-05-22,0.026208378088083704
2023-05-23,-0.14927484966395796
2023-05-24,0.29660633484162957
2023-05-25,-0.17452830188678736
2023-05-26,0.032561440865937645
2023-05-29,-0.18171717954681085
2023-05-30,0.21013986013986125
2023-05-31,-0.3605339677504655
2023-06-01,0.1947806259239711
2023-06-02,-0.0177507401346552
2023-06-05,0.22331753078987843
2023-06-06,-0.10289089994972153
2023-06-07,0.05385575849990773
2023-06-08,-0.2123575871950721
2023-06-09,0.06594843514596044
2023-06-12,-0.31828085848131865
2023-06-13,-0.11914360759880192
2023-06-14,0.07318461950697212
2023-06-15,0.1929824561403416
2023-06-16,-0.15220548887699398
2023-06-19,0.3197721072059088
2023-06-20,0.23261143062544704
2023-06-21,0.03594858156027375
2023-06-26,-0.04271675038216516
2023-06-27,0.057246741190577426
2023-06-28,-0.24691027528666384
2023-06-29,-0.16314102564102761
2023-06-30,-0.010753589770456203
2023-07-03,0.23520525319258753
2023-07-04,0.0018178237619863036
2023-07-05,0.3381168714020972
2023-07-06,-0.035294117647053515
2023-07-07,-0.007760781263506018
2023-07-10,-0.4021345691958915
2023-07-11,0.05395906866829196
2023-07-12,-0.16634891110595273
2023-07-13,0.11374023293527287
2023-07-14,0.05413353527703835
2023-07-17,0.02713045532392426
2023-07-18,0.01413893298984258
2023-07-19,-0.28401316731071397
2023-07-20,-0.06915124349334378
2023-07-21,0.10141049721799274
2023-07-24,0.17457627118643912
2023-07-25,0.048664969510396214
2023-07-26,0.2737226277372269
2023-07-27,0.0063706170154930915
2023-07-28,-0.3244320799518046
2023-07-31,-0.14494071433767097
2023-08-01,0.06872528030770171
2023-08-02,0.08763521238237792
2023-08-03,0.06784705599249832
2023-08-04,0.16187050359712155
2023-08-07,0.34853300912566404
2023-08-08,-0.2701321044546868
2023-08-09,-0.1417585234555283
2023-08-10,0.09267793138761446
2023-08-11,0.0326086956521783
2023-08-14,-0.31933716543919904
2023-08-15,0.0949603158423154
2023-08-16,-0.06662026991282652
2023-08-17,-0.23005573567231707
2023-08-18,0.14982558114891603
2023-08-21,-0.11696658780932301
2023-08-22,0.05906523584177474
2023-08-23,0.56762659538724
2023-08-24,0.06893375263252134
2023-08-25,-0.24755055587085895
2023-08-28,0.17136564515418223
2023-08-29,0.1843273894923816
2023-08-30,-0.7156168265039269
2023-08-31,-0.034505608366159554
2023-09-01,0.0038349420224097278
2023-09-04,0.08003011647990921
2023-09-05,-0.43817639872455016
2023-09-06,0.18679548579345
2023-09-07,0.08174691156829716
2023-09-08,0.014642032540755232
2023-09-11,-0.22987007141562965
2023-09-12,0.23973150352509034
2023-09-13,0.12960008555702018
2023-09-14,-0.10740783556851032
2023-09-15,0.9487669640810692
2023-09-18,0.20202867576111966
2023-09-19,-0.013048507192942326
2023-09-20,0.046840168429988324
2023-09-21,0.13213507625272722
2023-09-22,-1.204412369592042
2023-09-25,-0.14771862796476626
2023-09-26,0.04238247034834899
2023-09-27,-0.3341549257287753
2023-09-28,-0.09990832416574891
2023-10-09,0.4271368557877628
2023-10-10,0.01681006321555048
2023-10-11,-0.1571946419908139
2023-10-12,0.3013995374969939
2023-10-13,0.04745267432213824
2023-10-16,-0.34934194168855637
2023-10-17,0.15151376903509983
2023-10-18,0.09045800920248318
2023-10-19,-0.11516938646172264
2023-10-20,0.07858387891301734
2023-10-23,0.18947034066545015
2023-10-24,-0.04739671760045279
2023-10-25,0.11318454613653324
2023-10-26,-0.07871464845460358
2023-10-27,-0.1428240587573641
2023-10-30,0.24090180819409557
2023-10-31,-0.03683826008766947
2023-11-01,-0.0652454780361768
2023-11-02,0.08239888824995222
2023-11-03,0.07330140433476917
2023-11-06,-0.32492997198879736
2023-11-07,-0.018928336001507784
2023-11-08,-0.09052287581699157
2023-11-09,0.37254042745674837
2023-11-10,-0.004136438844346683
2023-11-13,0.0638328951212378
2023-11-14,0.06739206739206748
2023-11-15,0.08743645606390535
2023-11-16,-0.5032388970106384
2023-11-17,-0.04504209745669535
2023-11-20,0.10300884157344539
2023-11-21,-0.11861471861471279
2023-11-22,-0.08484173396453866
2023-11-23,0.09959036144578318
2023-11-24,0.1649196781185934
2023-11-27,0.026832748024572375
2023-11-28,0.08749999999998959
2023-11-29,0.3492660221983503
2023-11-30,-0.015324538258575784
2023-12-01,-0.17393774411173027
2023-12-04,-0.024331007683471136
2023-12-05,0.14536384976526434
2023-12-06,-0.4847678201715466
2023-12-07,0.17143264636668232
2023-12-08,0.04517729684339006
2023-12-11,-0.13996977103164351
2023-12-12,-0.3035735785685103
2023-12-13,0.1830277639130805
2023-12-14,-0.20978151471359374
2023-12-15,0.07994830399842111
2023-12-18,0.16399884615378157
2023-12-19,0.034435218999331704
2023-12-20,-0.020162475245936246
2023-12-21,0.3050632371139601
2023-12-22,-0.1793509529544849
2023-12-25,0.03940055708577564
2023-12-26,0.07477216238607493
2023-12-27,0.02916369684010222
2023-12-28,-0.3779352850539273
2023-12-29,0.15497611217968074
2024-01-02,-0.22251210107473876
2024-01-03,0.06682803107779439
2024-01-04,-0.022884047925258666
2024-01-05,0.39039367609512665
2024-01-08,0.028934550055054034
2024-01-09,0.010966633997117115
2024-01-10,0.11094728221931405
2024-01-11,0.15664422263242514
2024-01-12,-0.14615125185270042
2024-01-15,-0.16961668306225058
2024-01-16,0.09471438681943327
2024-01-17,-0.13091471042754907
2024-01-18,-0.16071802605672034
2024-01-19,-0.22427110218908541
2024-01-22,0.1997589953913103
2024-01-23,0.046729751135934194
2024-01-24,-0.15373982029630495
2024-01-25,0.07147323306390348
2024-01-26,0.2795741324921136
2024-01-29,-0.15638474295189947
2024-01-30,-0.036979642801399856
2024-01-31,0.13174790147825574
2024-02-01,-0.0375809350304066
2024-02-02,-0.1349009900990109
2024-02-05,0.05777777777777322
2024-02-06,-0.10203925511452824
2024-02-07,0.10148214821482027
2024-02-08,-0.052980132450332486
2024-02-19,-0.003732745210063549
2024-02-20,-0.061473357226266505
2024-02-21,0.1131045177674388
2024-02-22,-0.11193061516208525
2024-02-23,0.15827140626693087
2024-02-26,-0.055548654628032865
2024-02-27,-0.012670786917873308
2024-02-28,-0.010515536321016067
2024-02-29,0.006605939837408664
2024-03-01,-0.2776672802961803
2024-03-04,-0.04770072694601024
2024-03-05,0.14414414414413673
2024-03-06,-0.002669357726496107
2024-03-07,-0.11447876447876296
2024-03-08,0.36393654307323287
2024-03-11,0.344350928041915
2024-03-12,-0.13927738927738137
2024-03-13,0.10658622423328493
2024-03-14,0.23162162162162045
2024-03-15,-0.2128898128898118
2024-03-18,-0.32226903440038923
2024-03-19,0.10661973161972897
2024-03-20,-0.1593426223651239
2024-03-21,-0.21472972972972884
2024-03-22,-0.06122726500085617
2024-03-25,0.21365368225798376
2024-03-26,-0.07631670131670322
2024-03-27,-0.023197060174556923
2024-03-28,0.10877831272567806
2024-03-29,0.284890444309194
2024-04-01,-0.22253138878227668
2024-04-02,0.006984309223115489
2024-04-03,0.08354524222998916
2024-04-08,0.06487974438959451
2024-04-09,-0.3651151110388763
2024-04-10,0.0411464286105975
2024-04-11,0.04432283827735187
2024-04-12,-0.0009226409506675904
2024-04-15,-0.024647884581114318
2024-04-16,0.46335687554360316
2024-04-17,0.1329932057623303
2024-04-18,0.04268830852030683
2024-04-19,0.0006543113814792365
2024-04-22,-0.07706732805033104
2024-04-23,-0.5048554487974707
2024-04-24,-0.1340970682434038
2024-04-25,-0.16867805497521793
2024-04-26,0.4521804357461872
2024-04-29,0.13598098844000456
2024-04-30,0.2121043804634462
2024-05-06,0.08566279535442108
2024-05-07,0.30506500390581687
2024-05-08,-0.5409518539014914
2024-05-09,-0.17877549854293867
2024-05-10,-0.02790734593062668
2024-05-13,0.08671557254633225
2024-05-14,-0.24704907161803846
2024-05-15,-0.12187210379981495
2024-05-16,0.06054380136387205
2024-05-17,-0.00867380415126228
2024-05-20,-0.2157916126194861
2024-05-21,-0.06587944219523079
2024-05-22,0.26436895121469384
2024-05-23,-0.009577790630421051
2024-05-24,0.022290718488370675
2024-05-27,0.0817331526588925
2024-05-28,0.014031290347077868
2024-05-29,-0.11216875257065628
2024-05-30,-0.028016194331986044
2024-05-31,0.07061489159281058
2024-06-03,0.11825325867018108
2024-06-04,0.11796536796537031
2024-06-05,0.05656175948749141
2024-06-06,0.08552631578947684
2024-06-07,-0.0833838843392963
2024-06-11,-0.23209537902576094
2024-06-12,-0.03508771929824662
2024-06-13,-0.093616967522706
2024-06-14,-0.13247979908276783
2024-06-17,0.27398808300800614
2024-06-18,0.09153952843273476
2024-06-19,-0.0733371891266629
2024-06-20,0.10465859347541322
2024-06-21,0.16542868363983643
2024-06-24,-0.4626977207622285
2024-06-25,-0.02519648636153822
2024-06-26,0.21026983487716172
2024-06-27,0.03945671291772264
2024-06-28,-0.11847520034653926
2024-07-01,0.17685542685542124
2024-07-02,0.19186315302819956
2024-07-03,-0.20225019494262708
2024-07-04,-0.02820705176293068
2024-07-05,0.18209586466164507
2024-07-08,0.22540623627580883
2024-07-09,-0.029938708156528646
2024-07-10,0.18568665377175853
2024-07-11,0.022386744227029978
2024-07-12,-0.0931948556624653
2024-07-15,-0.23262845849803018
2024-07-16,-0.07356486944030824
2024-07-17,-0.15245825602968555
2024-07-18,-0.1479781420765025
2024-07-19,-0.14215178299299183
2024-07-22,-0.1590789473684192
2024-07-23,-0.09309506185893958
2024-07-24,-0.053977785804586
2024-07-25,0.20607843137255344
2024-07-26,0.10147706659756248
2024-07-29,0.2206276199347889
2024-07-30,-3.518648839238858e-05
2024-07-31,0.1487470019022416
2024-08-01,-0.24163398692810567
2024-08-02,0.16767059246606164
2024-08-05,0.05239869585468637
2024-08-06,0.11417157275021123
2024-08-07,-0.051401869158878774
2024-08-08,0.2426143790849653
2024-08-09,-0.16326530612244505
2024-08-12,-0.14936990363232394
2024-08-13,0.17174796747967647
2024-08-14,0.05956112852664834
2024-08-15,-0.010175194338090582
2024-08-16,0.061662198391418066
2024-08-19,0.11335182814056566
2024-08-20,-0.35603309120258353
2024-08-21,-0.11069749216301289
2024-08-22,-0.20192131534261515
2024-08-23,-0.08162837760492836
2024-08-26,0.15544790403196762
2024-08-27,0.1292695990870634
2024-08-28,0.09586978697082724
2024-08-29,0.05277831431745563
2024-08-30,-0.11060706919413425
2024-09-02,-0.40350540208946906
2024-09-03,0.09605989513968835
2024-09-04,-0.07153463296158621
2024-09-05,-0.010793785769002175
2024-09-06,0.14672716760243967
2024-09-09,0.6317028296984619
2024-09-10,0.07570359697582914
2024-09-11,0.029691383037529436
2024-09-12,0.1486055111090851
2024-09-13,-0.0029613070575932234
2024-09-18,-0.6583454579035917
2024-09-19,-0.32960451977401134
2024-09-20,0.19052546444967464
2024-09-23,0.1043327039650225
2024-09-24,0.02715320918844491
2024-09-25,0.38412540397045425
2024-09-26,0.2147327249022194
2024-09-27,-0.3346193415637821
2024-09-30,-0.34479970257459003
2024-10-08,0.09573012804143707
2024-10-09,-0.31391445921650496
2024-10-10,-0.10490672118579009
2024-10-11,0.2408478318175799
2024-10-14,0.08999555125219068
2024-10-15,-0.33882509026055424
2024-10-16,0.31673230237248745
2024-10-17,0.23435563048544006
2024-10-18,-0.013382147283209175
2024-10-21,0.07001713306681943
2024-10-22,0.1882142571725365
2024-10-23,-0.2731665140880851
2024-10-24,-0.25486696950031884
2024-10-25,-0.32069421526289993
2024-10-28,0.04565156206022746
2024-10-29,0.05073397874355552
2024-10-30,0.12672772474913038
2024-10-31,-0.05157161678901122
2024-11-01,0.3198593701106216
2024-11-04,0.2203615098351995
2024-11-05,-0.08330054429799007
2024-11-06,0.07491656565991806
2024-11-07,0.21922989291410586
2024-11-08,-0.03347908373034069
2024-11-11,-0.4814814814814833
2024-11-12,0.09361307718234288
2024-11-13,-0.2132798197436936
2024-11-14,-0.021127286300855252
2024-11-15,-0.09612475877535759
2024-11-18,0.09866168689697948
2024-11-19,-0.15449284856424889
2024-11-20,0.12436647173489254
2024-11-21,-0.20243161094225592
2024-11-22,-0.02989736724676259
2024-11-25,0.2583753501400569
2024-11-26,0.14844364840293714
2024-11-27,0.03304093567251592
2024-11-28,0.2779922779922783
2024-11-29,0.23121693121692488
2024-12-02,-0.16979423868312454
2024-12-03,0.018114978112070954
2024-12-04,0.02755819060166293
2024-12-05,-0.15011640854337022
2024-12-06,-0.29402498642042296
2024-12-09,0.36888381283877736
2024-12-10,0.06520109577093086
2024-12-11,-0.04953886693016671
2024-12-12,-0.04841930296063908
2024-12-13,0.2045744369698746
2024-12-16,-0.5245305019227183
2024-12-17,-0.268937265869455
2024-12-18,0.011017021231765563
2024-12-19,0.11495595626286097
2024-12-20,-0.02644157531631241
2024-12-23,0.04759397575668839
2024-12-24,0.09182543090745802
2024-12-25,0.13811545478374407
2024-12-26,-0.10440090834927065
2024-12-27,-0.18288163366354795
2024-12-30,0.40451361867704994
2024-12-31,0.0533333333333277
