date,FCT_Demark_Atr_Dfive
2013-11-08,
2013-11-11,
2013-11-12,
2013-11-13,
2013-11-14,
2013-11-15,
2013-11-18,
2013-11-19,
2013-11-20,
2013-11-21,0.06778591707265867
2013-11-22,0.1449275362318851
2013-11-25,0.7485714285714312
2013-11-26,0.8255813953488386
2013-11-27,0.8563829787234032
2013-11-28,0.8643216080402001
2013-11-29,0.9717514124293757
2013-12-02,0.29310344827586254
2013-12-03,0.331521739130434
2013-12-04,0.2210526315789477
2013-12-05,0.10937499999999892
2013-12-06,0.27510917030567816
2013-12-09,0.4846153846153828
2013-12-10,0.38532110091743116
2013-12-11,0.49999999999999434
2013-12-12,0.646153846153837
2013-12-13,0.0
2013-12-16,0.6800000000000316
2013-12-17,0.3617021276595915
2013-12-18,0.3877551020408373
2013-12-19,0.8243243243243341
2013-12-20,0.6853932584269636
2013-12-23,0.6585365853658488
2013-12-24,0.7552447552447453
2013-12-25,0.7756410256410166
2013-12-26,0.14399999999999627
2013-12-27,0.1874999999999979
2013-12-30,0.15957446808510795
2013-12-31,0.35537190082644793
2014-01-02,0.25
2014-01-03,0.6511627906976778
2014-01-06,0.8936170212765941
2014-01-07,0.9361702127659567
2014-01-08,0.7819548872180455
2014-01-09,0.8580246913580255
2014-01-10,0.7595628415300519
2014-01-13,0.497005988023952
2014-01-14,0.22151898734177125
2014-01-15,0.27972027972028063
2014-01-16,0.045871559633031564
2014-01-17,0.08045977011495302
2014-01-20,0.1272727272727406
2014-01-21,0.4117647058823843
2014-01-22,0.6774193548387099
2014-01-23,0.31818181818182045
2014-01-24,0.3749999999999984
2014-01-27,0.525641025641029
2014-01-28,0.5609756097560983
2014-01-29,0.3253012048192789
2014-01-30,0.5000000000000044
2014-02-07,0.7032967032967055
2014-02-10,0.732673267326735
2014-02-11,0.6969696969696989
2014-02-12,0.7419354838709701
2014-02-13,0.804597701149423
2014-02-14,0.7901234567901196
2014-02-17,0.4545454545454457
2014-02-18,0.44444444444443804
2014-02-19,0.5662650602409597
2014-02-20,0.7142857142857126
2014-02-21,0.2999999999999986
2014-02-24,0.43949044585987157
2014-02-25,0.6391304347826077
2014-02-26,0.6867924528301879
2014-02-27,0.5520000000000007
2014-02-28,0.8117647058823574
2014-03-03,0.7922077922077974
2014-03-04,0.34108527131783073
2014-03-05,0.01666666666666716
2014-03-06,0.021978021978027618
2014-03-07,0.607305936073059
2014-03-10,0.6489795918367339
2014-03-11,0.8307692307692316
2014-03-12,1.0
2014-03-13,1.0
2014-03-14,0.6367521367521322
2014-03-17,0.7231270358306161
2014-03-18,0.7365042883569676
2014-03-19,0.7131195465150582
2014-03-20,0.3723445584915015
2014-03-21,0.5265542614596073
2014-03-24,0.0995771895987394
2014-03-25,0.030909706158089897
2014-03-26,0.15779159078311988
2014-03-27,0.2159080135975207
2014-03-28,0.16157398310080529
2014-03-31,0.287292817679555
2014-04-01,0.5472972972972894
2014-04-02,0.2213740458015214
2014-04-03,0.4451219512195061
2014-04-04,0.4591194968553378
2014-04-08,0.594285714285712
2014-04-09,0.5000000000000033
2014-04-10,0.590551181102371
2014-04-11,0.24409448818898385
2014-04-14,0.5555555555555702
2014-04-15,0.3259259259259352
2014-04-16,0.31884057971015106
2014-04-17,0.4640522875816978
2014-04-18,0.6666666666666636
2014-04-21,0.6448598130841051
2014-04-22,0.9156626506024073
2014-04-23,1.0
2014-04-24,1.0
2014-04-25,0.985074626865678
2014-04-28,0.5918367346938811
2014-04-29,0.642857142857147
2014-04-30,0.6363636363636366
2014-05-05,0.22784810126581892
2014-05-06,0.20454545454545023
2014-05-07,0.17821782178217496
2014-05-08,0.34645669291338044
2014-05-09,0.2877697841726611
2014-05-12,0.553846153846159
2014-05-13,0.657142857142861
2014-05-14,0.7360000000000039
2014-05-15,0.47706422018349115
2014-05-16,0.6611570247933879
2014-05-19,0.6639344262295038
2014-05-20,0.7544910179640699
2014-05-21,0.9202657807308963
2014-05-22,0.9753521126760594
2014-05-23,0.9731800766283559
2014-05-26,0.7647058823529447
2014-05-27,0.5672727272727285
2014-05-28,0.02155172413793491
2014-05-29,0.0213675213675251
2014-05-30,0.18505338078291275
2014-06-03,0.23008849557521385
2014-06-04,0.2810810810810735
2014-06-05,0.4727272727272652
2014-06-06,0.695652173913042
2014-06-09,0.3108808290155463
2014-06-10,0.3076923076923112
2014-06-11,0.42922374429224114
2014-06-12,0.5376884422110599
2014-06-13,0.26553672316384547
2014-06-16,0.5660377358490575
2014-06-17,0.7516339869281038
2014-06-18,0.4939024390243929
2014-06-19,0.41717791411042965
2014-06-20,0.5681818181818172
2014-06-23,0.5403225806451611
2014-06-24,0.0975609756097496
2014-06-25,0.214285714285701
2014-06-26,0.214285714285701
2014-06-27,0.4310344827586234
2014-06-30,0.3237410071942486
2014-07-01,0.622641509433968
2014-07-02,0.8921832884097052
2014-07-03,0.9251336898395738
2014-07-04,0.8252688172043032
2014-07-07,0.907268170426066
2014-07-08,0.9095354523227389
2014-07-09,0.25249999999999895
2014-07-10,0.24874371859296346
2014-07-11,0.5028462998102454
2014-07-14,0.4101562499999978
2014-07-15,0.339658444022769
2014-07-16,0.6438848920863272
2014-07-17,0.6194029850746241
2014-07-18,0.0
2014-07-21,0.11415525114155123
2014-07-22,0.3508771929824562
2014-07-23,0.42307692307692485
2014-07-24,0.4883720930232567
2014-07-25,0.6810810810810786
2014-07-28,0.7020202020202005
2014-07-29,0.3999999999999992
2014-07-30,0.36132758269625914
2014-07-31,0.21062702640111336
2014-08-01,0.33368972197894614
2014-08-04,0.09415086075213568
2014-08-05,0.28717639660413263
2014-08-06,0.36750892790714507
2014-08-07,0.6780175274008622
2014-08-08,0.5857131524670716
2014-08-11,0.7936213156260427
2014-08-12,0.7764705882352935
2014-08-13,0.8602941176470593
2014-08-14,0.6422764227642282
2014-08-15,0.7960526315789513
2014-08-18,0.865591397849462
2014-08-19,0.8820754716981122
2014-08-20,0.48749999999999966
2014-08-21,0.49159663865546394
2014-08-22,0.37128712871287345
2014-08-25,0.1767676767676756
2014-08-26,0.0
2014-08-27,0.16822429906542546
2014-08-28,0.2747252747252694
2014-08-29,0.2475247524752419
2014-09-01,0.29411764705882176
2014-09-02,0.2906976744186011
2014-09-03,0.08860759493669647
2014-09-04,0.0
2014-09-05,0.21917808219177778
2014-09-09,0.4637681159420239
2014-09-10,0.837837837837842
2014-09-11,0.9875000000000052
2014-09-12,1.0
2014-09-15,0.8023952095808351
2014-09-16,0.8035714285714259
2014-09-17,0.6402439024390226
2014-09-18,0.5677419354838684
2014-09-19,0.11643835616438328
2014-09-22,0.48387096774193494
2014-09-23,0.46368715083798906
2014-09-24,0.6111111111111116
2014-09-25,0.569948186528498
2014-09-26,0.885245901639344
2014-09-29,0.5527950310559031
2014-09-30,0.4224598930481325
2014-10-08,0.37572254335260075
2014-10-09,0.4423076923076934
2014-10-10,0.13178294573642882
2014-10-13,0.39000000000000096
2014-10-14,0.6428571428571355
2014-10-15,0.34408602150537865
2014-10-16,0.4649122807017572
2014-10-17,0.636363636363643
2014-10-20,0.5189873417721552
2014-10-21,0.39772727272728
2014-10-22,0.5072463768115981
2014-10-23,0.13513513513513845
2014-10-24,0.0
2014-10-27,0.0
2014-10-28,0.027027027027023427
2014-10-29,0.3208955223880513
2014-10-30,0.440366972477052
2014-10-31,0.8279569892473058
2014-11-03,1.0
2014-11-04,1.0
2014-11-05,0.8762886597938206
2014-11-06,0.8862559241706223
2014-11-07,0.7783251231527154
2014-11-10,0.1497326203208596
2014-11-11,0.16315789473684847
2014-11-12,0.22857142857143248
2014-11-13,0.09782608695652359
2014-11-14,0.11585365853658991
2014-11-17,0.41509433962264486
2014-11-18,0.23636363636362914
2014-11-19,0.059701492537313675
2014-11-20,0.3333333333333331
2014-11-21,0.28846153846152967
2014-11-24,0.126315789473686
2014-11-25,0.20000000000000417
2014-11-26,0.42045454545454897
2014-11-27,0.257731958762888
2014-11-28,0.2659574468085161
2014-12-01,0.8124566500899831
2014-12-02,0.8283716408800149
2014-12-03,0.9280357469682837
2014-12-04,0.9942909069621423
2014-12-05,1.0
2014-12-08,0.8885281423599418
2014-12-09,0.8981760037671372
2014-12-10,0.4173216506741076
2014-12-11,0.2594689209491587
2014-12-12,0.37323943661971887
2014-12-15,0.42063492063492236
2014-12-16,0.23106060606060613
2014-12-17,0.3446327683615827
2014-12-18,0.36309523809523736
2014-12-19,0.0
2014-12-22,0.0
2014-12-23,0.141732283464561
2014-12-24,0.13333333333332684
2014-12-25,0.2765957446808439
2014-12-26,0.254901960784309
2014-12-29,0.45454545454545303
2014-12-30,0.36111111111111466
2014-12-31,0.7462686567164235
2015-01-05,0.668393782383424
2015-01-06,0.8711656441717809
2015-01-07,0.7302631578947344
2015-01-08,0.6235955056179723
2015-01-09,0.0687830687830669
2015-01-12,0.06951871657753876
2015-01-13,0.08900523560209513
2015-01-14,0.19791666666666777
2015-01-15,0.2375000000000023
2015-01-16,0.7903225806451727
2015-01-19,0.9780219780219792
2015-01-20,0.7422680412371047
2015-01-21,0.7950819672131092
2015-01-22,0.8424657534246527
2015-01-23,0.741721854304635
2015-01-26,0.6880000000000024
2015-01-27,0.8740157480315014
2015-01-28,0.39393939393939853
2015-01-29,0.37106918238994085
2015-01-30,0.42465753424657654
2015-02-02,0.28915662650602303
2015-02-03,0.16197183098591314
2015-02-04,0.4354838709677337
2015-02-05,0.11666666666665651
2015-02-06,0.10169491525422836
2015-02-09,0.472222222222225
2015-02-10,0.21250000000000072
2015-02-11,0.16049382716049976
2015-02-12,0.16883116883117613
2015-02-13,0.28888888888889935
2015-02-16,0.12605042016806978
2015-02-17,0.31395348837209475
2015-02-25,0.7049180327868848
2015-02-26,0.7647058823529372
2015-02-27,0.7927461139896335
2015-03-02,1.0
2015-03-03,1.0
2015-03-04,0.5083333333333329
2015-03-05,0.46511627906977077
2015-03-06,0.40517241379310887
2015-03-09,0.28000000000000785
2015-03-10,0.22522522522522906
2015-03-11,0.2525252525252564
2015-03-12,0.4434782608695702
2015-03-13,0.1666666666666676
2015-03-16,0.16455696202531667
2015-03-17,0.1917808219178068
2015-03-18,0.274509803921564
2015-03-19,0.1956521739130403
2015-03-20,0.33962264150943333
2015-03-23,0.31034482758621357
2015-03-24,0.4117647058823594
2015-03-25,0.8212560386473494
2015-03-26,0.7938144329896984
2015-03-27,0.9277777777777839
2015-03-30,0.983333333333335
2015-03-31,0.9837837837837854
2015-04-01,0.25806451612902737
2015-04-02,0.523754190616401
2015-04-03,0.5446073963002305
2015-04-07,0.5678427712606107
2015-04-08,0.48514054371642634
2015-04-09,0.6808880726390433
2015-04-10,0.29404741647056787
2015-04-13,0.14494335508976655
2015-04-14,0.0
2015-04-15,0.0
2015-04-16,0.3499999999999966
2015-04-17,0.6352941176470464
2015-04-20,0.9655172413793041
2015-04-21,0.8484848484848581
2015-04-22,0.8585858585858637
2015-04-23,0.4285714285714262
2015-04-24,0.20394736842105346
2015-04-27,0.00694444444444128
2015-04-28,0.25433526011560775
2015-04-29,0.23626373626373948
2015-04-30,0.444444444444449
2015-05-04,0.6268656716417957
2015-05-05,0.8082191780821932
2015-05-06,0.4870129870129868
2015-05-07,0.5818181818181811
2015-05-08,0.3985507246376768
2015-05-11,0.58064516129032
2015-05-12,0.3393939393939416
2015-05-13,0.43076923076923573
2015-05-14,0.5911602209944787
2015-05-15,0.5023474178403815
2015-05-18,0.3333333333333356
2015-05-19,0.5049504950495051
2015-05-20,0.5820895522388023
2015-05-21,0.2153110047846825
2015-05-22,0.42156862745097334
2015-05-25,0.6761133603238848
2015-05-26,0.5930735930735943
2015-05-27,0.6398467432950214
2015-05-28,0.8608247422680472
2015-05-29,0.6562500000000041
2015-06-01,0.30201342281879245
2015-06-02,0.2760736196319003
2015-06-03,0.0
2015-06-04,0.15328467153284042
2015-06-05,0.18260869565216675
2015-06-08,0.23863636363635624
2015-06-09,0.45833333333332904
2015-06-10,0.34736842105262644
2015-06-11,0.12244897959183745
2015-06-12,0.5917159763313614
2015-06-15,0.652694610778441
2015-06-16,0.5606936416184947
2015-06-17,0.7439024390243888
2015-06-18,0.8807947019867546
2015-06-19,0.3237410071942481
2015-06-23,0.2292993630573294
2015-06-24,0.3522012578616384
2015-06-25,0.38690476190476164
2015-06-26,0.4462365591397826
2015-06-29,0.7731092436974732
2015-06-30,1.0
2015-07-01,1.0
2015-07-02,0.7035398230088509
2015-07-03,0.5855855855855877
2015-07-06,0.6392156862745129
2015-07-07,0.45098039215686236
2015-07-08,0.2592592592592586
2015-07-09,0.7020408163265281
2015-07-10,0.8372881355932178
2015-07-13,0.7794676806083637
2015-07-14,0.9600000000000016
2015-07-15,0.7060606060606083
2015-07-16,0.3716216216216252
2015-07-17,0.11864406779661256
2015-07-20,0.21630094043887385
2015-07-21,0.11643835616438418
2015-07-22,0.24669603524229122
2015-07-23,0.453333333333337
2015-07-24,0.8717948717948675
2015-07-27,0.8214285714285652
2015-07-28,0.9877300613496901
2015-07-29,0.9720279720279649
2015-07-30,0.9477611940298425
2015-07-31,0.9477611940298464
2015-08-03,0.9492753623188365
2015-08-04,0.09561841995029256
2015-08-05,0.33964613199018534
2015-08-06,0.3451998222640443
2015-08-07,0.4807816768228641
2015-08-10,0.33788290555276124
2015-08-11,0.6171433611239371
2015-08-12,0.34538405546464024
2015-08-13,0.3059246026461161
2015-08-14,0.09295301158792554
2015-08-17,0.13725490196077958
2015-08-18,0.0
2015-08-19,0.2824427480915977
2015-08-20,0.415929203539819
2015-08-21,0.4311926605504527
2015-08-24,0.6774193548387099
2015-08-25,0.8411764705882353
2015-08-26,0.8500000000000014
2015-08-27,0.7150000000000024
2015-08-28,0.8859315589353615
2015-08-31,0.7261410788381746
2015-09-01,0.5637860082304519
2015-09-02,0.3103448275862028
2015-09-07,0.37728937728937256
2015-09-08,0.04814814814814734
2015-09-09,0.13333333333333025
2015-09-10,0.22978723404255108
2015-09-11,0.36734693877550845
2015-09-14,0.29710144927535986
2015-09-15,0.8947368421052554
2015-09-16,0.598130841121496
2015-09-17,0.42307692307692507
2015-09-18,0.44444444444444925
2015-09-21,0.3826086956521791
2015-09-22,0.0
2015-09-23,0.0
2015-09-24,0.0
2015-09-25,0.08045977011494655
2015-09-28,0.4392523364486001
2015-09-29,0.6373626373626373
2015-09-30,0.8249999999999967
2015-10-08,1.0
2015-10-09,1.0
2015-10-12,1.0
2015-10-13,0.5638297872340431
2015-10-14,0.48387096774194127
2015-10-15,0.14084507042253275
2015-10-16,0.08988764044943909
2015-10-19,0.0
2015-10-20,0.0
2015-10-21,0.26470588235293546
2015-10-22,0.23684210526315605
2015-10-23,0.48648648648647813
2015-10-26,0.3272727272727235
2015-10-27,0.5684931506849339
2015-10-28,0.4710144927536247
2015-10-29,0.532786885245904
2015-10-30,0.3671875000000055
2015-11-02,0.6694915254237319
2015-11-03,0.6020408163265301
2015-11-04,0.6847826086956563
2015-11-05,0.7551020408163283
2015-11-06,1.0
2015-11-09,1.0
2015-11-10,0.4893617021276634
2015-11-11,0.5339805825242716
2015-11-12,0.6159999999999999
2015-11-13,0.48214285714285476
2015-11-16,0.42592592592592105
2015-11-17,0.8599999999999924
2015-11-18,0.7604166666666627
2015-11-19,0.4395604395604377
2015-11-20,0.7210884353741487
2015-11-23,0.822115384615386
2015-11-24,0.6093023255813966
2015-11-25,0.7222222222222214
2015-11-26,0.8395904436860065
2015-11-27,0.6527567577277688
2015-11-30,0.6344722442177904
2015-12-01,0.8083917581468236
2015-12-02,0.5816977347775583
2015-12-03,0.3898269446765914
2015-12-04,0.4870655683734089
2015-12-07,0.1468490563865185
2015-12-08,0.024540006529958656
2015-12-09,0.030919489894767224
2015-12-10,0.06153846153846226
2015-12-11,0.05555555555555637
2015-12-14,0.35483870967741277
2015-12-15,0.11999999999999773
2015-12-16,0.12244897959183629
2015-12-17,0.0545454545454508
2015-12-18,0.2499999999999981
2015-12-21,0.5263157894736847
2015-12-22,0.7818181818181851
2015-12-23,0.830188679245282
2015-12-24,0.97777777777778
2015-12-25,0.97777777777778
2015-12-28,0.7222222222222429
2015-12-29,0.31250000000000544
2015-12-30,0.43589743589744623
2015-12-31,0.3400000000000051
2016-01-04,0.6024096385542208
2016-01-05,0.5434782608695656
2016-01-06,0.6987951807228886
2016-01-07,0.6753246753246709
2016-01-08,0.8289473684210501
2016-01-11,0.36206896551723433
2016-01-12,0.3962264150943321
2016-01-13,0.6363636363636342
2016-01-14,0.4954128440366977
2016-01-15,0.4554455445544573
2016-01-18,0.7155963302752303
2016-01-19,0.6842105263157932
2016-01-20,0.29411764705882426
2016-01-21,0.6038961038961047
2016-01-22,0.6806282722513098
2016-01-25,0.49494949494949647
2016-01-26,0.5492227979274611
2016-01-27,0.7382550335570472
2016-01-28,0.5098039215686264
2016-01-29,0.11881188118811616
2016-02-01,0.2957746478873195
2016-02-02,0.18840579710144903
2016-02-03,0.12328767123287611
2016-02-04,0.09677419354838733
2016-02-05,0.15789473684210714
2016-02-15,0.2500000000000001
2016-02-16,0.2461538461538465
2016-02-17,0.5176470588235306
2016-02-18,0.5789473684210522
2016-02-19,0.5432098765432063
2016-02-22,0.25688073394495153
2016-02-23,0.37815126050419784
2016-02-24,0.182795698924729
2016-02-25,0.27027027027026984
2016-02-26,0.31343283582089515
2016-02-29,0.9375000000000048
2016-03-01,0.8666666666666777
2016-03-02,0.3250000000000044
2016-03-03,0.5781250000000033
2016-03-04,0.6250000000000037
2016-03-07,0.6931818181818207
2016-03-08,0.7857142857142876
2016-03-09,1.0
2016-03-10,1.0
2016-03-11,1.0
2016-03-14,0.9259259259259249
2016-03-15,0.5740740740740732
2016-03-16,0.20547945205479276
2016-03-17,0.12121212121212233
2016-03-18,0.13861386138613846
2016-03-21,0.24038461538461736
2016-03-22,0.44594594594594833
2016-03-23,0.5468750000000026
2016-03-24,1.0
2016-03-25,0.6434385368746692
2016-03-28,0.4250416880451505
2016-03-29,0.32313016505592546
2016-03-30,0.23427655629856084
2016-03-31,0.06983652832279745
2016-04-01,0.09170554803454686
2016-04-05,0.6629545080800457
2016-04-06,0.7112881806108907
2016-04-07,0.9380892294258503
2016-04-08,0.7044025157232755
2016-04-11,0.7696335078534065
2016-04-12,0.20408163265306264
2016-04-13,0.4192307692307705
2016-04-14,0.45683453237410065
2016-04-15,0.5447154471544694
2016-04-18,0.5130434782608677
2016-04-19,0.9752066115702495
2016-04-20,0.9729729729729747
2016-04-21,0.9769230769230786
2016-04-22,0.9872881355932213
2016-04-25,0.987012987012988
2016-04-26,1.0
2016-04-27,0.8083623693379776
2016-04-28,0.6713780918727911
2016-04-29,0.2779783393501802
2016-05-03,0.22661870503597034
2016-05-04,0.0
2016-05-05,0.0
2016-05-06,0.10747663551401927
2016-05-09,0.48148148148148123
2016-05-10,0.5519480519480525
2016-05-11,0.5312500000000002
2016-05-12,0.6746031746031769
2016-05-13,0.512396694214875
2016-05-16,0.056000000000002666
2016-05-17,0.0
2016-05-18,0.3304347826086956
2016-05-19,0.32203389830508455
2016-05-20,0.330434782608697
2016-05-23,0.4919786096256689
2016-05-24,0.8351648351648371
2016-05-25,0.4497041420118325
2016-05-26,0.6031746031746019
2016-05-27,0.7449392712550589
2016-05-30,0.7058823529411752
2016-05-31,0.6153846153846156
2016-06-01,0.9554140127388547
2016-06-02,0.7724137931034482
2016-06-03,0.28767123287671875
2016-06-06,0.5745614035087739
2016-06-07,0.4721189591078069
2016-06-08,0.29276315789473534
2016-06-13,0.5855263157894729
2016-06-14,0.6917098445595831
2016-06-15,0.6382978723404238
2016-06-16,0.7394366197183092
2016-06-17,0.9959016393442612
2016-06-20,0.28888888888889497
2016-06-21,0.4111111111111165
2016-06-22,0.21883656509695643
2016-06-23,0.27506426735218537
2016-06-24,0.2144846796657373
2016-06-27,0.5176470588235281
2016-06-28,0.3739130434782587
2016-06-29,0.8734939759036136
2016-06-30,0.8068965517241381
2016-07-01,0.8541666666666673
2016-07-04,0.731543624161071
2016-07-05,0.9191489361702107
2016-07-06,0.929629629629628
2016-07-07,0.9679144385026721
2016-07-08,0.9629629629629597
2016-07-11,0.9968051118210869
2016-07-12,0.829959514170042
2016-07-13,0.40659340659340776
2016-07-14,0.0
2016-07-15,0.0
2016-07-18,0.0
2016-07-19,0.0
2016-07-20,0.0
2016-07-21,0.042372881355939286
2016-07-22,0.4436619718309888
2016-07-25,0.5206611570247964
2016-07-26,0.31500000000000183
2016-07-27,0.4974358974358994
2016-07-28,0.4279069767441848
2016-07-29,0.17616580310880894
2016-08-01,0.1741233373639673
2016-08-02,0.31239930450318276
2016-08-03,0.0
2016-08-04,0.0
2016-08-05,0.0
2016-08-08,0.13484202702907178
2016-08-09,0.19195612431443917
2016-08-10,0.3158680152545153
2016-08-11,0.36588879285508513
2016-08-12,0.521739130434785
2016-08-15,0.2083333333333433
2016-08-16,0.05000000000000498
2016-08-17,0.35955056179775713
2016-08-18,0.5210084033613485
2016-08-19,0.7083333333333359
2016-08-22,0.8173076923076931
2016-08-23,1.0
2016-08-24,0.823899371069184
2016-08-25,0.7259259259259254
2016-08-26,0.5597014925373114
2016-08-29,0.5555555555555515
2016-08-30,0.0
2016-08-31,0.25766871165643884
2016-09-01,0.21761658031087894
2016-09-02,0.3350515463917527
2016-09-05,0.36000000000000276
2016-09-06,0.672268907563028
2016-09-07,0.3958333333333404
2016-09-08,0.7710843373494002
2016-09-09,0.6029411764705911
2016-09-12,0.45945945945945715
2016-09-13,0.3561643835616412
2016-09-14,0.4909090909090907
2016-09-19,0.025641025641038585
2016-09-20,0.021739130434794106
2016-09-21,0.573333333333336
2016-09-22,0.7058823529411796
2016-09-23,0.6344086021505366
2016-09-26,0.5673076923076962
2016-09-27,0.7872340425531916
2016-09-28,0.46308724832214593
2016-09-29,0.4366197183098585
2016-09-30,0.4161073825503358
2016-10-10,0.6024096385542149
2016-10-11,0.27906976744186096
2016-10-12,0.5316455696202572
2016-10-13,0.47435897435897656
2016-10-14,0.5822784810126596
2016-10-17,0.4029850746268693
2016-10-18,0.8947368421052629
2016-10-19,0.8678160919540217
2016-10-20,0.9344978165938865
2016-10-21,0.9369747899159666
2016-10-24,0.9957805907172992
2016-10-25,0.8512396694214902
2016-10-26,0.8650793650793678
2016-10-27,0.4946236559139806
2016-10-28,0.552380952380949
2016-10-31,0.5346534653465249
2016-11-01,0.4153846153846038
2016-11-02,0.47222222222221333
2016-11-03,0.4657534246575277
2016-11-04,0.1920529801324445
2016-11-07,0.4786324786324807
2016-11-08,0.5544554455445581
2016-11-09,0.4577114427860749
2016-11-10,0.7645259938837945
2016-11-11,0.8921568627451004
2016-11-14,0.8418604651162818
2016-11-15,0.9099099099099117
2016-11-16,0.9953917050691242
2016-11-17,0.3204419889502726
2016-11-18,0.2095808383233447
2016-11-21,0.1521739130434711
2016-11-22,0.0595744680851043
2016-11-23,0.0
2016-11-24,0.24503311258277966
2016-11-25,0.2587412587412573
2016-11-28,0.36274509803921895
2016-11-29,0.645454545454549
2016-11-30,0.8865585645572063
2016-12-01,0.6623214207629836
2016-12-02,0.7169733049134659
2016-12-05,0.7933398519843525
2016-12-06,0.6361211003864118
2016-12-07,0.1686256193984672
2016-12-08,0.44158254457509655
2016-12-09,0.30717782366804763
2016-12-12,0.25916704941506913
2016-12-13,0.29301075268817195
2016-12-14,0.5793650793650819
2016-12-15,0.15175097276265095
2016-12-16,0.23880597014926006
2016-12-19,0.35260115606937065
2016-12-20,0.5254237288135606
2016-12-21,0.39189189189189017
2016-12-22,0.6796874999999972
2016-12-23,0.6985294117647028
2016-12-26,0.7248322147650973
2016-12-27,0.2529411764705865
2016-12-28,0.4497354497354505
2016-12-29,0.5274725274725286
2016-12-30,0.4093264248704669
2017-01-03,0.25000000000000205
2017-01-04,0.5921787709497217
2017-01-05,0.3595505617977533
2017-01-06,0.4571428571428555
2017-01-09,0.4615384615384603
2017-01-10,0.5939393939393921
2017-01-11,0.49624060150375815
2017-01-12,0.7777777777777787
2017-01-13,0.6400000000000061
2017-01-16,0.9863013698630159
2017-01-17,0.9938271604938281
2017-01-18,0.5857740585774064
2017-01-19,0.48728813559321826
2017-01-20,0.4197080291970783
2017-01-23,0.38610038610038566
2017-01-24,0.03571428571428768
2017-01-25,0.13690476190476605
2017-01-26,0.14197530864198007
2017-02-03,0.371069182389941
2017-02-06,0.28571428571428714
2017-02-07,0.4385964912280711
2017-02-08,0.31578947368420907
2017-02-09,0.34951456310679524
2017-02-10,0.0
2017-02-13,0.4885844748858433
2017-02-14,0.589861751152073
2017-02-15,0.6710526315789475
2017-02-16,0.6860986547085196
2017-02-17,1.0
2017-02-20,0.46363636363636423
2017-02-21,0.38207547169811173
2017-02-22,0.29629629629629545
2017-02-23,0.35748792270531304
2017-02-24,0.1635220125786173
2017-02-27,0.7115384615384583
2017-02-28,0.9729729729729765
2017-03-01,0.7741935483870946
2017-03-02,0.5454545454545459
2017-03-03,0.33576642335766504
2017-03-06,0.26119402985074724
2017-03-07,0.0
2017-03-08,0.24999999999999928
2017-03-09,0.3055555555555541
2017-03-10,0.46478873239435614
2017-03-13,0.5714285714285633
2017-03-14,0.606060606060608
2017-03-15,0.12068965517241995
2017-03-16,0.4950495049504978
2017-03-17,0.5050505050505111
2017-03-20,0.6524822695035489
2017-03-21,0.7793103448275877
2017-03-22,0.9426229508196727
2017-03-23,0.6206896551724148
2017-03-24,0.7318840579710152
2017-03-27,0.3636363636363668
2017-03-28,0.5000000000000012
2017-03-29,0.46596858638743344
2017-03-30,0.664948453608244
2017-03-31,0.6198830409356684
2017-04-05,0.9281045751633938
2017-04-06,0.44086021505375844
2017-04-07,0.5053191489361684
2017-04-10,0.44970414201183767
2017-04-11,0.4022988505747165
2017-04-12,0.19318181818182317
2017-04-13,0.6179113370938311
2017-04-14,0.5127644975827561
2017-04-17,0.35508066289507034
2017-04-18,0.4207069555302174
2017-04-19,0.7875679784426385
2017-04-20,0.724578834058716
2017-04-21,0.8242912341138637
2017-04-24,0.8723838240510814
2017-04-25,0.8688572730494658
2017-04-26,0.18965517241378607
2017-04-27,0.06870229007633091
2017-04-28,0.22784810126582822
2017-05-02,0.222222222222228
2017-05-03,0.2631578947368446
2017-05-04,0.45000000000000284
2017-05-05,0.41666666666666985
2017-05-08,0.6769230769230766
2017-05-09,0.7734806629834229
2017-05-10,0.6057692307692295
2017-05-11,0.657777777777779
2017-05-12,0.8056872037914707
2017-05-15,0.24880382775119733
2017-05-16,0.3053097345132807
2017-05-17,0.3729729729729781
2017-05-18,0.2554347826086984
2017-05-19,0.20809248554913615
2017-05-22,0.7123287671232809
2017-05-23,0.25714285714285756
2017-05-24,0.23684210526315977
2017-05-25,0.22689075630252464
2017-05-26,0.435582822085891
2017-05-31,0.36184210526315697
2017-06-01,0.8373983739837388
2017-06-02,0.8872727272727268
2017-06-05,0.9820788530465938
2017-06-06,0.8390804597701121
2017-06-07,0.7577854671280254
2017-06-08,0.26356589147287024
2017-06-09,0.12096774193548429
2017-06-12,0.05217391304347896
2017-06-13,0.04878048780487887
2017-06-14,0.053571428571429526
2017-06-15,0.22689075630251698
2017-06-16,0.412844036697241
2017-06-19,0.34020618556699844
2017-06-20,0.8450704225352007
2017-06-21,0.9999999999999938
2017-06-22,0.8842105263157884
2017-06-23,0.9098360655737705
2017-06-26,0.9411764705882384
2017-06-27,0.935294117647062
2017-06-28,0.8571428571428651
2017-06-29,0.7843137254901988
2017-06-30,0.5514705882352948
2017-07-03,0.06944444444444457
2017-07-04,0.44855967078189246
2017-07-05,0.4680851063829756
2017-07-06,0.6892307692307675
2017-07-07,0.7582781456953637
2017-07-10,1.0
2017-07-11,0.5637583892617457
2017-07-12,0.6242774566473999
2017-07-13,0.2849162011173196
2017-07-14,0.31367292225201115
2017-07-17,0.20909090909090838
2017-07-18,0.39351851851851805
2017-07-19,0.15789473684210606
2017-07-20,0.5
2017-07-21,0.24731182795699078
2017-07-24,0.21296296296296494
2017-07-25,0.25110132158590115
2017-07-26,0.5321888412017163
2017-07-27,0.4519230769230764
2017-07-28,0.8139534883720946
2017-07-31,0.9785407725321901
2017-08-01,0.8340248962655624
2017-08-02,0.5654008438818594
2017-08-03,0.5073071895665844
2017-08-04,0.42613879160215806
2017-08-07,0.24957771740417026
2017-08-08,0.3753256566882922
2017-08-09,0.8221703075725677
2017-08-10,0.9942988857618202
2017-08-11,0.8273598640085487
2017-08-14,0.6623936614594111
2017-08-15,0.6613257876144485
2017-08-16,0.20588235294117763
2017-08-17,0.18181818181818055
2017-08-18,0.14999999999999866
2017-08-21,0.31914893617021134
2017-08-22,0.24595469255663396
2017-08-23,0.6330275229357786
2017-08-24,0.5811688311688292
2017-08-25,0.8062015503875956
2017-08-28,0.645161290322579
2017-08-29,0.78733031674208
2017-08-30,0.3282442748091616
2017-08-31,0.2866666666666682
2017-09-01,0.097222222222225
2017-09-04,0.11382113821138524
2017-09-05,0.23239436619718393
2017-09-06,0.1658291457286428
2017-09-07,0.42016806722688954
2017-09-08,0.47963800904977305
2017-09-11,0.5355450236966826
2017-09-12,0.39024390243902446
2017-09-13,0.8516483516483505
2017-09-14,0.48888888888888815
2017-09-15,0.4530386740331471
2017-09-18,0.44067796610169196
2017-09-19,0.4382022471910089
2017-09-20,0.015544041450776609
2017-09-21,0.6019108280254781
2017-09-22,0.6277602523659296
2017-09-25,0.6335403726708065
2017-09-26,0.7160883280757093
2017-09-27,1.0
2017-09-28,0.4108108108108094
2017-09-29,0.3251231527093649
2017-10-09,0.4017467248908352
2017-10-10,0.3598130841121518
2017-10-11,0.3349514563106801
2017-10-12,0.35384615384615525
2017-10-13,0.4431818181818161
2017-10-16,0.2189054726368119
2017-10-17,0.18652849740932517
2017-10-18,0.04306220095693608
2017-10-19,0.30136986301369534
2017-10-20,0.24999999999999878
2017-10-23,0.3723404255319164
2017-10-24,0.3500000000000023
2017-10-25,0.5147058823529514
2017-10-26,0.0
2017-10-27,0.477777777777783
2017-10-30,0.6599999999999996
2017-10-31,0.540983606557372
2017-11-01,0.6999999999999946
2017-11-02,0.7446808510638255
2017-11-03,0.37804878048779894
2017-11-06,0.25827814569536217
2017-11-07,0.40425531914893775
2017-11-08,0.13636363636364054
2017-11-09,0.18461538461538743
2017-11-10,0.5698924731182897
2017-11-13,0.5047619047619094
2017-11-14,0.33018867924528394
2017-11-15,0.609523809523806
2017-11-16,0.6203703703703708
2017-11-17,0.5899999999999986
2017-11-20,0.8272727272727262
2017-11-21,1.0
2017-11-22,1.0
2017-11-23,0.8043478260869524
2017-11-24,0.4774774774774803
2017-11-27,0.22105263157894978
2017-11-28,0.18085106382978702
2017-11-29,0.0
2017-11-30,0.4861111111111125
2017-12-01,0.7577858958293489
2017-12-04,0.8655307775828949
2017-12-05,0.9527331031119056
2017-12-06,0.9697159490689259
2017-12-07,0.9349575858156159
2017-12-08,0.7906699343948441
2017-12-11,0.7833524735486375
2017-12-12,0.004751043421341884
2017-12-13,0.14829165896548735
2017-12-14,0.12237762237761976
2017-12-15,0.26262626262625915
2017-12-18,0.24444444444444158
2017-12-19,0.5879120879120824
2017-12-20,0.36868686868686634
2017-12-21,0.6270270270270272
2017-12-22,0.37244897959183804
2017-12-25,0.46938775510204467
2017-12-26,0.31155778894472763
2017-12-27,0.3850931677018679
2017-12-28,0.13194444444444775
2017-12-29,0.34259259259259434
2018-01-02,0.14285714285714146
2018-01-03,0.35344827586206684
2018-01-04,0.44736842105262514
2018-01-05,0.4249999999999952
2018-01-08,0.520833333333332
2018-01-09,0.5905511811023567
2018-01-10,0.41269841269841007
2018-01-11,0.29577464788732544
2018-01-12,0.5466666666666685
2018-01-15,0.2395209580838335
2018-01-16,0.4216216216216255
2018-01-17,0.45882352941176635
2018-01-18,0.6024096385542153
2018-01-19,0.39473684210525933
2018-01-22,0.7461538461538412
2018-01-23,0.5042735042735003
2018-01-24,0.6136363636363621
2018-01-25,0.5641025641025662
2018-01-26,0.6804123711340289
2018-01-29,0.5156250000000075
2018-01-30,0.702127659574479
2018-01-31,0.354838709677424
2018-02-01,0.10256410256409798
2018-02-02,0.36956521739130055
2018-02-05,0.45283018867924557
2018-02-06,0.6315789473684238
2018-02-07,0.692307692307694
2018-02-08,0.9736842105263104
2018-02-09,0.9749999999999951
2018-02-12,0.6666666666666666
2018-02-13,0.5757575757575746
2018-02-14,0.7678571428571465
2018-02-22,0.8115942028985562
2018-02-23,0.8645833333333365
2018-02-26,0.7545454545454541
2018-02-27,0.7610619469026555
2018-02-28,0.48437500000000155
2018-03-01,0.4102564102564083
2018-03-02,0.05128205128205576
2018-03-05,0.2881355932203401
2018-03-06,0.42465753424657016
2018-03-07,0.6691176470588198
2018-03-08,0.6363636363636368
2018-03-09,0.903846153846156
2018-03-12,0.8809523809523842
2018-03-13,0.3883495145631101
2018-03-14,0.1145833333333377
2018-03-15,0.11458333333333698
2018-03-16,0.06504065040650697
2018-03-19,0.3947368421052586
2018-03-20,0.6477272727272688
2018-03-21,0.7452229299363011
2018-03-22,0.8265895953757207
2018-03-23,1.0
2018-03-26,0.7603305785123983
2018-03-27,0.7276995305164343
2018-03-28,0.7510729613733921
2018-03-29,0.8033898305084746
2018-03-30,0.6173469387755087
2018-04-02,0.8917197452229287
2018-04-03,0.7602339181286538
2018-04-04,0.6604938271604947
2018-04-09,0.15200000000000052
2018-04-10,0.09431606856806185
2018-04-11,0.0
2018-04-12,0.0
2018-04-13,0.03292826583745975
2018-04-16,0.03425097976485367
2018-04-17,0.21817203966521517
2018-04-18,0.576096283985616
2018-04-19,0.6702444177107494
2018-04-20,0.5483117378452563
2018-04-23,0.8366013071895415
2018-04-24,0.7983870967741923
2018-04-25,0.367647058823526
2018-04-26,0.3768115942028936
2018-04-27,0.523437499999998
2018-05-02,0.4299065420560751
2018-05-03,0.31343283582089626
2018-05-04,0.5600000000000082
2018-05-07,0.5975609756097653
2018-05-08,0.386363636363639
2018-05-09,0.17391304347826453
2018-05-10,0.3076923076923143
2018-05-11,0.4487179487179456
2018-05-14,0.21348314606740865
2018-05-15,0.6689189189189193
2018-05-16,0.6556291390728434
2018-05-17,0.5937499999999976
2018-05-18,0.7186147186147184
2018-05-21,0.827272727272727
2018-05-22,0.7724550898203582
2018-05-23,0.9166666666666689
2018-05-24,1.0
2018-05-25,0.4634146341463396
2018-05-28,0.5285714285714251
2018-05-29,0.22815533980582509
2018-05-30,0.1761658031088067
2018-05-31,0.2205882352941164
2018-06-01,0.29220779220779247
2018-06-04,0.07228915662650764
2018-06-05,0.38383838383838836
2018-06-06,0.27205882352941346
2018-06-07,0.3125000000000003
2018-06-08,0.522988505747124
2018-06-11,0.6740740740740736
2018-06-12,0.4276315789473671
2018-06-13,0.7500000000000024
2018-06-14,0.609523809523812
2018-06-15,0.38317757009346165
2018-06-19,0.5384615384615401
2018-06-20,0.6981818181818193
2018-06-21,0.4583333333333317
2018-06-22,0.5288461538461515
2018-06-25,0.7055214723926329
2018-06-26,0.29239766081870794
2018-06-27,0.03496503496503084
2018-06-28,0.03623188405796692
2018-06-29,0.2666666666666645
2018-07-02,0.4961832061068709
2018-07-03,0.7005076142132003
2018-07-04,0.75409836065574
2018-07-05,0.9790209790209808
2018-07-06,0.702898550724641
2018-07-09,0.07692307692308185
2018-07-10,0.01428571428571614
2018-07-11,0.21965317919075403
2018-07-12,0.20571428571428646
2018-07-13,0.2733812949640273
2018-07-16,0.5277777777777771
2018-07-17,0.8367346938775478
2018-07-18,0.3679999999999925
2018-07-19,0.5738636363636336
2018-07-20,0.5945945945945931
2018-07-23,0.6802030456852766
2018-07-24,0.5555555555555547
2018-07-25,0.89108910891089
2018-07-26,0.5737704918032837
2018-07-27,0.6578947368421099
2018-07-30,0.3421052631578988
2018-07-31,0.28888888888889247
2018-08-01,0.48760330578512767
2018-08-02,0.45384615384615284
2018-08-03,0.5234899328859046
2018-08-06,0.6569343065693417
2018-08-07,0.7974191931846629
2018-08-08,0.8707867493346828
2018-08-09,1.0
2018-08-10,0.7412833982863395
2018-08-13,0.7650843679802207
2018-08-14,0.8134873491911606
2018-08-15,0.41695707563550516
2018-08-16,0.4586483874444175
2018-08-17,0.49803887149228504
2018-08-20,0.4210526315789432
2018-08-21,0.19634703196346762
2018-08-22,0.3644067796610139
2018-08-23,0.0
2018-08-24,0.1293103448275876
2018-08-27,0.10489510489510573
2018-08-28,0.4125874125874123
2018-08-29,0.439189189189187
2018-08-30,0.676190476190474
2018-08-31,0.4628099173553707
2018-09-03,0.6516853932584266
2018-09-04,0.13207547169811354
2018-09-05,0.06557377049180468
2018-09-06,0.01273885350318298
2018-09-07,0.046153846153844665
2018-09-10,0.030534351145038875
2018-09-11,0.35294117647059314
2018-09-12,0.49425287356322073
2018-09-13,0.9538461538461638
2018-09-14,0.9662921348314679
2018-09-17,1.0
2018-09-18,0.7391304347826021
2018-09-19,0.7735849056603743
2018-09-20,0.8167938931297685
2018-09-21,0.5486111111111086
2018-09-25,0.5075757575757566
2018-09-26,0.6403508771929834
2018-09-27,0.4952380952380971
2018-09-28,0.06666666666666794
2018-10-08,0.4083333333333349
2018-10-09,0.4274193548387141
2018-10-10,0.5965909090909105
2018-10-11,0.7500000000000007
2018-10-12,1.0
2018-10-15,1.0
2018-10-16,1.0
2018-10-17,0.8910891089108908
2018-10-18,0.1782178217821773
2018-10-19,0.35156249999999994
2018-10-22,0.2753623188405775
2018-10-23,0.23899371069182218
2018-10-24,0.217142857142856
2018-10-25,0.36893203883495185
2018-10-26,0.4921875000000032
2018-10-29,0.5752212389380553
2018-10-30,0.801470588235296
2018-10-31,1.0
2018-11-01,1.0
2018-11-02,0.5584415584415547
2018-11-05,0.6512820512820487
2018-11-06,0.42131979695431226
2018-11-07,0.3804347826086978
2018-11-08,0.2901234567901241
2018-11-09,0.43925233644859984
2018-11-12,0.04597701149425967
2018-11-13,0.1956521739130555
2018-11-14,0.6372549019607778
2018-11-15,0.5963302752293581
2018-11-16,0.7155963302752302
2018-11-19,0.7572815533980619
2018-11-20,0.8226950354609949
2018-11-21,0.7706422018348666
2018-11-22,0.8155339805825276
2018-11-23,0.7395833333333329
2018-11-26,0.9448275862068956
2018-11-27,0.6482758620689653
2018-11-28,0.306976744186045
2018-11-29,0.3437499999999983
2018-11-30,0.5035211267605629
2018-12-03,0.2873134328358221
2018-12-04,0.3480176211453768
2018-12-05,0.5724637681159477
2018-12-06,0.5037037037037086
2018-12-07,0.016949152542375546
2018-12-10,0.021879270857388756
2018-12-11,0.30110027311744386
2018-12-12,0.2664064102766446
2018-12-13,0.2385457384441763
2018-12-14,0.3796757925761492
2018-12-17,0.45527331143590755
2018-12-18,0.0722146749500074
2018-12-19,0.14513982954340768
2018-12-20,0.4296737134007989
2018-12-21,0.19318181818182134
2018-12-24,0.43801652892562026
2018-12-25,0.5096153846153868
2018-12-26,0.5526315789473721
2018-12-27,0.4757281553398083
2018-12-28,0.671232876712331
2019-01-02,0.4000000000000073
2019-01-03,0.5483870967742006
2019-01-04,0.16666666666666616
2019-01-07,0.7258064516129034
2019-01-08,0.9130434782608692
2019-01-09,0.5405405405405362
2019-01-10,0.5267857142857078
2019-01-11,0.5462962962962895
2019-01-14,0.3287671232876626
2019-01-15,0.09090909090908941
2019-01-16,0.3749999999999924
2019-01-17,0.3333333333333333
2019-01-18,0.44827586206895637
2019-01-21,0.17499999999998805
2019-01-22,0.7755102040816287
2019-01-23,0.7156862745098006
2019-01-24,0.789473684210523
2019-01-25,0.6935483870967728
2019-01-28,0.6056338028169028
2019-01-29,0.16346153846153827
2019-01-30,0.2079207920792078
2019-01-31,0.042105263157894895
2019-02-01,0.048780487804878495
2019-02-11,0.6971830985915526
2019-02-12,0.6387096774193559
2019-02-13,0.6564417177914109
2019-02-14,0.7204968944099378
2019-02-15,0.7608695652173892
2019-02-18,0.25139664804469014
2019-02-19,0.41935483870967744
2019-02-20,0.3354430379746866
2019-02-21,0.37500000000000466
2019-02-22,0.23214285714286212
2019-02-25,0.5411764705882408
2019-02-26,0.5568181818181824
2019-02-27,0.6533333333333313
2019-02-28,0.39999999999998703
2019-03-01,0.637931034482739
2019-03-04,0.7666666666666573
2019-03-05,0.4423076923076904
2019-03-06,0.6137931034482763
2019-03-07,0.7131782945736503
2019-03-08,0.6991869918699273
2019-03-11,0.41964285714286886
2019-03-12,0.6266666666666763
2019-03-13,0.0952380952381157
2019-03-14,0.022222222222222462
2019-03-15,0.0
2019-03-18,0.4999999999999936
2019-03-19,0.6481481481481416
2019-03-20,0.43749999999998784
2019-03-21,0.38043478260868724
2019-03-22,0.5263157894736757
2019-03-25,0.28873239436619275
2019-03-26,0.38036809815950884
2019-03-27,0.45925925925926125
2019-03-28,0.5600000000000017
2019-03-29,0.4285714285714292
2019-04-01,0.8773584905660354
2019-04-02,0.43410852713178555
2019-04-03,0.5289855072463799
2019-04-04,0.5038167938931352
2019-04-08,0.4861102118597436
2019-04-09,0.1696934131307407
2019-04-10,0.48323923396848567
2019-04-11,0.597979041916163
2019-04-12,0.6426728921656025
2019-04-15,0.7600554439408719
2019-04-16,0.728424471470449
2019-04-17,0.6053051732815021
2019-04-18,0.25345398073465586
2019-04-19,0.17567567567566916
2019-04-22,0.3146067415730274
2019-04-23,0.4444444444444293
2019-04-24,0.6206896551723968
2019-04-25,0.6666666666666631
2019-04-26,0.6949152542372878
2019-04-29,0.178947368421055
2019-04-30,0.4868421052631613
2019-05-06,0.5517241379310382
2019-05-07,0.6319018404908007
2019-05-08,0.5251396648044727
2019-05-09,0.8287671232876718
2019-05-10,0.4353741496598654
2019-05-13,0.24817518248174986
2019-05-14,0.2642857142857107
2019-05-15,0.39062499999999545
2019-05-16,0.41353383458646725
2019-05-17,0.8437499999999997
2019-05-20,1.0
2019-05-21,0.9389312977099217
2019-05-22,0.9436619718309845
2019-05-23,0.6538461538461541
2019-05-24,0.5384615384615432
2019-05-27,0.33043478260870274
2019-05-28,0.40517241379311086
2019-05-29,0.6600985221674894
2019-05-30,0.8743169398907102
2019-05-31,0.7156862745098016
2019-06-03,0.8167539267015684
2019-06-04,0.8387096774193535
2019-06-05,0.2851405622489975
2019-06-06,0.19650655021834365
2019-06-10,0.36864406779661324
2019-06-11,0.3817427385892159
2019-06-12,0.22983870967742076
2019-06-13,0.6065573770491803
2019-06-14,0.5873015873015873
2019-06-17,0.190476190476193
2019-06-18,0.10625000000000054
2019-06-19,0.1721311475409851
2019-06-20,0.04716981132075434
2019-06-21,0.40522875816993326
2019-06-24,0.9539473684210508
2019-06-25,0.8479532163742676
2019-06-26,0.7540106951871629
2019-06-27,0.7999999999999974
2019-06-28,0.6381909547738679
2019-07-01,0.3492063492063473
2019-07-02,0.5555555555555556
2019-07-03,0.6974789915966428
2019-07-04,0.3170731707317139
2019-07-05,0.3679245283018912
2019-07-08,0.30000000000000304
2019-07-09,0.3851351351351347
2019-07-10,0.32592592592592123
2019-07-11,0.6260869565217279
2019-07-12,0.7655172413793044
2019-07-15,0.9999999999999959
2019-07-16,0.6929133858267683
2019-07-17,0.6929133858267713
2019-07-18,0.7562500000000011
2019-07-19,0.7153284671532839
2019-07-22,0.5273972602739694
2019-07-23,0.6695652173913005
2019-07-24,0.744966442953018
2019-07-25,0.2808988764044913
2019-07-26,0.3663366336633668
2019-07-29,0.4842105263157898
2019-07-30,0.5588235294117656
2019-07-31,0.40609137055837596
2019-08-01,0.8000000000000008
2019-08-02,0.40000000000000413
2019-08-05,0.5659574468085136
2019-08-06,0.5931920554865857
2019-08-07,0.709847254360985
2019-08-08,0.7684424774046922
2019-08-09,0.9867468883688992
2019-08-12,0.6614554668868086
2019-08-13,0.4823859531392462
2019-08-14,0.341874135000446
2019-08-15,0.0
2019-08-16,0.0
2019-08-19,0.13991769547325017
2019-08-20,0.15111111111110984
2019-08-21,0.35064935064935027
2019-08-22,0.40298507462686467
2019-08-23,0.6830188679245286
2019-08-26,0.5364963503649659
2019-08-27,0.6690140845070458
2019-08-28,0.6479400749063701
2019-08-29,0.8138528138528166
2019-08-30,0.4190476190476198
2019-09-02,0.5611111111111091
2019-09-03,0.5485714285714243
2019-09-04,0.35675675675675317
2019-09-05,0.31609195402298473
2019-09-06,0.7484276729559741
2019-09-09,0.6309523809523787
2019-09-10,0.3636363636363628
2019-09-11,0.35233160621761567
2019-09-12,0.4239631336405538
2019-09-16,0.21875000000000508
2019-09-17,0.40462427745664986
2019-09-18,0.5785123966942183
2019-09-19,0.9418604651162807
2019-09-20,0.6463414634146258
2019-09-23,0.3333333333333227
2019-09-24,0.06874999999999316
2019-09-25,0.19999999999999452
2019-09-26,0.19101123595505964
2019-09-27,0.24050632911392814
2019-09-30,0.46226415094340456
2019-10-08,1.0
2019-10-09,0.8709677419354821
2019-10-10,0.8983050847457605
2019-10-11,0.8717948717948734
2019-10-14,0.7165354330708712
2019-10-15,0.3541666666666673
2019-10-16,0.39534883720930836
2019-10-17,0.0
2019-10-18,0.0
2019-10-21,0.4148148148148109
2019-10-22,0.5350877192982479
2019-10-23,0.6964285714285693
2019-10-24,0.8731343283582141
2019-10-25,0.994764397905763
2019-10-28,0.8701298701298782
2019-10-29,0.7456647398843979
2019-10-30,0.47096774193548996
2019-10-31,0.5290697674418627
2019-11-01,0.43356643356643354
2019-11-04,0.5079365079365067
2019-11-05,0.6724137931034488
2019-11-06,1.0
2019-11-07,0.8163265306122421
2019-11-08,0.23841059602649378
2019-11-11,0.37158469945355366
2019-11-12,0.2887700534759375
2019-11-13,0.1650485436893192
2019-11-14,0.2701421800947878
2019-11-15,0.512820512820508
2019-11-18,0.2736842105263115
2019-11-19,0.47959183673468897
2019-11-20,0.860465116279062
2019-11-21,0.8461538461538359
2019-11-22,0.8441558441558351
2019-11-25,0.4391891891891912
2019-11-26,0.3437499999999999
2019-11-27,0.34883720930233325
2019-11-28,0.2290076335877949
2019-11-29,0.18666666666667414
2019-12-02,0.6517857142857216
2019-12-03,0.6699346473266649
2019-12-04,0.3233156714993491
2019-12-05,0.3134941756601289
2019-12-06,0.3622334039547934
2019-12-09,0.5662967538681111
2019-12-10,0.5925963102227875
2019-12-11,0.857794033568031
2019-12-12,0.8665929235049227
2019-12-13,0.882987095726477
2019-12-16,0.20297029702970804
2019-12-17,0.10917030567685963
2019-12-18,0.2183908045977035
2019-12-19,0.25702811244979984
2019-12-20,0.32971014492753453
2019-12-23,0.7074829931972799
2019-12-24,1.0
2019-12-25,0.6982248520710038
2019-12-26,0.6646706586826349
2019-12-27,0.4604316546762597
2019-12-30,0.4094488188976373
2019-12-31,0.008064516129031975
2020-01-02,0.3898305084745805
2020-01-03,0.5472972972972997
2020-01-06,0.6571428571428577
2020-01-07,0.6883116883116903
2020-01-08,1.0
2020-01-09,1.0
2020-01-10,0.8070175438596512
2020-01-13,0.4605263157894762
2020-01-14,0.21052631578946915
2020-01-15,0.29245283018867724
2020-01-16,0.29906542056074187
2020-01-17,0.2857142857142796
2020-01-20,0.6323529411764668
2020-01-21,0.8490566037735855
2020-01-22,0.8873239436619728
2020-01-23,0.6436781609195429
2020-02-03,0.560000000000002
2020-02-04,0.6764705882352946
2020-02-05,0.7232704402515722
2020-02-06,0.5866666666666648
2020-02-07,0.7078651685393236
2020-02-10,0.8881987577639733
2020-02-11,0.4289544235924921
2020-02-12,0.3446153846153849
2020-02-13,0.3648208469055387
2020-02-14,0.31132075471698156
2020-02-17,0.0836820083682035
2020-02-18,0.24096385542169257
2020-02-19,0.3636363636363631
2020-02-20,0.5673076923076896
2020-02-21,0.8235294117647061
2020-02-24,0.5839416058394158
2020-02-25,0.723076923076923
2020-02-26,0.44444444444444686
2020-02-27,0.5388349514563131
2020-02-28,0.4114285714285731
2020-03-02,0.7008928571428581
2020-03-03,0.7462121212121227
2020-03-04,0.9693486590038315
2020-03-05,0.679442508710801
2020-03-06,0.6914893617021278
2020-03-09,0.5092592592592623
2020-03-10,0.26666666666666616
2020-03-11,0.02531645569620398
2020-03-12,0.5104895104895116
2020-03-13,0.6318681318681314
2020-03-16,0.5066079295154156
2020-03-17,0.6020942408376962
2020-03-18,0.6846473029045639
2020-03-19,0.5161290322580636
2020-03-20,0.3461538461538463
2020-03-23,0.7054263565891505
2020-03-24,0.7833333333333354
2020-03-25,0.24242424242424443
2020-03-26,0.2580645161290341
2020-03-27,0.24539877300613602
2020-03-30,0.018072289156628292
2020-03-31,0.0
2020-04-01,0.0
2020-04-02,0.0
2020-04-03,0.0
2020-04-07,0.3219178082191836
2020-04-08,0.5616438356164447
2020-04-09,0.6989247311828001
2020-04-10,0.921985815602836
2020-04-13,0.9514554809155076
2020-04-14,0.6880674273015499
2020-04-15,0.7182071018665382
2020-04-16,0.6018102894073569
2020-04-17,0.664047000956412
2020-04-20,0.42888493202887995
2020-04-21,0.5904247621115075
2020-04-22,0.1618705406323685
2020-04-23,0.25100190062449523
2020-04-24,0.20754716981132101
2020-04-27,0.14864864864864974
2020-04-28,0.1986301369862966
2020-04-29,0.2132352941176423
2020-04-30,0.14492753623187585
2020-05-06,0.05263157894736164
2020-05-07,0.0933333333333217
2020-05-08,0.0
2020-05-11,0.2898550724637675
2020-05-12,0.3124999999999961
2020-05-13,0.24999999999999986
2020-05-14,0.47058823529412197
2020-05-15,0.563380281690145
2020-05-18,0.27027027027027617
2020-05-19,0.36842105263159025
2020-05-20,0.5636363636363751
2020-05-21,0.22916666666667398
2020-05-22,0.2291666666666687
2020-05-25,0.7083333333333242
2020-05-26,0.4406779661016905
2020-05-27,0.4923076923076828
2020-05-28,0.8054730108720226
2020-05-29,0.7540274829627992
2020-06-01,0.5210791859073023
2020-06-02,0.6378134651019157
2020-06-03,0.43502086913823085
2020-06-04,0.03128934230518731
2020-06-05,0.12182460908058056
2020-06-08,0.41513060957640935
2020-06-09,0.309792924598308
2020-06-10,0.5624999999999983
2020-06-11,0.6324324324324319
2020-06-12,0.6494845360824755
2020-06-15,0.5052701054691164
2020-06-16,0.723726810649353
2020-06-17,0.2998369299989294
2020-06-18,0.6718147292187352
2020-06-19,0.4683310062960597
2020-06-22,0.4367128352682242
2020-06-23,0.39002994074372255
2020-06-24,0.45102632323076364
2020-06-29,0.0
2020-06-30,0.0
2020-07-01,0.0
2020-07-02,0.0
2020-07-03,0.0
2020-07-06,0.0
2020-07-07,0.03846153846154003
2020-07-08,0.044642857142858906
2020-07-09,0.5629139072847712
2020-07-10,0.6052631578947392
2020-07-13,0.8675496688741758
2020-07-14,0.9033816425120799
2020-07-15,1.0
2020-07-16,0.7035175879396917
2020-07-17,0.7177033492822936
2020-07-20,0.7230046948356753
2020-07-21,0.5195530726256915
2020-07-22,0.37735849056603665
2020-07-23,0.5769230769230886
2020-07-24,0.5164835164835195
2020-07-27,0.5686274509804032
2020-07-28,0.7926829268292935
2020-07-29,0.9420289855072673
2020-07-30,1.0
2020-07-31,0.8403361344537786
2020-08-03,0.3484848484848438
2020-08-04,0.24223602484471554
2020-08-05,0.2407407407407353
2020-08-06,0.15172413793103287
2020-08-07,0.5336322869955108
2020-08-10,0.6432432432432418
2020-08-11,0.8529411764705888
2020-08-12,0.8840000000000013
2020-08-13,0.6933797909407671
2020-08-14,0.40637450199203357
2020-08-17,0.45511727278983727
2020-08-18,0.20474149251835025
2020-08-19,0.0
2020-08-20,0.2708082988464684
2020-08-21,0.3148102271328783
2020-08-24,0.2633868396842043
2020-08-25,0.36027824725447666
2020-08-26,0.49122010501040103
2020-08-27,0.10193131023556652
2020-08-28,0.12295081967213126
2020-08-31,0.28999999999999443
2020-09-01,0.26363636363635934
2020-09-02,0.31932773109243406
2020-09-03,0.7500000000000067
2020-09-04,0.861386138613863
2020-09-07,0.8426966292134859
2020-09-08,1.0
2020-09-09,0.8732394366197197
2020-09-10,0.6305732484076437
2020-09-11,0.5172413793103448
2020-09-14,0.5512820512820535
2020-09-15,0.11111111111111592
2020-09-16,0.07784431137724883
2020-09-17,0.19718309859155225
2020-09-18,0.19444444444444767
2020-09-21,0.4170854271356769
2020-09-22,0.6344499515752273
2020-09-23,0.9144825432758911
2020-09-24,0.9071393757019631
2020-09-25,1.0
2020-09-28,0.5252312003736572
2020-09-29,0.16324087691097608
2020-09-30,0.16797877948003584
2020-10-09,0.2324873733412858
2020-10-12,0.1356356686218978
2020-10-13,0.3134328358208994
2020-10-14,0.583333333333339
2020-10-15,0.6938775510204096
2020-10-16,0.44954128440366903
2020-10-19,0.5966386554621855
2020-10-20,0.4408808696328864
2020-10-21,0.5184432965229205
2020-10-22,0.19112454563458273
2020-10-23,0.5187026632292058
2020-10-26,0.4950423445888174
2020-10-27,0.47301282138995965
2020-10-28,0.6757312575777983
2020-10-29,0.8604428623589323
2020-10-30,0.689161902683567
2020-11-02,0.5645161290322603
2020-11-03,0.7711598746081536
2020-11-04,0.45367412140575175
2020-11-05,0.33438485804416596
2020-11-06,0.3693379790940776
2020-11-09,0.4173228346456695
2020-11-10,0.0
2020-11-11,0.0
2020-11-12,0.24719101123595624
2020-11-13,0.2619047619047639
2020-11-16,0.2244897959183696
2020-11-17,0.31884057971015517
2020-11-18,0.32352941176471195
2020-11-19,0.22033898305084623
2020-11-20,0.23728813559320616
2020-11-23,0.6447368421052608
2020-11-24,0.7313432835820718
2020-11-25,0.7903225806451608
2020-11-26,0.4615384615384571
2020-11-27,0.4750000000000057
2020-11-30,0.5625000000000057
2020-12-01,0.6969696969697077
2020-12-02,0.7433628318584107
2020-12-03,1.0
2020-12-04,0.7364864864864878
2020-12-07,0.43609022556391275
2020-12-08,0.31948180227970807
2020-12-09,0.5090446062405867
2020-12-10,0.7607693728353856
2020-12-11,0.8628558761254812
2020-12-14,0.9609386689409574
2020-12-15,1.0
2020-12-16,0.8955762566760435
2020-12-17,0.3146952067986631
2020-12-18,0.31749140325332675
2020-12-21,0.3061728395061723
2020-12-22,0.32125603864734203
2020-12-23,0.35185185185185186
2020-12-24,0.9366197183098646
2020-12-25,0.8679245283018853
2020-12-28,0.41509433962264775
2020-12-29,0.5866666666666757
2020-12-30,0.6486486486486486
2020-12-31,0.7179487179487185
2021-01-04,0.8583333333333416
2021-01-05,0.3886792452830196
2021-01-06,0.3622047244094491
2021-01-07,0.4635761589403987
2021-01-08,0.5537190082644626
2021-01-11,0.5178571428571408
2021-01-12,1.0
2021-01-13,1.0
2021-01-14,0.7874396135265678
2021-01-15,0.7766497461928913
2021-01-18,0.6186046511627883
2021-01-19,0.41071428571428353
2021-01-20,0.22014925373134273
2021-01-21,0.42307692307692457
2021-01-22,0.21985815602837155
2021-01-25,0.1993569131832824
2021-01-26,0.19435736677116167
2021-01-27,0.3348416289592768
2021-01-28,0.06593406593406365
2021-01-29,0.06666666666666393
2021-02-01,0.5738396624472528
2021-02-02,0.66222222222222
2021-02-03,0.7414965986394529
2021-02-04,0.6626139817629207
2021-02-05,0.7841726618705076
2021-02-08,0.3560606060606081
2021-02-09,0.40559440559440246
2021-02-10,0.12773722627736903
2021-02-18,0.3296296296296265
2021-02-19,0.4423676012461062
2021-02-22,0.7952522255192892
2021-02-23,0.6976047904191672
2021-02-24,0.8984126984127029
2021-02-25,0.9160104986876677
2021-02-26,0.8505747126436773
2021-03-01,0.7555555555555545
2021-03-02,0.8095238095237987
2021-03-03,0.7714285714285621
2021-03-04,0.09202453987730913
2021-03-05,0.08196721311476286
2021-03-08,0.04918032786885776
2021-03-09,0.3000000000000039
2021-03-10,0.22368421052631626
2021-03-11,0.26086956521739163
2021-03-12,0.3866995073891614
2021-03-15,0.671087533156498
2021-03-16,0.44023323615160137
2021-03-17,0.5763358778625909
2021-03-18,0.7312252964426815
2021-03-19,0.5803571428571392
2021-03-22,0.2377622377622352
2021-03-23,0.2556390977443596
2021-03-24,0.3963414634146395
2021-03-25,0.14220183486238974
2021-03-26,0.21078431372549505
2021-03-29,0.20379146919431723
2021-03-30,0.2948717948718052
2021-03-31,0.2567567567567634
2021-04-01,0.747126436781617
2021-04-02,0.4240000000000028
2021-04-06,0.29281767955801075
2021-04-07,0.28888888888888026
2021-04-08,0.1407766990291195
2021-04-09,0.2976190476190444
2021-04-12,0.4595744680851028
2021-04-13,0.7307692307692296
2021-04-14,0.7708591627448993
2021-04-15,1.0
2021-04-16,0.812811522173285
2021-04-19,0.5511598872000723
2021-04-20,0.5653606479254206
2021-04-21,0.39573737444768836
2021-04-22,0.24478678400675602
2021-04-23,0.27500255069297413
2021-04-26,0.7537040937708911
2021-04-27,0.5314009661835747
2021-04-28,0.5945945945945991
2021-04-29,0.48165137614679304
2021-04-30,0.42000000000000065
2021-05-06,0.039735099337747264
2021-05-07,0.3666666666666644
2021-05-10,0.49999999999999306
2021-05-11,0.7037037037036956
2021-05-12,0.9743589743589749
2021-05-13,0.627906976744183
2021-05-14,0.30569948186528073
2021-05-17,0.41484716157205476
2021-05-18,0.26070038910506177
2021-05-19,0.26953125000000516
2021-05-20,0.4193548387096822
2021-05-21,0.6939890710382538
2021-05-24,0.36363636363636387
2021-05-25,0.5775862068965515
2021-05-26,0.7167630057803458
2021-05-27,0.4678899082568812
2021-05-28,0.3529411764705912
2021-05-31,0.6190476190476223
2021-06-01,0.623036649214661
2021-06-02,0.3468208092485509
2021-06-03,0.6714285714285633
2021-06-04,0.746913580246906
2021-06-07,0.300429184549349
2021-06-08,0.3179916317991556
2021-06-09,0.4553571428571378
2021-06-10,0.28936170212766044
2021-06-11,0.1485507246376789
2021-06-15,0.5043859649122784
2021-06-16,0.37453183520599265
2021-06-17,0.29838709677419295
2021-06-18,0.5257352941176469
2021-06-21,0.7038834951456345
2021-06-22,0.3532338308457766
2021-06-23,0.4864864864864954
2021-06-24,0.5208333333333388
2021-06-25,0.041958041958044666
2021-06-28,0.17469879518072312
2021-06-29,0.2660550458715589
2021-06-30,0.2434782608695579
2021-07-01,0.15527950310558852
2021-07-02,0.6761904761904769
2021-07-05,0.524663677130046
2021-07-06,0.5859030837004401
2021-07-07,0.7020547945205495
2021-07-08,0.8461538461538469
2021-07-09,0.40888888888889163
2021-07-12,0.5642201834862408
2021-07-13,0.551886792452834
2021-07-14,0.2459016393442618
2021-07-15,0.3030303030303056
2021-07-16,0.4918032786885242
2021-07-19,0.3541666666666698
2021-07-20,0.38613861386138937
2021-07-21,0.7978723404255262
2021-07-22,0.7654320987654235
2021-07-23,1.0
2021-07-26,1.0
2021-07-27,0.8076923076923037
2021-07-28,0.77941176470588
2021-07-29,0.7246376811594182
2021-07-30,0.37956204379562264
2021-08-02,0.10457516339869205
2021-08-03,0.12121212121212127
2021-08-04,0.0
2021-08-05,0.0
2021-08-06,0.10526315789473198
2021-08-09,0.3232323232323213
2021-08-10,0.340425531914888
2021-08-11,0.8472222222222233
2021-08-12,0.7011494252873509
2021-08-13,0.6663096612836642
2021-08-16,0.34263820728503147
2021-08-17,0.4795714047341
2021-08-18,0.180819072755991
2021-08-19,0.4564910976452511
2021-08-20,0.37698535021960516
2021-08-23,0.6730027763148474
2021-08-24,0.6794834005955602
2021-08-25,0.8783677242204273
2021-08-26,0.6909871244635201
2021-08-27,0.7971014492753647
2021-08-30,0.3607594936708925
2021-08-31,0.18292682926830067
2021-09-01,0.02684563758389761
2021-09-02,0.06363636363636405
2021-09-03,0.1344537815125946
2021-09-06,0.1904761904761751
2021-09-07,0.2352941176470373
2021-09-08,0.3492063492063303
2021-09-09,0.43055555555554975
2021-09-10,0.20000000000000634
2021-09-13,0.4838709677419393
2021-09-14,0.5294117647058921
2021-09-15,0.5744680851063901
2021-09-16,0.40384615384615397
2021-09-17,0.7578124999999992
2021-09-22,0.5147058823529418
2021-09-23,0.568181818181817
2021-09-24,0.4918032786885241
2021-09-27,0.7278911564625872
2021-09-28,0.385185185185187
2021-09-29,0.4905660377358487
2021-09-30,0.5714285714285701
2021-10-08,0.7923728813559311
2021-10-11,0.7537688442211038
2021-10-12,0.9657142857142843
2021-10-13,1.0
2021-10-14,1.0
2021-10-15,0.3977900552486342
2021-10-18,0.3263157894737
2021-10-19,0.30054644808743564
2021-10-20,0.14569536423840548
2021-10-21,0.07894736842104136
2021-10-22,0.6352941176470329
2021-10-25,0.8787878787878615
2021-10-26,0.9097744360902141
2021-10-27,0.9674556213017729
2021-10-28,1.0
2021-10-29,0.8764044943820206
2021-11-01,0.6871921182266016
2021-11-02,0.6666666666666667
2021-11-03,0.12244897959183614
2021-11-04,0.2649572649572624
2021-11-05,0.28246013667425796
2021-11-08,0.41265822784809747
2021-11-09,0.30869565217391026
2021-11-10,0.5725806451612924
2021-11-11,0.14130434782608575
2021-11-12,0.347058823529413
2021-11-15,0.24233128834356008
2021-11-16,0.3319502074688831
2021-11-17,0.31496062992126134
2021-11-18,0.6349206349206324
2021-11-19,0.010309278350518569
2021-11-22,0.16470588235295602
2021-11-23,0.2755102040816361
2021-11-24,0.281250000000007
2021-11-25,0.421052631578949
2021-11-26,0.7611940298507606
2021-11-29,0.8571428571428636
2021-11-30,0.7809523809523876
2021-12-01,0.9320388349514558
2021-12-02,0.7352941176470557
2021-12-03,0.6050420168067226
2021-12-06,0.11864406779660608
2021-12-07,0.11764705882352555
2021-12-08,0.4034090909090896
2021-12-09,0.6413502109704637
2021-12-10,0.6982546476224814
2021-12-13,0.9460691524181499
2021-12-14,0.996089391541359
2021-12-15,0.5994593054387491
2021-12-16,0.1221971308485257
2021-12-17,0.16304280980717495
2021-12-20,0.27960490794948106
2021-12-21,0.16899148595841904
2021-12-22,0.2273432073285631
2021-12-23,0.5263157894736664
2021-12-24,0.4505494505494333
2021-12-27,0.10975609756096413
2021-12-28,0.46153846153844397
2021-12-29,0.6111111111111073
2021-12-30,0.5757575757575764
2021-12-31,0.38775510204081337
2022-01-04,0.7218045112781912
2022-01-05,0.6410256410256342
2022-01-06,0.5213675213675164
2022-01-07,0.4833333333333323
2022-01-10,0.8310810810810841
2022-01-11,0.3779069767441883
2022-01-12,0.38461538461538924
2022-01-13,0.38922155688623256
2022-01-14,0.5151515151515176
2022-01-17,0.21511627906976744
2022-01-18,0.3936170212765972
2022-01-19,0.3457943925233636
2022-01-20,0.43137254901960315
2022-01-21,0.061946902654863405
2022-01-24,0.4724409448818894
2022-01-25,0.5434782608695674
2022-01-26,0.6444444444444467
2022-01-27,0.6619718309859179
2022-01-28,1.0
2022-02-07,0.5229357798165186
2022-02-08,0.41176470588235475
2022-02-09,0.3999999999999978
2022-02-10,0.34782608695652467
2022-02-11,0.18823529411764195
2022-02-14,0.5952380952380721
2022-02-15,0.7428571428571243
2022-02-16,0.4571428571428594
2022-02-17,0.23809523809523714
2022-02-18,0.3428571428571514
2022-02-21,0.17857142857146713
2022-02-22,0.0833333333333496
2022-02-23,0.6046511627906941
2022-02-24,0.5977011494252813
2022-02-25,0.6902654867256568
2022-02-28,0.5714285714285622
2022-03-01,0.7209302325581337
2022-03-02,0.40178571428571297
2022-03-03,0.5267857142857162
2022-03-04,0.3131313131313215
2022-03-07,0.4320987654321053
2022-03-08,0.26086956521739135
2022-03-09,0.3829787234042586
2022-03-10,0.3409090909090853
2022-03-11,0.7878787878787867
2022-03-14,0.8181818181818201
2022-03-15,0.9615384615384628
2022-03-16,0.9221311475409825
2022-03-17,0.9201680672268898
2022-03-18,0.7165354330708643
2022-03-21,0.6139705882352943
2022-03-22,0.019157088122607493
2022-03-23,0.1993243243243255
2022-03-24,0.27300613496932524
2022-03-25,0.3947368421052651
2022-03-28,0.5081433224755709
2022-03-29,0.9570552147239257
2022-03-30,0.9559748427672952
2022-03-31,0.6157894736842122
2022-04-01,0.4501626794258379
2022-04-06,0.3525421436942232
2022-04-07,0.5920870149461854
2022-04-08,0.31127194118057755
2022-04-11,0.5109311705978309
2022-04-12,0.6373671419178143
2022-04-13,0.541497201526837
2022-04-14,0.2667850976797382
2022-04-15,0.39208679220631454
2022-04-18,0.2236286919831247
2022-04-19,0.021008403361346642
2022-04-20,0.10837438423645696
2022-04-21,0.3370786516853994
2022-04-22,0.5083333333333363
2022-04-25,0.4765624999999945
2022-04-26,0.8333333333333235
2022-04-27,0.608333333333332
2022-04-28,0.6299212598425203
2022-04-29,0.3211678832116807
2022-05-05,0.5222929936305792
2022-05-06,0.5398773006135055
2022-05-09,0.6849315068493171
2022-05-10,0.5985915492957786
2022-05-11,0.8854166666666728
2022-05-12,0.36153846153846664
2022-05-13,0.07017543859648954
2022-05-16,4.098436343836192e-15
2022-05-17,0.05095541401274415
2022-05-18,0.0467836257309951
2022-05-19,0.2777777777777744
2022-05-20,0.7727272727272656
2022-05-23,0.8761061946902573
2022-05-24,0.7459016393442542
2022-05-25,0.8692307692307678
2022-05-26,0.6187050359712173
2022-05-27,0.684523809523803
2022-05-30,0.40361445783132277
2022-05-31,0.4379084967320235
2022-06-01,0.34848484848484723
2022-06-02,0.5238095238095348
2022-06-06,0.3506493506493622
2022-06-07,0.9555555555555548
2022-06-08,1.0
2022-06-09,1.0
2022-06-10,1.0
2022-06-13,0.5524475524475537
2022-06-14,0.13513513513512837
2022-06-15,0.3298429319371669
2022-06-16,0.2772277227722713
2022-06-17,0.36521739130434994
2022-06-20,0.5469613259668499
2022-06-21,0.8875000000000001
2022-06-22,0.678321678321681
2022-06-23,0.8227848101265832
2022-06-24,0.5909090909090866
2022-06-27,0.5799999999999987
2022-06-28,0.2993197278911533
2022-06-29,0.34108527131782734
2022-06-30,0.11224489795919154
2022-07-01,0.44086021505377704
2022-07-04,0.37349397590362154
2022-07-05,0.8554216867470115
2022-07-06,0.9807692307692422
2022-07-07,0.8429752066115719
2022-07-08,0.5
2022-07-11,0.43827160493827116
2022-07-12,0.22627737226276512
2022-07-13,0.0
2022-07-14,0.018691588785041503
2022-07-15,0.38095238095236467
2022-07-18,0.41025641025639414
2022-07-19,0.5571428571428599
2022-07-20,0.8859649122807008
2022-07-21,0.7983870967741992
2022-07-22,0.7263157894736962
2022-07-25,0.8505747126436938
2022-07-26,0.8414634146341596
2022-07-27,0.08974358974359695
2022-07-28,0.3655913978494598
2022-07-29,0.3090909090909082
2022-08-01,0.5476190476190421
2022-08-02,0.502793296089383
2022-08-03,0.7200000000000029
2022-08-04,0.6000000000000038
2022-08-05,0.7983193277310918
2022-08-08,0.3440860215053713
2022-08-09,0.39024390243901425
2022-08-10,0.6406250000000007
2022-08-11,0.6456692913385818
2022-08-12,0.3775508668432521
2022-08-15,0.6853024007068184
2022-08-16,0.6799705499623327
2022-08-17,0.43236711254134835
2022-08-18,0.4702507596201495
2022-08-19,0.7572340165863605
2022-08-22,0.1889842864085393
2022-08-23,0.16358138787829798
2022-08-24,0.145952708620033
2022-08-25,0.29230769230769277
2022-08-26,0.1984126984127051
2022-08-29,0.2808988764045057
2022-08-30,0.6065573770491888
2022-08-31,0.7551020408163306
2022-09-01,0.6363636363636392
2022-09-02,0.7466666666666599
2022-09-05,0.7887323943661831
2022-09-06,0.1186440677966064
2022-09-07,0.2985074626865747
2022-09-08,0.24390243902439906
2022-09-09,0.17105263157895945
2022-09-13,0.3804347826087017
2022-09-14,0.6491228070175514
2022-09-15,0.369230769230757
2022-09-16,0.489795918367319
2022-09-19,0.6363636363636117
2022-09-20,0.24096385542167578
2022-09-21,0.17647058823529146
2022-09-22,0.21176470588235033
2022-09-23,0.20930232558139858
2022-09-26,0.0
2022-09-27,0.4000000000000019
2022-09-28,0.6500000000000118
2022-09-29,0.629032258064531
2022-09-30,0.8442622950819637
2022-10-10,0.9684210526315805
2022-10-11,0.8387096774193505
2022-10-12,0.8351648351648296
2022-10-13,0.8999999999999945
2022-10-14,0.6413502109704611
2022-10-17,0.2909836065573746
2022-10-18,0.5162337662337668
2022-10-19,0.4779874213836482
2022-10-20,0.30344827586206996
2022-10-21,0.3744680851063842
2022-10-24,0.7531380753138074
2022-10-25,0.3982683982683991
2022-10-26,0.594684385382061
2022-10-27,0.6729323308270712
2022-10-28,0.6832061068702311
2022-10-31,0.3866666666666672
2022-11-01,0.587837837837835
2022-11-02,0.0
2022-11-03,0.0
2022-11-04,0.29353233830845676
2022-11-07,0.3241758241758239
2022-11-08,0.3478260869565208
2022-11-09,0.6774193548387095
2022-11-10,0.6222222222222288
2022-11-11,0.19379844961240716
2022-11-14,0.5802469135802507
2022-11-15,0.5632911392405129
2022-11-16,0.433962264150946
2022-11-17,0.5
2022-11-18,0.861635220125787
2022-11-21,0.8
2022-11-22,0.824999999999998
2022-11-23,0.9801980198019768
2022-11-24,0.985915492957744
2022-11-25,0.5864661654135268
2022-11-28,0.30526315789473435
2022-11-29,0.3999999999999941
2022-11-30,0.4560669456066895
2022-12-01,0.2805429864253368
2022-12-02,0.35632183908045906
2022-12-05,0.8022598870056523
2022-12-06,0.5075376884422109
2022-12-07,0.47027027027027
2022-12-08,0.5988372093023245
2022-12-09,0.6911764705882335
2022-12-12,0.45185185185185267
2022-12-13,0.9054864835850849
2022-12-14,0.7415567701048891
2022-12-15,0.6479112608858691
2022-12-16,0.35365930099221554
2022-12-19,0.2508184803983117
2022-12-20,0.0
2022-12-21,0.29393869630993247
2022-12-22,0.2556968543922583
2022-12-23,0.30878504242374516
2022-12-26,0.6397058823529335
2022-12-27,0.7089552238805924
2022-12-28,0.35156250000000383
2022-12-29,0.6356589147286871
2022-12-30,0.6406250000000054
2023-01-03,0.520833333333339
2023-01-04,0.35897435897436375
2023-01-05,0.6960784313725523
2023-01-06,0.36170212765957543
2023-01-09,0.36559139784946637
2023-01-10,0.21167883211678967
2023-01-11,0.2301587301587305
2023-01-12,0.0
2023-01-13,0.11206896551724213
2023-01-16,0.11016949152542306
2023-01-17,0.13131313131312947
2023-01-18,0.16049382716048943
2023-01-19,0.4310344827586115
2023-01-20,0.20338983050847492
2023-01-30,0.5463917525773166
2023-01-31,0.7910447761193984
2023-02-01,0.8352941176470615
2023-02-02,0.5959595959596007
2023-02-03,0.7291666666666716
2023-02-06,0.35802469135804
2023-02-07,0.6090225563909812
2023-02-08,0.5840000000000012
2023-02-09,0.7592592592592633
2023-02-10,0.6698113207547172
2023-02-13,0.8888888888888842
2023-02-14,0.31249999999999173
2023-02-15,0.6206896551724072
2023-02-16,0.6036036036035923
2023-02-17,0.7348484848484783
2023-02-20,0.6808510638297797
2023-02-21,0.7868852459016398
2023-02-22,0.2328767123287639
2023-02-23,0.4074074074074129
2023-02-24,0.23979591836735237
2023-02-27,0.23618090452262033
2023-02-28,0.3131313131313207
2023-03-01,0.5438596491228109
2023-03-02,0.22058823529411967
2023-03-03,0.7460317460317405
2023-03-06,0.9696969696969536
2023-03-07,0.9708737864077513
2023-03-08,0.9905660377358481
2023-03-09,0.6953642384105906
2023-03-10,0.5104895104895095
2023-03-13,0.19200000000000347
2023-03-14,0.2290076335877927
2023-03-15,0.20472440944881914
2023-03-16,0.32926829268293656
2023-03-17,0.5156250000000061
2023-03-20,1.0
2023-03-21,0.6000000000000076
2023-03-22,0.5772357723577316
2023-03-23,0.6976744186046557
2023-03-24,0.6785714285714324
2023-03-27,0.3048780487804888
2023-03-28,0.6071428571428532
2023-03-29,0.5999999999999955
2023-03-30,0.34666666666666096
2023-03-31,0.3599999999999902
2023-04-03,0.5999999999999914
2023-04-04,0.023529411764693444
2023-04-06,0.11494252873562999
2023-04-07,0.12820512820512525
2023-04-10,0.10526315789476925
2023-04-11,0.09195402298853463
2023-04-12,0.39622641509437073
2023-04-13,0.554056734774853
2023-04-14,0.7956903959283554
2023-04-17,0.9368521265163865
2023-04-18,0.9944053639115615
2023-04-19,0.8419803133740527
2023-04-20,0.8597075410207683
2023-04-21,0.8582579659209217
2023-04-24,0.29263235440187785
2023-04-25,0.39887164621288984
2023-04-26,0.49162011173184517
2023-04-27,0.2962962962962989
2023-04-28,0.2962962962962956
2023-05-04,0.5714285714285662
2023-05-05,0.1486486486486449
2023-05-08,0.29213483146066305
2023-05-09,0.16049382716048854
2023-05-10,0.23595505617977972
2023-05-11,0.2560975609756163
2023-05-12,0.4258064516129107
2023-05-15,0.3732394366197257
2023-05-16,0.8500000000000122
2023-05-17,0.6144578313253078
2023-05-18,0.7826086956521718
2023-05-19,0.6399999999999965
2023-05-22,0.6746987951807264
2023-05-23,0.4361702127659569
2023-05-24,0.7499999999999976
2023-05-25,0.5571428571428612
2023-05-26,0.5925925925925949
2023-05-29,0.410958904109587
2023-05-30,0.602649006622516
2023-05-31,0.2481203007518753
2023-06-01,0.45384615384614313
2023-06-02,0.4351145038167888
2023-06-05,0.6742424242424246
2023-06-06,0.5943396226415105
2023-06-07,0.6847826086956583
2023-06-08,0.3814432989690829
2023-06-09,0.47222222222222426
2023-06-12,0.14615384615384347
2023-06-13,0.09523809523809117
2023-06-14,0.11382113821137844
2023-06-15,0.2777777777777677
2023-06-16,0.1403508771929751
2023-06-19,0.4634146341463436
2023-06-20,0.747126436781615
2023-06-21,0.7802197802197753
2023-06-26,0.7647058823529439
2023-06-27,0.866666666666668
2023-06-28,0.511904761904767
2023-06-29,0.2500000000000073
2023-06-30,0.21311475409839228
2023-07-03,0.5555555555555509
2023-07-04,0.5555555555555511
2023-07-05,0.8692307692307656
2023-07-06,0.7847222222222268
2023-07-07,0.7832167832167871
2023-07-10,0.4508196721311542
2023-07-11,0.5086206896551788
2023-07-12,0.2297297297297185
2023-07-13,0.44615384615382603
2023-07-14,0.5499999999999811
2023-07-17,0.6027397260273831
2023-07-18,0.6233766233766073
2023-07-19,0.28030303030301845
2023-07-20,0.199999999999992
2023-07-21,0.2907801418439701
2023-07-24,0.4538461538461523
2023-07-25,0.5000000000000044
2023-07-26,0.9411764705882391
2023-07-27,0.9411764705882391
2023-07-28,0.4845360824742298
2023-07-31,0.3052631578947444
2023-08-01,0.38317757009346215
2023-08-02,0.48437500000000544
2023-08-03,0.5547445255474465
2023-08-04,0.8260869565217387
2023-08-07,0.9999999999999963
2023-08-08,0.7325581395348807
2023-08-09,0.644295302013416
2023-08-10,0.7071823204419855
2023-08-11,0.7253886010362695
2023-08-14,0.46031746031746124
2023-08-15,0.6436376228656608
2023-08-16,0.5074086518269645
2023-08-17,0.12431120571326852
2023-08-18,0.389376510693189
2023-08-21,0.3026735747943196
2023-08-22,0.3563104429093883
2023-08-23,0.7160082380344541
2023-08-24,0.7687158928350674
2023-08-25,0.6285777117824405
2023-08-28,0.8134715025906736
2023-08-29,0.8676470588235291
2023-08-30,0.3805668016194336
2023-08-31,0.3629343629343662
2023-09-01,0.3715415019762856
2023-09-04,0.4301075268817165
2023-09-05,0.11717368753571113
2023-09-06,0.18803255609444597
2023-09-07,0.252423474372755
2023-09-08,0.26749519114249426
2023-09-11,0.051571200382164235
2023-09-12,0.15824460799532902
2023-09-13,0.3854458456718972
2023-09-14,0.24918390364846774
2023-09-15,0.807056462885569
2023-09-18,0.9298245614035058
2023-09-19,0.9293286219081245
2023-09-20,0.9384615384615359
2023-09-21,1.0
2023-09-22,0.41496598639455856
2023-09-25,0.310810810810814
2023-09-26,0.3440514469453371
2023-09-27,0.13981762917933072
2023-09-28,0.054140127388533105
2023-10-09,0.2980772318858825
2023-10-10,0.3181994997145152
2023-10-11,0.19664753300436788
2023-10-12,0.47417884831626683
2023-10-13,0.532850299944085
2023-10-16,0.17672537656552703
2023-10-17,0.31522805499340817
2023-10-18,0.39182065192018384
2023-10-19,0.21134394943363763
2023-10-20,0.33913043478261234
2023-10-23,0.6724137931034593
2023-10-24,0.6041666666666797
2023-10-25,0.79104477611941
2023-10-26,0.5888888888888897
2023-10-27,0.3908045977011477
2023-10-30,0.6535433070866119
2023-10-31,0.6271186440677948
2023-11-01,0.5686274509803894
2023-11-02,0.7341772151898688
2023-11-03,0.9242424242424208
2023-11-06,0.23076923076922992
2023-11-07,0.19999999999999776
2023-11-08,0.04761904761905032
2023-11-09,0.6153846153846171
2023-11-10,0.6126760563380264
2023-11-13,0.6959999999999968
2023-11-14,0.751824817518246
2023-11-15,0.8604651162790659
2023-11-16,0.2795698924731059
2023-11-17,0.23529411764705788
2023-11-20,0.3814432989690835
2023-11-21,0.21000000000001495
2023-11-22,0.12037037037038464
2023-11-23,0.18309859154931818
2023-11-24,0.4777777777777965
2023-11-27,0.5154639175257775
2023-11-28,0.6666666666666594
2023-11-29,0.9215686274509787
2023-11-30,0.8545454545454516
2023-12-01,0.7302631578947296
2023-12-04,0.7248322147650951
2023-12-05,0.7970297029702952
2023-12-06,0.3838383838383824
2023-12-07,0.5333333333333309
2023-12-08,0.5773195876288624
2023-12-11,0.4523809523809499
2023-12-12,0.18272155303986698
2023-12-13,0.300829083217897
2023-12-14,0.0
2023-12-15,0.15057876940543805
2023-12-18,0.3388249837522941
2023-12-19,0.38950888192268046
2023-12-20,0.37129986328762915
2023-12-21,0.7024079889152227
2023-12-22,0.5068949495975567
2023-12-25,0.5422535211267657
2023-12-26,0.6311475409836041
2023-12-27,0.6695652173912984
2023-12-28,0.2521739130434773
2023-12-29,0.41836734693876604
2024-01-02,0.12631578947367508
2024-01-03,0.21246920085604884
2024-01-04,0.20214422549096767
2024-01-05,0.6767864048956964
2024-01-08,0.7049746271949816
2024-01-09,0.6939862784428479
2024-01-10,0.7596942000341103
2024-01-11,0.8389746981651213
2024-01-12,0.8137010984702824
2024-01-15,0.6284107871781982
2024-01-16,0.7557251908396992
2024-01-17,0.6767676767676849
2024-01-18,0.4084507042253667
2024-01-19,0.06185567010309745
2024-01-22,0.3749999999999978
2024-01-23,0.4537037037036983
2024-01-24,0.2986111111111021
2024-01-25,0.3724137931034414
2024-01-26,0.6793893129770923
2024-01-29,0.5130434782608705
2024-01-30,0.4615384615384632
2024-01-31,0.7619047619047823
2024-02-01,0.716981132075492
2024-02-02,0.14285714285714024
2024-02-05,0.6363636363636357
2024-02-06,0.13157894736841158
2024-02-07,0.5
2024-02-08,0.3974358974358947
2024-02-19,0.39283826925443605
2024-02-20,0.304944496598181
2024-02-21,0.4940242228824949
2024-02-22,0.116156349073916
2024-02-23,0.6157114822998527
2024-02-26,0.47235591170961144
2024-02-27,0.4514712158349729
2024-02-28,0.4297067646735511
2024-02-29,0.44113544933449145
2024-03-01,0.02197802197802974
2024-03-04,0.02083333333334063
2024-03-05,0.19999999999999896
2024-03-06,0.19148936170211087
2024-03-07,0.15126050420166728
2024-03-08,0.5090909090909016
2024-03-11,0.8014705882352934
2024-03-12,0.6814814814814855
2024-03-13,0.7378048780487851
2024-03-14,0.905882352941181
2024-03-15,0.8405797101449375
2024-03-18,0.5431034482758651
2024-03-19,0.6782608695652179
2024-03-20,0.4800000000000076
2024-03-21,0.1530612244897999
2024-03-22,0.1327433628318593
2024-03-25,0.3963963963963963
2024-03-26,0.28155339805824997
2024-03-27,0.27102803738317166
2024-03-28,0.3896103896103742
2024-03-29,0.7570093457943848
2024-04-01,0.47706422018348216
2024-04-02,0.48598130841121134
2024-04-03,0.605205516258477
2024-04-08,0.6683081951284169
2024-04-09,0.20925718899447518
2024-04-10,0.24790910428725801
2024-04-11,0.31145044664432114
2024-04-12,0.3066031238808924
2024-04-15,0.23589688238886536
2024-04-16,0.860717235426739
2024-04-17,1.0
2024-04-18,1.0
2024-04-19,1.0
2024-04-22,0.9113924050632904
2024-04-23,0.3741935483870942
2024-04-24,0.21333333333333637
2024-04-25,0.03246753246753355
2024-04-26,0.4640287769784174
2024-04-29,0.5588235294117649
2024-04-30,0.771929824561405
2024-05-06,0.8571428571428544
2024-05-07,1.0
2024-05-08,0.7794871794871809
2024-05-09,0.5729166666666703
2024-05-10,0.5384615384615413
2024-05-13,0.6186440677966142
2024-05-14,0.3128834355828255
2024-05-15,0.23287671232876903
2024-05-16,0.27419354838709714
2024-05-17,0.27127659574468194
2024-05-20,0.0
2024-05-21,0.0
2024-05-22,0.1754385964912257
2024-05-23,0.17241379310344668
2024-05-24,0.18691588785046415
2024-05-27,0.27027027027026984
2024-05-28,0.3030303030302999
2024-05-29,0.0
2024-05-30,0.0
2024-05-31,0.20987654320987373
2024-06-03,0.4285714285714264
2024-06-04,0.6447368421052604
2024-06-05,0.7878787878787832
2024-06-06,1.0
2024-06-07,0.9000000000000121
2024-06-11,0.29411764705883026
2024-06-12,0.2031250000000033
2024-06-13,0.12048192771084641
2024-06-14,0.0
2024-06-17,0.3783783783783752
2024-06-18,0.47457627118644075
2024-06-19,0.4087591240875902
2024-06-20,0.5083333333333341
2024-06-21,0.6874999999999993
2024-06-24,0.1926605504587148
2024-06-25,0.1891891891891869
2024-06-26,0.398230088495572
2024-06-27,0.4380165289256146
2024-06-28,0.3162393162393143
2024-07-01,0.528571428571422
2024-07-02,0.7749999999999987
2024-07-03,0.5135135135135105
2024-07-04,0.4705882352941299
2024-07-05,0.7176470588235275
2024-07-08,0.8604651162790734
2024-07-09,0.862595419847332
2024-07-10,1.0
2024-07-11,1.0
2024-07-12,1.0
2024-07-15,0.8738738738738678
2024-07-16,0.8444444444444388
2024-07-17,0.5633802816901333
2024-07-18,0.23255813953488905
2024-07-19,0.05555555555555948
2024-07-22,0.039215686274513085
2024-07-23,0.0
2024-07-24,0.0
2024-07-25,0.14465408805031757
2024-07-26,0.18548387096774538
2024-07-29,0.40845070422535007
2024-07-30,0.41428571428570676
2024-07-31,0.6779661016949048
2024-08-01,0.2615384615384509
2024-08-02,0.5104166666666607
2024-08-05,0.5648148148148148
2024-08-06,0.7070707070707088
2024-08-07,0.6704545454545472
2024-08-08,1.0
2024-08-09,1.0
2024-08-12,0.6551724137930988
2024-08-13,0.8076923076923046
2024-08-14,0.837398373983738
2024-08-15,0.8449612403100755
2024-08-16,0.8684210526315762
2024-08-19,1.0
2024-08-20,0.6064516129032294
2024-08-21,0.48701298701298795
2024-08-22,0.26340757651216345
2024-08-23,0.12604859719747258
2024-08-26,0.33187098591108316
2024-08-27,0.4801547418554505
2024-08-28,0.620078185288042
2024-08-29,0.7181896272588827
2024-08-30,0.520460147267295
2024-09-02,0.10672068709124406
2024-09-03,0.2164148960880896
2024-09-04,0.12467825372471107
2024-09-05,0.1267111177385338
2024-09-06,0.21290975577902577
2024-09-09,0.8558506374838306
2024-09-10,0.8831010353309007
2024-09-11,0.9188630694546158
2024-09-12,1.0
2024-09-13,1.0
2024-09-18,0.4855491329479757
2024-09-19,0.21229050279329797
2024-09-20,0.37333333333333063
2024-09-23,0.4359999999999982
2024-09-24,0.45559845559845336
2024-09-25,0.7688888888888873
2024-09-26,1.0
2024-09-27,0.6995073891625664
2024-09-30,0.4228855721393077
2024-10-08,0.4956521739130454
2024-10-09,0.25321888412017307
2024-10-10,0.18143459915611768
2024-10-11,0.3480392156862744
2024-10-14,0.42514970059880236
2024-10-15,0.15300546448087535
2024-10-16,0.3975155279503123
2024-10-17,0.5860215053763429
2024-10-18,0.5837837837837816
2024-10-21,0.6549707602339174
2024-10-22,0.9572649572649534
2024-10-23,0.6280991735537161
2024-10-24,0.3039215686274493
2024-10-25,0.028776978417266213
2024-10-28,0.08163265306122137
2024-10-29,0.13333333333333117
2024-10-30,0.19642857142856646
2024-10-31,0.18644067796609542
2024-11-01,0.5492957746478759
2024-11-04,0.7310924369747865
2024-11-05,0.6370967741935403
2024-11-06,0.6874999999999912
2024-11-07,0.9037037037036965
2024-11-08,0.9029850746268581
2024-11-11,0.43571428571427806
2024-11-12,0.5251798561151045
2024-11-13,0.33552631578947334
2024-11-14,0.2937062937062968
2024-11-15,0.1884057971014562
2024-11-18,0.2680412371134101
2024-11-19,0.12962962962963864
2024-11-20,0.18918918918920213
2024-11-21,0.0
2024-11-22,0.0
2024-11-25,0.2674418604651208
2024-11-26,0.42857142857143105
2024-11-27,0.47297297297297725
2024-11-28,0.8333333333333416
2024-11-29,1.0
2024-12-02,0.9459459459459536
2024-12-03,0.9506172839506237
2024-12-04,0.9555555555555607
2024-12-05,0.8840579710145045
2024-12-06,0.388888888888877
2024-12-09,0.7297297297297265
2024-12-10,0.7674418604651163
2024-12-11,0.7500000000000018
2024-12-12,0.6741573033707854
2024-12-13,0.8658536585365846
2024-12-16,0.43139037001131186
2024-12-17,0.16279756630633685
2024-12-18,0.1747168602789175
2024-12-19,0.2777484935867629
2024-12-20,0.2153428103034022
2024-12-23,0.26872740520696525
2024-12-24,0.3728951973556386
2024-12-25,0.5568197433149219
2024-12-26,0.4310323696430736
2024-12-27,0.268292682926826
2024-12-30,0.6054421768707512
2024-12-31,0.6592592592592558
