date,FCT_Demark_Atr_Dfive
2011-03-24,
2011-03-25,
2011-03-28,
2011-03-29,
2011-03-30,
2011-03-31,
2011-04-01,
2011-04-06,
2011-04-07,
2011-04-08,0.27717391304347827
2011-04-11,0.8631578947368421
2011-04-12,1.0
2011-04-13,0.44508670520231214
2011-04-14,0.38341968911917096
2011-04-15,0.3425414364640884
2011-04-18,0.16847826086956522
2011-04-19,0.11046511627906977
2011-04-20,0.20212765957446807
2011-04-21,0.2876712328767123
2011-04-22,0.37349397590361444
2011-04-25,0.7804878048780488
2011-04-26,0.5425531914893617
2011-04-27,0.8031496062992126
2011-04-28,0.8355263157894737
2011-04-29,0.6607142857142857
2011-05-03,0.5032258064516129
2011-05-04,0.5064935064935064
2011-05-05,0.6218905472636815
2011-05-06,0.5355191256830601
2011-05-09,0.6954022988505747
2011-05-10,0.8
2011-05-11,0.961038961038961
2011-05-12,0.4979919678714859
2011-05-13,0.5703703703703704
2011-05-16,0.48518518518518516
2011-05-17,0.513986013986014
2011-05-18,0.2111111111111111
2011-05-19,0.3584905660377358
2011-05-20,0.15
2011-05-23,0.4090909090909091
2011-05-24,0.29439252336448596
2011-05-25,0.5
2011-05-26,0.4695121951219512
2011-05-27,0.75
2011-05-30,0.391304347826087
2011-05-31,0.4895833333333333
2011-06-01,0.3055555555555556
2011-06-02,0.3142857142857143
2011-06-03,0.04
2011-06-07,0.06666666666666667
2011-06-08,0.14285714285714285
2011-06-09,0.2413793103448276
2011-06-10,0.6
2011-06-13,0.2978723404255319
2011-06-14,0.18421052631578946
2011-06-15,0.07272727272727272
2011-06-16,0.1504424778761062
2011-06-17,0.11926605504587157
2011-06-20,0.14606741573033707
2011-06-21,0.5567010309278351
2011-06-22,0.9552238805970149
2011-06-23,0.9491525423728814
2011-06-24,0.9464285714285714
2011-06-27,1.0
2011-06-28,0.3076923076923077
2011-06-29,0.14705882352941177
2011-06-30,0.12162162162162163
2011-07-01,0.09090909090909091
2011-07-04,0.0
2011-07-05,0.3018867924528302
2011-07-06,0.4146341463414634
2011-07-07,0.5
2011-07-08,0.9333333333333333
2011-07-11,1.0
2011-07-12,0.47368421052631576
2011-07-13,0.7872340425531915
2011-07-14,0.7184466019417476
2011-07-15,0.6176470588235294
2011-07-18,0.4830508474576271
2011-07-19,0.6272727272727273
2011-07-20,0.13333333333333333
2011-07-21,0.3235294117647059
2011-07-22,0.34375
2011-07-25,0.4605263157894737
2011-07-26,0.5232558139534884
2011-07-27,0.8653846153846154
2011-07-28,0.5217391304347826
2011-07-29,0.8064516129032258
2011-08-01,0.7934782608695652
2011-08-02,0.819047619047619
2011-08-03,0.8532110091743119
2011-08-04,0.990909090909091
2011-08-05,0.9917355371900827
2011-08-08,1.0
2011-08-09,1.0
2011-08-10,1.0
2011-08-11,0.9801439164878984
2011-08-12,0.7277080092575028
2011-08-15,0.4362910106259201
2011-08-16,0.18616936251189412
2011-08-17,0.0
2011-08-18,0.0
2011-08-19,0.028853884405800702
2011-08-22,0.0447761194029854
2011-08-23,0.0588235294117652
2011-08-24,0.09000000000000134
2011-08-25,0.09782608695652478
2011-08-26,0.0
2011-08-29,0.0
2011-08-30,0.15909090909091098
2011-08-31,0.21875000000000205
2011-09-01,0.5
2011-09-02,0.7118644067796607
2011-09-05,0.8857142857142853
2011-09-06,0.8730158730158728
2011-09-07,1.0
2011-09-08,0.7567567567567547
2011-09-09,0.4683544303797439
2011-09-13,0.2741935483870992
2011-09-14,0.47058823529411925
2011-09-15,0.2874999999999989
2011-09-16,0.3239436619718285
2011-09-19,0.785714285714283
2011-09-20,0.8384615384615336
2011-09-21,0.7107438016528879
2011-09-22,0.8937801740337057
2011-09-23,0.9461097322956069
2011-09-26,0.9410022884200663
2011-09-27,0.9370934737819149
2011-09-28,1.0
2011-09-29,1.0
2011-09-30,1.0
2011-10-10,0.5894237640485916
2011-10-11,0.5306168235867502
2011-10-12,0.3591160220994435
2011-10-13,0.1624548736462066
2011-10-14,0.0
2011-10-17,0.0
2011-10-18,0.09920634920634898
2011-10-19,0.10371714186320002
2011-10-20,0.3285768105561331
2011-10-21,0.8667192698406221
2011-10-24,0.9626153493437294
2011-10-25,0.9696338369142692
2011-10-26,1.0
2011-10-27,0.9303560569638462
2011-10-28,0.5899904650085415
2011-10-31,0.4488594700648055
2011-11-01,0.10104529616724763
2011-11-02,0.0
2011-11-03,0.0
2011-11-04,0.0
2011-11-07,0.0
2011-11-08,0.0
2011-11-09,0.0
2011-11-10,0.4720812182741118
2011-11-11,0.5410628019323666
2011-11-14,0.7906976744186063
2011-11-15,0.813953488372095
2011-11-16,1.0
2011-11-17,0.548931856579687
2011-11-18,0.47323330965909255
2011-11-21,0.11976689803030202
2011-11-22,0.09159677684591065
2011-11-23,0.02905875209437585
2011-11-24,0.3172732839972582
2011-11-25,0.2367655277408438
2011-11-28,0.5441647061672027
2011-11-29,0.4948895179969879
2011-11-30,0.43010752688172427
2011-12-01,0.38372093023255727
2011-12-02,0.4399999999999945
2011-12-05,0.20481927710843237
2011-12-06,0.2098765432098736
2011-12-07,0.21518987341771786
2011-12-08,0.0
2011-12-09,0.13114754098360318
2011-12-12,0.18811881188118368
2011-12-13,0.18811881188118434
2011-12-14,0.3274336283185814
2011-12-15,0.9130434782608691
2011-12-16,0.8928571428571445
2011-12-19,0.8703703703703687
2011-12-20,0.9811226403300374
2011-12-21,0.522701336811218
2011-12-22,0.1226244067382434
2011-12-23,0.07528671104338913
2011-12-26,0.27610142175556496
2011-12-27,0.38058438012014073
2011-12-28,0.543067001772939
2011-12-29,0.9199747421595433
2011-12-30,0.8922549299800046
2012-01-04,0.8333333333333605
2012-01-05,0.5121951219512423
2012-01-06,0.6481481481481592
2012-01-09,0.2978723404255343
2012-01-10,0.5498986926130812
2012-01-11,0.4851166688464912
2012-01-12,0.6664358870293923
2012-01-13,0.5242235555243604
2012-01-16,0.768863835676164
2012-01-17,0.7409995114913212
2012-01-18,0.8773286703880581
2012-01-19,0.6247992202193866
2012-01-20,0.8588082047862571
2012-01-30,0.8651685393258444
2012-01-31,0.6372549019607849
2012-02-01,0.6442307692307679
2012-02-02,0.6907216494845323
2012-02-03,0.3199999999999896
2012-02-06,0.018867924528296658
2012-02-07,0.07058823529411083
2012-02-08,0.09195402298850874
2012-02-09,0.11904761904762405
2012-02-10,0.13698630136986864
2012-02-13,0.7560975609756132
2012-02-14,0.8684210526315795
2012-02-15,0.6739130434782613
2012-02-16,0.7538812620361709
2012-02-17,0.8063807109682629
2012-02-20,0.7698840887908717
2012-02-21,0.3449658320031819
2012-02-22,0.5087619328542193
2012-02-23,0.16042195542489981
2012-02-24,0.13941555389675514
2012-02-27,0.09815236431499676
2012-02-28,0.2265326293338927
2012-02-29,0.12790697674420265
2012-03-01,0.3448275862069193
2012-03-02,0.5531914893617278
2012-03-05,0.9629629629629654
2012-03-06,0.9545454545454561
2012-03-07,0.5135135135135133
2012-03-08,0.6470588235294096
2012-03-09,0.5869565217391242
2012-03-12,0.6842105263157806
2012-03-13,0.48602217982557966
2012-03-14,0.7800279955593133
2012-03-15,0.5103082806628683
2012-03-16,0.5208733845989414
2012-03-19,0.3771071147333135
2012-03-20,0.4678926046548595
2012-03-21,0.013320219431749929
2012-03-22,0.12936335421777004
2012-03-23,0.12958594321974645
2012-03-26,0.4363636363636467
2012-03-27,0.4000000000000062
2012-03-28,0.8836906357004626
2012-03-29,0.6272982843660196
2012-03-30,0.6197482352790493
2012-04-05,0.5577183606020386
2012-04-06,0.8369941895307289
2012-04-09,0.7339610868455364
2012-04-10,0.9077851071178826
2012-04-11,0.8624746872423746
2012-04-12,0.8817139159289034
2012-04-13,0.3736263736263762
2012-04-16,0.34343434343434487
2012-04-17,0.22330097087378842
2012-04-18,0.2692307692307714
2012-04-19,0.03846153846153945
2012-04-20,0.0813953488372114
2012-04-23,0.13513513513513856
2012-04-24,0.1694915254237331
2012-04-25,0.06944444444444624
2012-04-26,0.19230769230769498
2012-04-27,0.10714285714285997
2012-05-02,0.3058848322006303
2012-05-03,0.40518292224113733
2012-05-04,0.6804832431886154
2012-05-07,0.6806208605086259
2012-05-08,0.8339298873565512
2012-05-09,0.530290641492593
2012-05-10,0.42933261085516466
2012-05-11,0.7814888700151743
2012-05-14,0.9506234491799095
2012-05-15,0.9506172839506077
2012-05-16,1.0
2012-05-17,0.9908256880733995
2012-05-18,0.9913043478260917
2012-05-21,0.5962261021555137
2012-05-22,0.5364671608572182
2012-05-23,0.2359361696799715
2012-05-24,0.32797381940630227
2012-05-25,0.1031323631999694
2012-05-28,0.2138811156158407
2012-05-29,0.2580322006024251
2012-05-30,0.3734554613698188
2012-05-31,0.26331101012981084
2012-06-01,1.0
2012-06-04,0.8000000000000247
2012-06-05,0.8800000000000113
2012-06-06,0.647058823529422
2012-06-07,0.39130434782609297
2012-06-08,0.40425531914893337
2012-06-11,0.44444444444443615
2012-06-12,0.852941176470588
2012-06-13,0.8529411764705899
2012-06-14,0.8430232558139562
2012-06-15,0.8081395348837292
2012-06-18,0.8114285714285802
2012-06-19,0.021276595744682134
2012-06-20,0.021857923497269068
2012-06-21,0.06395348837208861
2012-06-25,0.06508875739644458
2012-06-26,0.1813471502590609
2012-06-27,0.8409090909090776
2012-06-28,0.9523809523809432
2012-06-29,0.9673913043478205
2012-07-02,1.0
2012-07-03,0.7422226695458054
2012-07-04,0.718382495281429
2012-07-05,0.5821710915665281
2012-07-06,0.23866305079123945
2012-07-09,0.0
2012-07-10,0.0
2012-07-11,0.0
2012-07-12,0.0
2012-07-13,0.22237541417421497
2012-07-16,0.48418855378257863
2012-07-17,0.7860230804958793
2012-07-18,0.6876289304244515
2012-07-19,0.8333333333333435
2012-07-20,0.7500000000000092
2012-07-23,0.7619047619047802
2012-07-24,0.7368421052631815
2012-07-25,1.0
2012-07-26,1.0
2012-07-27,1.0
2012-07-30,1.0
2012-07-31,0.6724137931034444
2012-08-01,0.5869565217391246
2012-08-02,0.44736842105264174
2012-08-03,0.2857142857142868
2012-08-06,0.03448275862068574
2012-08-07,0.04999999999999467
2012-08-08,0.0
2012-08-09,0.0
2012-08-10,0.34693877551018965
2012-08-13,0.6071428571428283
2012-08-14,0.7435897435897243
2012-08-15,0.5918367346938622
2012-08-16,0.8787878787878781
2012-08-17,0.6730769230769235
2012-08-20,0.70940170940171
2012-08-21,0.6909090909090893
2012-08-22,0.7799999999999985
2012-08-23,0.21052631578947062
2012-08-24,0.2666666666666644
2012-08-27,0.1076923076922999
2012-08-28,0.02564102564102331
2012-08-29,0.0
2012-08-30,0.11111111111110802
2012-08-31,0.0937499999999971
2012-09-03,0.08823529411764577
2012-09-04,0.47999999999999743
2012-09-05,0.4799999999999977
2012-09-06,0.32142857142857434
2012-09-07,0.6363636363636476
2012-09-10,0.8205128205128287
2012-09-11,0.7812500000000095
2012-09-12,0.8181818181818336
2012-09-13,0.9310344827585916
2012-09-14,0.9801980198019716
2012-09-17,0.9166666666666619
2012-09-18,0.851485148514847
2012-09-19,0.8706687633962659
2012-09-20,0.8879020617446209
2012-09-21,0.16940067490308355
2012-09-24,0.17404185577407547
2012-09-25,0.17564628997744136
2012-09-26,0.019495110915181437
2012-09-27,0.28553709974614194
2012-09-28,0.5795106756732371
2012-10-08,0.5881650170476013
2012-10-09,0.6451612903225757
2012-10-10,0.6779661016949041
2012-10-11,0.0
2012-10-12,0.3124999999999953
2012-10-15,0.3174603174603142
2012-10-16,0.317460317460326
2012-10-17,0.3636363636363733
2012-10-18,0.5714285714285715
2012-10-19,2.936035085626819e-14
2012-10-22,2.8192351886694485e-14
2012-10-23,0.4567797618260863
2012-10-24,0.6216647872413866
2012-10-25,0.8219936154202143
2012-10-26,0.9665086245116623
2012-10-29,1.0
2012-10-30,0.76902308667144
2012-10-31,0.37227497909829904
2012-11-01,0.14285714285714673
2012-11-02,0.0749999999999977
2012-11-05,0.2448979591836615
2012-11-06,0.37499999999998607
2012-11-07,0.7499999999999721
2012-11-08,0.6521739130434764
2012-11-09,0.7407407407407465
2012-11-12,0.47058823529413557
2012-11-13,0.20833333333334675
2012-11-14,0.48386696120442196
2012-11-15,0.7117597684288235
2012-11-16,0.618469713245489
2012-11-19,0.49300911854103446
2012-11-20,0.6726681914537507
2012-11-21,0.46756418949277273
2012-11-22,0.15965372826317725
2012-11-23,0.13277345918933758
2012-11-26,0.15413294268448816
2012-11-27,0.04999999999998169
2012-11-28,0.0434782608695496
2012-11-29,0.19444444444442238
2012-11-30,0.6046511627906968
2012-12-03,0.7735849056603852
2012-12-04,0.7931034482758739
2012-12-05,1.0
2012-12-06,0.9827586206896587
2012-12-07,0.6785714285714328
2012-12-10,0.3650793650793589
2012-12-11,0.2282004402820726
2012-12-12,0.0
2012-12-13,0.0
2012-12-14,0.0
2012-12-17,0.12060677062295881
2012-12-18,0.16131298122385407
2012-12-19,0.15632526966176918
2012-12-20,0.40384779403703197
2012-12-21,0.3780784103482578
2012-12-24,0.33333333333330556
2012-12-25,0.5555555555555369
2012-12-26,0.5555555555555215
2012-12-27,0.3199999999999596
2012-12-28,0.5238095238094889
2012-12-31,0.761904761904753
2013-01-04,0.7619047619047573
2013-01-07,0.880952380952383
2013-01-08,1.0
2013-01-09,0.9782608695652175
2013-01-10,0.5238095238095282
2013-01-11,0.4324324324324237
2013-01-14,0.4473684210526119
2013-01-15,0.2142857142857036
2013-01-16,0.2999999999999999
2013-01-17,0.8551997327351682
2013-01-18,0.6972644849994651
2013-01-21,0.6925994705441283
2013-01-22,0.7636246980676508
2013-01-23,0.8366117082333342
2013-01-24,0.7500134879957019
2013-01-25,0.9685092197540792
2013-01-28,0.7768802978395566
2013-01-29,0.674634451156016
2013-01-30,0.6142857142857351
2013-01-31,0.6056338028169147
2013-02-01,0.0
2013-02-04,0.09615384615385318
2013-02-05,0.11342065299924739
2013-02-06,0.151961241032323
2013-02-07,0.36983315797384064
2013-02-08,0.7399999999999785
2013-02-18,0.718036529680331
2013-02-19,0.8255385487528265
2013-02-20,0.5555097412637968
2013-02-21,0.3048656499636937
2013-02-22,0.3563062298421473
2013-02-25,0.8504672897196364
2013-02-26,0.8504672897196347
2013-02-27,0.9781021897810234
2013-02-28,0.8993288590604039
2013-03-01,0.9078947368421038
2013-03-04,0.34868421052631143
2013-03-05,0.29012345679012086
2013-03-06,0.025157232704400827
2013-03-07,0.08441558441558132
2013-03-08,0.055528412507515064
2013-03-11,0.3495009070008812
2013-03-12,0.4433609433211552
2013-03-13,0.7590550205901542
2013-03-14,0.6936797600549373
2013-03-15,0.9534372237727793
2013-03-18,0.6481773479566109
2013-03-19,0.7382129789767465
2013-03-20,0.7714050260819322
2013-03-21,0.6326530612244903
2013-03-22,0.36170212765957954
2013-03-25,0.2575757575757581
2013-03-26,0.03448275862067895
2013-03-27,0.0
2013-03-28,0.0
2013-03-29,0.32692307692306416
2013-04-01,0.7419354838709483
2013-04-02,0.8214285714285338
2013-04-03,0.8857142857142573
2013-04-08,0.8378378378378083
2013-04-09,0.3888888888888692
2013-04-10,0.20472941924993282
2013-04-11,0.28633318770934674
2013-04-12,0.08170102077012797
2013-04-15,0.6010698018310827
2013-04-16,0.8724289805375947
2013-04-17,0.9574325996971831
2013-04-18,0.9670147795557673
2013-04-19,1.0
2013-04-22,0.8749244131713483
2013-04-23,0.5704225352112681
2013-04-24,0.47014925373134314
2013-04-25,0.18115942028985488
2013-04-26,0.0
2013-05-02,0.28965517241379296
2013-05-03,0.38532110091743255
2013-05-06,0.4672897196261672
2013-05-07,0.7692307692307697
2013-05-08,0.7352941176470508
2013-05-09,0.08791208791208487
2013-05-10,0.09195402298850405
2013-05-13,0.0
2013-05-14,0.0
2013-05-15,0.0
2013-05-16,0.11111111111109188
2013-05-17,0.6752136752136653
2013-05-20,0.7596153846153788
2013-05-21,0.8431372549019628
2013-05-22,0.9677419354838703
2013-05-23,0.9340659340659334
2013-05-24,0.12941176470587953
2013-05-27,0.12643678160919192
2013-05-28,0.04705882352940586
2013-05-29,9.584249032515894e-15
2013-05-30,9.70011824743092e-15
2013-05-31,4.2931367411827814e-14
2013-06-03,0.4556962025316933
2013-06-04,0.6765435660704335
2013-06-05,0.6756663304999481
2013-06-06,0.8513618265741209
2013-06-07,0.9991431182877549
2013-06-13,0.999577163045927
2013-06-14,0.9995415974818395
2013-06-17,1.0
2013-06-18,0.7499999999999923
2013-06-19,0.692307692307685
2013-06-20,0.06896551724137215
2013-06-21,0.17817470026912746
2013-06-24,0.11707531503369317
2013-06-25,0.393127296304294
2013-06-26,0.4049005171055704
2013-06-27,0.4714220210920831
2013-06-28,0.3046843177189429
2013-07-01,0.34016561931050737
2013-07-02,0.5456628698523935
2013-07-03,0.5679888871739396
2013-07-04,0.7586206896551587
2013-07-05,0.9607843137254749
2013-07-08,0.8888888888888816
2013-07-09,0.06756756756757318
2013-07-10,0.06756756756758397
2013-07-11,0.11842105263159972
2013-07-12,0.051948051948067404
2013-07-15,0.06756756756757824
2013-07-16,0.35714285714287336
2013-07-17,0.26315789473682544
2013-07-18,0.04761904761902681
2013-07-19,0.3333333333333081
2013-07-22,0.26086956521738686
2013-07-23,0.44
2013-07-24,0.5714285714285903
2013-07-25,0.6666666666666886
2013-07-26,0.28571428571431
2013-07-29,0.8536585365853685
2013-07-30,0.83333333333334
2013-07-31,0.8470588235294169
2013-08-01,0.8913043478260927
2013-08-02,0.9887640449438244
2013-08-05,0.27586206896551696
2013-08-06,0.27906976744185774
2013-08-07,0.19277108433734827
2013-08-08,0.17283950617283386
2013-08-09,0.22988505747126045
2013-08-12,0.9122807017543773
2013-08-13,0.9305555555555545
2013-08-14,1.0
2013-08-15,1.0
2013-08-16,1.0
2013-08-19,0.9268292682926785
2013-08-20,0.932584269662917
2013-08-21,0.9240506329113874
2013-08-22,0.9302325581395297
2013-08-23,0.3999999999999981
2013-08-26,0.40476190476190677
2013-08-27,0.11764705882352432
2013-08-28,0.10810810810810285
2013-08-29,0.0
2013-08-30,0.0
2013-09-02,0.0
2013-09-03,0.3299999999999973
2013-09-04,0.3695652173913091
2013-09-05,0.5820895522388085
2013-09-06,0.6842105263157964
2013-09-09,0.9787234042553192
2013-09-10,0.31707317073173336
2013-09-11,0.26086956521740234
2013-09-12,0.19047619047617884
2013-09-13,0.18604651162789718
2013-09-16,0.5679012345679032
2013-09-17,0.8896951535983258
2013-09-18,0.9759566947285776
2013-09-23,0.9825148555426573
2013-09-24,1.0
2013-09-25,0.6533647276986093
2013-09-26,0.49775465195569274
2013-09-27,0.3691743401646692
2013-09-30,0.07249038695113906
2013-10-08,0.0
2013-10-09,0.0
2013-10-10,0.19540229885056765
2013-10-11,0.27500000000000296
2013-10-14,0.8315789473684179
2013-10-15,0.9230769230769218
2013-10-16,1.0
2013-10-17,0.9767441860465185
2013-10-18,0.97701149425288
2013-10-21,0.38888888888889656
2013-10-22,0.15714285714286186
2013-10-23,0.3444444444444369
2013-10-24,0.31313131313130405
2013-10-25,0.3333333333333241
2013-10-28,0.515151515151508
2013-10-29,0.6851851851851877
2013-10-30,0.2553191489361771
2013-10-31,0.7735849056603833
2013-11-01,0.7600000000000035
2013-11-04,0.7524752475247487
2013-11-05,0.7156862745097985
2013-11-06,0.7227722772277182
2013-11-07,0.02777777777776652
2013-11-08,0.0
2013-11-11,0.05468750000000391
2013-11-12,0.08593750000000475
2013-11-13,0.11504424778761785
2013-11-14,0.4772727272727427
2013-11-15,1.0
2013-11-18,0.9135108000767677
2013-11-19,0.9166002277904238
2013-11-20,0.9128740555654589
2013-11-21,0.8891181314001073
2013-11-22,0.8078966354036159
2013-11-25,0.9999999999999548
2013-11-26,0.35518462648383986
2013-11-27,0.19541711421407482
2013-11-28,0.0
2013-11-29,0.0
2013-12-02,0.16216216216217275
2013-12-03,0.19354838709678682
2013-12-04,0.22222222222224883
2013-12-05,0.37500000000004746
2013-12-06,0.8000000000000649
2013-12-09,0.14285714285715143
2013-12-10,0.10526315789474604
2013-12-11,0.4838709677419414
2013-12-12,0.5
2013-12-13,0.5151515151515099
2013-12-16,0.7600000000000168
2013-12-17,1.0
2013-12-18,1.0
2013-12-19,1.0
2013-12-20,1.0
2013-12-23,1.0
2013-12-24,0.8809523809523798
2013-12-25,0.6818181818181809
2013-12-26,0.41428571428571037
2013-12-27,0.2205882352941151
2013-12-30,0.0
2013-12-31,0.15873015873015836
2014-01-02,0.19230769230769043
2014-01-03,0.18518518518518318
2014-01-06,0.2083333333333319
2014-01-07,0.2631161684465731
2014-01-08,0.0
2014-01-09,0.32242424242424084
2014-01-10,0.5176223306933095
2014-01-13,0.6108459129201471
2014-01-14,0.5998065764023296
2014-01-15,0.9870111924830786
2014-01-16,0.9836044605169896
2014-01-17,0.8793029654539917
2014-01-20,0.8545454545454577
2014-01-21,0.8999999999999965
2014-01-22,0.32786885245900754
2014-01-23,0.225048952930443
2014-01-24,0.34506662886305495
2014-01-27,0.3661877153180404
2014-01-28,0.5016846138600806
2014-01-29,0.7777256426584466
2014-01-30,0.8463726884779594
2014-02-07,0.6230176710466725
2014-02-10,0.5570838196788569
2014-02-11,0.012747491185243163
2014-02-12,0.0
2014-02-13,0.014705882352943928
2014-02-14,0.05454545454546509
2014-02-17,0.1636363636363667
2014-02-18,0.28124999999999906
2014-02-19,0.49999999999998196
2014-02-20,0.5940006266990527
2014-02-21,0.5091811923708187
2014-02-24,0.6111392563404789
2014-02-25,0.891619201364558
2014-02-26,0.7184789961313617
2014-02-27,0.6356661454189699
2014-02-28,0.7526346802159992
2014-03-03,0.8015145290930716
2014-03-04,0.7118712989554514
2014-03-05,0.9069767441860523
2014-03-06,0.9571428571428563
2014-03-07,0.9577464788732384
2014-03-10,0.7735849056603697
2014-03-11,0.8860759493670846
2014-03-12,0.891566265060237
2014-03-13,0.6052631578947422
2014-03-14,0.6202531645569695
2014-03-17,0.46666666666667084
2014-03-18,0.1904761904761943
2014-03-19,0.06194690265487012
2014-03-20,0.11458333333333386
2014-03-21,0.04210526315789261
2014-03-24,0.06666666666666297
2014-03-25,0.11764705882352228
2014-03-26,0.19959414407883927
2014-03-27,0.0
2014-03-28,0.16805431555344044
2014-03-31,0.2698797376093408
2014-04-01,0.2566986723976714
2014-04-02,0.49556231003039913
2014-04-03,0.8357016195767974
2014-04-04,0.8046387405116744
2014-04-08,0.4695391211146598
2014-04-09,0.5517241379310002
2014-04-10,0.11999999999997117
2014-04-11,0.15384615384610964
2014-04-14,0.09999999999998906
2014-04-15,0.548387096774221
2014-04-16,0.7254901960784507
2014-04-17,0.8837209302325654
2014-04-18,0.7446808510638415
2014-04-21,0.7954545454545572
2014-04-22,0.6562500000000056
2014-04-23,0.04999999999999395
2014-04-24,0.0
2014-04-25,0.5333333333333434
2014-04-28,0.4324324324324353
2014-04-29,0.37209302325581556
2014-04-30,0.3333333333333391
2014-05-05,0.3199999999999964
2014-05-06,0.0
2014-05-07,0.0
2014-05-08,0.0
2014-05-09,0.0
2014-05-12,0.3809523809523799
2014-05-13,0.5769230769230713
2014-05-14,0.7894736842105236
2014-05-15,0.9365079365079256
2014-05-16,1.0
2014-05-19,1.0
2014-05-20,0.7243906810035746
2014-05-21,0.6800324565555432
2014-05-22,0.2624265380841441
2014-05-23,0.08695938289134013
2014-05-26,0.17469120494644538
2014-05-27,0.36546300910080587
2014-05-28,0.2675631878170825
2014-05-29,0.6605755272820518
2014-05-30,0.7463670411985213
2014-06-03,0.4969020055437913
2014-06-04,0.3860923199363083
2014-06-05,0.31717881660670316
2014-06-06,0.31671973487553035
2014-06-09,0.12299465240639829
2014-06-10,0.835491697848452
2014-06-11,0.8887527058149046
2014-06-12,0.9574337942583256
2014-06-13,0.9637820266707625
2014-06-16,0.9938588773535121
2014-06-17,0.47674006705714717
2014-06-18,0.20593650131999466
2014-06-19,0.4151785714285747
2014-06-20,0.3190476190476213
2014-06-23,0.3486238532110105
2014-06-24,0.6601307189542501
2014-06-25,0.8347107438016449
2014-06-26,0.3063063063063024
2014-06-27,0.31775700934578965
2014-06-30,0.2626262626262674
2014-07-01,0.011627906976755364
2014-07-02,0.2935779816513849
2014-07-03,0.7014925373134367
2014-07-04,0.8356164383561676
2014-07-07,0.8219178082191634
2014-07-08,0.9855072463767917
2014-07-09,0.6981132075471522
2014-07-10,0.3492063492063403
2014-07-11,0.11267605633802583
2014-07-14,0.12676056338028857
2014-07-15,0.012500000000006966
2014-07-16,0.01219512195122645
2014-07-17,0.016666666666676305
2014-07-18,0.05128205128206003
2014-07-21,0.022727272727267225
2014-07-22,0.1875000000000164
2014-07-23,0.67857142857143
2014-07-24,0.6785714285714299
2014-07-25,0.9256198347107423
2014-07-28,0.9856502242152482
2014-07-29,0.9873234309533849
2014-07-30,0.9894331000999582
2014-07-31,1.0
2014-08-01,0.7802085840802087
2014-08-04,0.5101622794718282
2014-08-05,0.42586260491140737
2014-08-06,0.19905748639939042
2014-08-07,0.0
2014-08-08,0.0451612903225793
2014-08-11,0.06603773584905417
2014-08-12,0.07368421052631288
2014-08-13,0.15217391304347883
2014-08-14,0.5116279069767429
2014-08-15,0.2884615384615462
2014-08-18,0.5555555555555727
2014-08-19,0.3703703703703846
2014-08-20,0.2777777777777869
2014-08-21,0.07042253521127295
2014-08-22,0.07812500000000615
2014-08-25,0.169014084507045
2014-08-26,0.30508474576271427
2014-08-27,0.5306122448979568
2014-08-28,0.500000000000004
2014-08-29,0.6382978723404277
2014-09-01,0.4499999999999888
2014-09-02,0.6507936507936433
2014-09-03,0.6615384615384554
2014-09-04,0.9090909090908958
2014-09-05,0.920634920634909
2014-09-09,1.0
2014-09-10,1.0
2014-09-11,1.0
2014-09-12,0.87755102040816
2014-09-15,0.6199999999999942
2014-09-16,0.3235294117647027
2014-09-17,0.10989010989010828
2014-09-18,0.0
2014-09-19,0.0
2014-09-22,0.2964984523889304
2014-09-23,0.4449872330423811
2014-09-24,0.6284300251179677
2014-09-25,0.8697426239799094
2014-09-26,1.0
2014-09-29,0.3922924349797878
2014-09-30,0.3367584775086491
2014-10-08,0.18072289156626958
2014-10-09,0.2527472527472488
2014-10-10,0.358490566037733
2014-10-13,0.6428571428571399
2014-10-14,0.41975308641975195
2014-10-15,0.6857142857142875
2014-10-16,0.7884615384615435
2014-10-17,0.7608695652173979
2014-10-20,0.7684210526315856
2014-10-21,1.0
2014-10-22,1.0
2014-10-23,0.28010352059256616
2014-10-24,0.15563327336680594
2014-10-27,0.05613834281264111
2014-10-28,0.09280262217735293
2014-10-29,0.049256414615168824
2014-10-30,0.08427713975972709
2014-10-31,0.23139116544435614
2014-11-03,0.7654840135133111
2014-11-04,0.7710771285847416
2014-11-05,0.9999999999999954
2014-11-06,1.0
2014-11-07,1.0
2014-11-10,0.5579958597489955
2014-11-11,0.39621767867518426
2014-11-12,0.12061743373567856
2014-11-13,0.023622047244087636
2014-11-14,6.896979944677142e-15
2014-11-17,0.11235955056180821
2014-11-18,0.2816901408450891
2014-11-19,0.5833333333333598
2014-11-20,1.0
2014-11-21,0.8750000000000043
2014-11-24,0.8636363636363653
2014-11-25,0.47368421052630755
2014-11-26,0.6296296296296233
2014-11-27,0.6666666666666619
2014-11-28,0.7741935483870942
2014-12-01,0.6666666666666664
2014-12-02,0.9583333333333374
2014-12-03,0.9666666666666711
2014-12-04,0.9761904761904796
2014-12-05,0.9800000000000032
2014-12-08,0.7313432835820958
2014-12-09,0.6562500000000107
2014-12-10,0.38571428571429767
2014-12-11,0.3676470588235369
2014-12-12,0.2711864406779598
2014-12-15,0.3800891957991548
2014-12-16,0.624504708485557
2014-12-17,0.9908851542027783
2014-12-18,0.9902927601567076
2014-12-19,0.9948790362537318
2014-12-22,1.0
2014-12-23,1.0
2014-12-24,0.884918049220588
2014-12-25,0.888755647613162
2014-12-26,0.3298429319371708
2014-12-29,0.13513513513513764
2014-12-30,0.11724137931034047
2014-12-31,0.13281249999999525
2015-01-05,0.03571428571428142
2015-01-06,0.562158073868642
2015-01-07,0.42304572813553093
2015-01-08,0.30642850586822634
2015-01-09,0.22752377848232874
2015-01-12,0.2644043868257552
2015-01-13,0.0
2015-01-14,0.2907646779306268
2015-01-15,0.5253421683757837
2015-01-16,0.7366767642769007
2015-01-19,0.8181818181818185
2015-01-20,0.9642857142857149
2015-01-21,0.6233766233766233
2015-01-22,0.3984962406015063
2015-01-23,0.3162393162393164
2015-01-26,0.0
2015-01-27,0.0
2015-01-28,0.027397260273973708
2015-01-29,0.024390243902440524
2015-01-30,0.019230769230770373
2015-02-02,0.06153846153847255
2015-02-03,0.13311027153736466
2015-02-04,0.17589572492096966
2015-02-05,0.341836429178813
2015-02-06,0.5118351683821822
2015-02-09,0.346733224367191
2015-02-10,0.15501601793071373
2015-02-11,0.003809905754947264
2015-02-12,0.4671738477598589
2015-02-13,0.7415450357652125
2015-02-16,0.826086956521732
2015-02-17,0.9868421052631506
2015-02-25,1.0
2015-02-26,0.6097560975609833
2015-02-27,0.2750000000000076
2015-03-02,0.26582278481012106
2015-03-03,0.0374999999999849
2015-03-04,0.022988505747120178
2015-03-05,0.24372464428932883
2015-03-06,0.3413122672015007
2015-03-09,0.5303545892310031
2015-03-10,0.7425113510165083
2015-03-11,0.8765290714443442
2015-03-12,0.8257282773979829
2015-03-13,1.0
2015-03-16,0.31446028513233215
2015-03-17,0.42196606240135304
2015-03-18,0.4883720930232231
2015-03-19,0.5319148936169974
2015-03-20,0.48837209302325346
2015-03-23,1.0
2015-03-24,1.0
2015-03-25,1.0
2015-03-26,0.7200000000000095
2015-03-27,0.754385964912287
2015-03-30,0.48333333333333395
2015-03-31,0.14516129032259278
2015-04-01,0.15967442964254877
2015-04-02,0.590354585820811
2015-04-03,0.6186980647763942
2015-04-07,0.7451749392035358
2015-04-08,1.0
2015-04-09,0.9223789059002562
2015-04-10,0.8941659749011129
2015-04-13,0.9029029981968193
2015-04-14,0.9507189367864235
2015-04-15,0.9507042253521089
2015-04-16,1.0
2015-04-17,0.862745098039212
2015-04-20,0.7943262411347525
2015-04-21,0.32283464566930403
2015-04-22,0.16379310344828188
2015-04-23,0.37820512820512975
2015-04-24,0.3597560975609802
2015-04-27,0.37579617834395224
2015-04-28,0.5940594059405964
2015-04-29,0.5454545454545491
2015-04-30,0.007518796992479502
2015-05-04,0.008620689655170436
2015-05-05,0.3254437869822503
2015-05-06,0.303370786516856
2015-05-07,0.5068897520370995
2015-05-08,0.8531940206858168
2015-05-11,0.9323496225974613
2015-05-12,0.5053825197604641
2015-05-13,0.6080637590455662
2015-05-14,0.3290767768091656
2015-05-15,0.2448195584152833
2015-05-18,0.21019866358748163
2015-05-19,0.43507170022275415
2015-05-20,0.10344827586206089
2015-05-21,0.3877551020408099
2015-05-22,0.3157894736842093
2015-05-25,0.20547945205480098
2015-05-26,0.17142857142856613
2015-05-27,0.37777777777777144
2015-05-28,0.11666666666665841
2015-05-29,0.11864406779660247
2015-06-01,0.3399999999999996
2015-06-02,0.24193548387097333
2015-06-03,0.20449383413107972
2015-06-04,0.5615159116322797
2015-06-05,0.6905779252333383
2015-06-08,0.6144965658337076
2015-06-09,1.0
2015-06-10,0.5028740263228721
2015-06-11,0.13586213726850038
2015-06-12,0.5664884631436707
2015-06-15,0.5319682327049998
2015-06-16,0.5487804878048685
2015-06-17,0.7777777777777595
2015-06-18,0.9529411764705796
2015-06-19,0.42553191489361
2015-06-23,0.5535714285714273
2015-06-24,0.5726495726495788
2015-06-25,0.5689655172413919
2015-06-26,0.3306451612903318
2015-06-29,0.7155172413793077
2015-06-30,0.6039603960396072
2015-07-01,0.7014925373134288
2015-07-02,0.7687861271676271
2015-07-03,0.9570552147239301
2015-07-06,0.8507462686567289
2015-07-07,0.9000000000000087
2015-07-08,0.8645833333333466
2015-07-09,0.8796296296296405
2015-07-10,0.8673469387755214
2015-07-13,0.889684331713167
2015-07-14,0.8914458725257864
2015-07-15,0.5352558350663449
2015-07-16,0.0996413658442191
2015-07-17,0.024231437139333123
2015-07-20,0.025672288830183253
2015-07-21,0.0
2015-07-22,0.12540910723244011
2015-07-23,0.29135361299145995
2015-07-24,0.666221620469597
2015-07-27,0.551969297243394
2015-07-28,0.568846571720633
2015-07-29,0.6251407618356204
2015-07-30,0.5924684568671642
2015-07-31,0.34407447675998937
2015-08-03,0.5344942481819881
2015-08-04,0.7115384615384607
2015-08-05,0.3488372093023214
2015-08-06,0.3308823529411736
2015-08-07,0.3543307086614163
2015-08-10,0.3970588235294144
2015-08-11,0.31092436974790744
2015-08-12,0.6455696202531818
2015-08-13,0.9083333333333394
2015-08-14,1.0
2015-08-17,0.7593984962406065
2015-08-18,0.6595744680851059
2015-08-19,0.6689655172413773
2015-08-20,0.27857142857142553
2015-08-21,0.5683760683760689
2015-08-24,0.7195121951219483
2015-08-25,0.8209459459459462
2015-08-26,0.7978723404255342
2015-08-27,0.9842519685039397
2015-08-28,0.555555555555555
2015-08-31,0.37295081967213445
2015-09-01,0.10460251046025187
2015-09-02,0.10080645161290354
2015-09-07,0.0
2015-09-08,0.0
2015-09-09,0.0
2015-09-10,0.0
2015-09-11,0.0
2015-09-14,0.0
2015-09-15,0.0
2015-09-16,0.0
2015-09-17,0.0
2015-09-18,0.0
2015-09-21,0.2768988542378057
2015-09-22,0.3666666666666731
2015-09-23,0.5000000000000141
2015-09-24,0.6949152542372974
2015-09-25,0.9534883720930307
2015-09-28,0.39583333333334253
2015-09-29,0.5555555555555534
2015-09-30,0.8068965517241368
2015-10-08,0.8108108108108085
2015-10-09,0.8888888888888876
2015-10-12,1.0
2015-10-13,1.0
2015-10-14,0.5658914728682184
2015-10-15,0.5177865612648266
2015-10-16,0.15021459227468234
2015-10-19,0.033057851239672725
2015-10-20,0.15217391304347805
2015-10-21,0.4134615384615371
2015-10-22,0.5044247787610594
2015-10-23,0.7791411042944758
2015-10-26,1.0
2015-10-27,0.5911949685534605
2015-10-28,0.32467532467532606
2015-10-29,0.14666666666666753
2015-10-30,0.05960264900662408
2015-11-02,0.0
2015-11-03,0.0
2015-11-04,0.494382022471911
2015-11-05,0.7407407407407423
2015-11-06,0.72289156626505
2015-11-09,0.6741573033707792
2015-11-10,0.7999999999999975
2015-11-11,0.5200632945926736
2015-11-12,0.4626418875163421
2015-11-13,0.674436807737261
2015-11-16,0.784794168665105
2015-11-17,0.7322578362697244
2015-11-18,1.0
2015-11-19,1.0
2015-11-20,1.0
2015-11-23,1.0
2015-11-24,1.0
2015-11-25,0.9203980099502487
2015-11-26,0.9241706161137443
2015-11-27,0.8260869565217389
2015-11-30,0.47169811320754645
2015-12-01,0.20212765957446888
2015-12-02,0.21111111111111253
2015-12-03,0.0
2015-12-04,0.0
2015-12-07,0.036225258715964166
2015-12-08,0.0495386877159711
2015-12-09,0.11732643285800787
2015-12-10,0.09780557069504556
2015-12-11,0.18219488790019628
2015-12-14,0.10482900315084663
2015-12-15,0.3246676605789509
2015-12-16,0.20161290322580366
2015-12-17,0.44318181818181557
2015-12-18,0.3829787234042537
2015-12-21,0.5959595959595952
2015-12-22,0.3936170212765967
2015-12-23,0.6904761904761856
2015-12-24,0.4489795918367306
2015-12-25,0.44444444444444586
2015-12-28,0.24137931034482063
2015-12-29,0.29166666666666047
2015-12-30,0.0
2015-12-31,0.0
2016-01-04,0.32692307692307404
2016-01-05,0.33333333333334114
2016-01-06,0.3333333333333385
2016-01-07,0.7500000000000079
2016-01-08,0.8983050847457681
2016-01-11,0.8396226415094429
2016-01-12,0.9314292744251521
2016-01-13,0.9524502668607504
2016-01-14,0.521614893906529
2016-01-15,0.2805104129047704
2016-01-18,0.5201495320384054
2016-01-19,0.5026197273620655
2016-01-20,0.555196441438253
2016-01-21,0.8131233339636664
2016-01-22,0.4792225201072455
2016-01-25,0.15384615384615363
2016-01-26,0.12396694214875689
2016-01-27,0.027522935779819353
2016-01-28,0.0309278350515492
2016-01-29,0.5777777777777716
2016-02-01,0.9374999999999905
2016-02-02,0.8749999999999972
2016-02-03,0.8159999999999966
2016-02-04,0.8662790697674413
2016-02-05,0.6434782608695637
2016-02-15,0.5940594059405944
2016-02-16,0.7400000000000009
2016-02-17,0.7956989247311829
2016-02-18,0.30428181749931527
2016-02-19,0.28648733555861294
2016-02-22,0.16909542796860386
2016-02-23,0.4473613795153851
2016-02-24,0.39984587585033904
2016-02-25,0.6468525651689816
2016-02-26,0.6431488809435939
2016-02-29,0.6141014815849737
2016-03-01,0.19061624649859743
2016-03-02,0.2857142857142843
2016-03-03,0.08641975308642019
2016-03-04,0.11290322580645148
2016-03-07,0.32394366197183594
2016-03-08,0.8426966292134889
2016-03-09,0.8851175402017056
2016-03-10,0.8993544280778253
2016-03-11,0.9446911839134661
2016-03-14,0.7488049464823807
2016-03-15,0.3086654150924507
2016-03-16,0.07210995687169491
2016-03-17,0.17129019304785173
2016-03-18,0.10239105103705311
2016-03-21,0.178569323841824
2016-03-22,0.3106796116504834
2016-03-23,0.629032258064502
2016-03-24,0.25333333333332575
2016-03-25,0.2923076923076878
2016-03-28,0.07954545454544876
2016-03-29,0.11904761904761706
2016-03-30,0.2673267326732757
2016-03-31,0.5773195876288706
2016-04-01,0.6634615384615344
2016-04-05,1.0
2016-04-06,0.98648648648648
2016-04-07,0.6901408450704097
2016-04-08,0.3921568627450802
2016-04-11,0.5156250000000039
2016-04-12,0.47457627118644596
2016-04-13,0.7196261682243015
2016-04-14,0.9100000000000019
2016-04-15,0.9111363610795481
2016-04-18,0.5921429741238159
2016-04-19,0.6327625297229562
2016-04-20,0.2738285264469882
2016-04-21,0.14635394257939136
2016-04-22,0.47014339903430524
2016-04-25,0.7703654039557504
2016-04-26,0.7930092441276062
2016-04-27,0.8736344366541678
2016-04-28,0.8520710059171612
2016-04-29,0.5535714285714266
2016-05-03,0.19875776397515552
2016-05-04,0.0
2016-05-05,0.0534351145038192
2016-05-06,0.29113924050633017
2016-05-09,0.4070796460177028
2016-05-10,0.7867235032950969
2016-05-11,0.5642076998439747
2016-05-12,0.6503053640711324
2016-05-13,0.3735667362312644
2016-05-16,0.4286293315622864
2016-05-17,0.3842205022903122
2016-05-18,0.5911004381168771
2016-05-19,0.1236404369873403
2016-05-20,0.09011895878144074
2016-05-23,0.06976744186046512
2016-05-24,0.06976744186046512
2016-05-25,0.0975609756097472
2016-05-26,0.061538461538455706
2016-05-27,0.19999999999998563
2016-05-30,0.09523809523808426
2016-05-31,0.19047619047618133
2016-06-01,0.2916666666666683
2016-06-02,0.6379310344827656
2016-06-03,0.5517241379310519
2016-06-06,0.7441860465116327
2016-06-07,0.6341463414634156
2016-06-08,0.2580645161290354
2016-06-13,0.0
2016-06-14,0.0
2016-06-15,0.427882593703567
2016-06-16,0.5705166277726611
2016-06-17,0.9322115870088508
2016-06-20,0.9188025457688481
2016-06-21,0.8501921855839095
2016-06-22,0.5718498597629308
2016-06-23,0.3079721844223549
2016-06-24,0.05983314402100931
2016-06-27,0.049134453943699107
2016-06-28,0.18333333333334542
2016-06-29,0.5616438356164518
2016-06-30,0.8541666666666744
2016-07-01,0.8526315789473737
2016-07-04,1.0
2016-07-05,1.0
2016-07-06,1.0
2016-07-07,0.8615384615384607
2016-07-08,0.7791737759164428
2016-07-11,0.6539379474940318
2016-07-12,0.06266437964550894
2016-07-13,0.0
2016-07-14,0.0
2016-07-15,0.08759124087591871
2016-07-18,0.26863226863227274
2016-07-19,0.6335562401382531
2016-07-20,0.5667809370168715
2016-07-21,0.8333333333333323
2016-07-22,0.7716535433070812
2016-07-25,0.7363636363636308
2016-07-26,0.7387387387387341
2016-07-27,0.9263157894736795
2016-07-28,0.5263157894736841
2016-07-29,0.6588235294117646
2016-08-01,0.5945945945945997
2016-08-02,0.2784810126582275
2016-08-03,0.3372093023255799
2016-08-04,0.3717948717948717
2016-08-05,0.2575757575757744
2016-08-08,0.16346153846154737
2016-08-09,0.26829268292683534
2016-08-10,0.1097560975609859
2016-08-11,0.36585365853660134
2016-08-12,0.25742574257426243
2016-08-15,0.6538461538461551
2016-08-16,0.611650485436898
2016-08-17,0.6702127659574496
2016-08-18,0.6265060240963795
2016-08-19,0.8987341772151907
2016-08-22,0.34122383388300537
2016-08-23,0.2788998459591643
2016-08-24,0.2544466124185041
2016-08-25,0.15452274822122228
2016-08-26,0.0
2016-08-29,0.05887985185341486
2016-08-30,0.1634274199436488
2016-08-31,0.28975165220013605
2016-09-01,0.9201479866311617
2016-09-02,1.0
2016-09-05,1.0
2016-09-06,1.0
2016-09-07,1.0
2016-09-08,0.6700507614213198
2016-09-09,0.27317073170731454
2016-09-12,0.20744680851063377
2016-09-13,0.16292134831460212
2016-09-14,0.06779661016948882
2016-09-19,0.09677419354838314
2016-09-20,0.5409836065573754
2016-09-21,0.2941982176231761
2016-09-22,0.2927200758011874
2016-09-23,0.6806759123183399
2016-09-26,0.7272388194385994
2016-09-27,0.7618065715959366
2016-09-28,0.8842770593920847
2016-09-29,0.9133501972530688
2016-09-30,0.778330419822967
2016-10-10,0.888066170160463
2016-10-11,0.6402439024390186
2016-10-12,0.6855345911949625
2016-10-13,0.5967741935483784
2016-10-14,0.49999999999999745
2016-10-17,0.0656934306569327
2016-10-18,0.09278350515463876
2016-10-19,0.053763440860213646
2016-10-20,0.0
2016-10-21,0.3079029159672999
2016-10-24,0.6699050491582561
2016-10-25,0.8676983296665624
2016-10-26,0.9202303480185726
2016-10-27,1.0
2016-10-28,0.8642180394254162
2016-10-31,0.8699076283797084
2016-11-01,0.7249101183918252
2016-11-02,0.18292682926828646
2016-11-03,0.12048192771084144
2016-11-04,0.14285714285713774
2016-11-07,0.3939393939393884
2016-11-08,0.39718317452994856
2016-11-09,0.6557413675614588
2016-11-10,0.8449869407881893
2016-11-11,0.9402381436933628
2016-11-14,0.9684409649044498
2016-11-15,1.0
2016-11-16,1.0
2016-11-17,1.0
2016-11-18,0.9797659001381547
2016-11-21,0.5951219512195122
2016-11-22,0.49390243902439085
2016-11-23,0.23225806451613143
2016-11-24,0.1438848920863316
2016-11-25,0.30182926829268314
2016-11-28,0.7631578947368424
2016-11-29,0.8005540166204981
2016-11-30,1.0
2016-12-01,0.9713656387665214
2016-12-02,0.9751908396946578
2016-12-05,0.7714285714285726
2016-12-06,0.6388308977035494
2016-12-07,0.3299232736572893
2016-12-08,0.3241206030150754
2016-12-09,0.0
2016-12-12,0.0
2016-12-13,0.0
2016-12-14,0.0
2016-12-15,0.0
2016-12-16,0.0
2016-12-19,0.12628191209945605
2016-12-20,0.4019580617501588
2016-12-21,0.6217876417702398
2016-12-22,0.5829787234042546
2016-12-23,0.7373271889400893
2016-12-26,0.7729083665338623
2016-12-27,0.41729323308270405
2016-12-28,0.42592592592592077
2016-12-29,0.5739130434782567
2016-12-30,0.4192307692307681
2017-01-03,0.09039548022598753
2017-01-04,0.12451361867704215
2017-01-05,0.056666666666666976
2017-01-06,0.0
2017-01-09,0.0
2017-01-10,0.3468208092485555
2017-01-11,0.3314917127071805
2017-01-12,0.5827814569536395
2017-01-13,0.7542857142857119
2017-01-16,0.9528795811518312
2017-01-17,0.9452624330060114
2017-01-18,1.0
2017-01-19,0.7799098972945052
2017-01-20,0.7237944031704876
2017-01-23,0.7716200214116659
2017-01-24,0.40055799456086527
2017-01-25,0.3551934966014266
2017-01-26,0.4684745238395791
2017-02-03,0.3770367959244286
2017-02-06,0.06953642384105793
2017-02-07,0.083999999999998
2017-02-08,0.3525641025641005
2017-02-09,0.3129251700680268
2017-02-10,0.3262411347517715
2017-02-13,0.6399999999999972
2017-02-14,0.8622448979591801
2017-02-15,0.6249999999999962
2017-02-16,0.6778523489932853
2017-02-17,0.8015873015873022
2017-02-20,0.4362416107382569
2017-02-21,0.19834710743801862
2017-02-22,0.17865021135999543
2017-02-23,0.0
2017-02-24,0.21971619912892928
2017-02-27,0.5987049223479861
2017-02-28,0.5571537753042426
2017-03-01,0.5428508692373056
2017-03-02,0.42619756103045364
2017-03-03,0.2543651911698631
2017-03-06,0.16846556892584127
2017-03-07,0.18055555555555755
2017-03-08,0.4160583941605806
2017-03-09,0.7122302158273374
2017-03-10,0.7983870967741911
2017-03-13,0.5703124999999954
2017-03-14,0.7094594594594563
2017-03-15,0.6993006993006998
2017-03-16,0.4496124031007765
2017-03-17,0.5028617396048142
2017-03-20,0.5633737161325786
2017-03-21,0.3573948243458257
2017-03-22,0.3757908114902071
2017-03-23,0.780984639435326
2017-03-24,0.8523931340817618
2017-03-27,0.9848198784005937
2017-03-28,1.0
2017-03-29,0.8190025414330214
2017-03-30,0.6713615023474154
2017-03-31,0.48039215686274406
2017-04-05,0.26262626262626104
2017-04-06,0.0
2017-04-07,0.4873949579831938
2017-04-10,0.5132743362831856
2017-04-11,0.5686274509803905
2017-04-12,0.6943521594684376
2017-04-13,0.9439999999999963
2017-04-14,0.23846153846153756
2017-04-17,0.357388316151203
2017-04-18,0.48813878606006295
2017-04-19,0.4322962101386071
2017-04-20,0.368144079703668
2017-04-21,0.7747016449844112
2017-04-24,0.41626157938182246
2017-04-25,0.0
2017-04-26,0.0
2017-04-27,0.0
2017-04-28,0.0
2017-05-02,0.1714285714285721
2017-05-03,0.3295454545454552
2017-05-04,0.6171875000000018
2017-05-05,0.939655172413799
2017-05-08,1.0
2017-05-09,0.5945945945945957
2017-05-10,0.4736842105263204
2017-05-11,0.3939393939393959
2017-05-12,0.272727272727271
2017-05-15,0.08108108108107685
2017-05-16,0.6470588235294148
2017-05-17,0.7129629629629565
2017-05-18,0.7280701754385934
2017-05-19,0.7372881355932179
2017-05-22,0.9142857142857087
2017-05-23,0.3783783783783791
2017-05-24,0.6009388394693317
2017-05-25,0.3666749688667486
2017-05-26,0.21598598468697175
2017-05-31,0.28576012700450293
2017-06-01,0.36773133383141715
2017-06-02,0.2041914600707696
2017-06-05,0.6415801227464121
2017-06-06,0.912721546091259
2017-06-07,0.8458145772646523
2017-06-08,0.8450704225352138
2017-06-09,0.9487179487179493
2017-06-12,0.4846153846153824
2017-06-13,0.3163265306122459
2017-06-14,0.3039215686274505
2017-06-15,0.24786324786324715
2017-06-16,0.008695652173917084
2017-06-19,0.09836065573771342
2017-06-20,0.3124999999999976
2017-06-21,0.3086419753086395
2017-06-22,0.3246753246753193
2017-06-23,0.7131784652647707
2017-06-26,0.7208947822733097
2017-06-27,0.4926697749243982
2017-06-28,0.7209509445446433
2017-06-29,0.8178127209375743
2017-06-30,0.5339372777526633
2017-07-03,0.5732239633422048
2017-07-04,0.7956788994592113
2017-07-05,0.7164433440894218
2017-07-06,0.7232142857142851
2017-07-07,1.0
2017-07-10,0.7701149425287318
2017-07-11,0.3673469387755028
2017-07-12,0.1702127659574387
2017-07-13,0.037383177570086724
2017-07-14,0.18253968253968528
2017-07-17,0.21100917431192923
2017-07-18,0.20535714285714657
2017-07-19,0.30666666666667247
2017-07-20,0.5423728813559426
2017-07-21,0.12162162162162317
2017-07-24,0.11124348473566817
2017-07-25,0.08269939426528987
2017-07-26,0.3888758782201402
2017-07-27,0.44930992276199905
2017-07-28,0.6381595549093367
2017-07-31,0.7266371135177608
2017-08-01,1.0
2017-08-02,0.7104974271012052
2017-08-03,0.6333021921915385
2017-08-04,0.43835616438356023
2017-08-07,0.5287356321839
2017-08-08,0.4130434782608579
2017-08-09,0.9031007751937976
2017-08-10,0.8544776119403
2017-08-11,0.9108910891089119
2017-08-14,0.7658227848101277
2017-08-15,0.8145896656534968
2017-08-16,0.21596718916793042
2017-08-17,0.44090403402440514
2017-08-18,0.41205027039378395
2017-08-21,0.5455211377633128
2017-08-22,0.5852207546441331
2017-08-23,1.0
2017-08-24,0.7054879700497532
2017-08-25,0.577090196838405
2017-08-28,0.5404399626056604
2017-08-29,0.35014836795252197
2017-08-30,0.12420382165605048
2017-08-31,0.16182572614107815
2017-09-01,0.22994652406416805
2017-09-04,0.01687763713079947
2017-09-05,0.018957345971561457
2017-09-06,0.24120603015075254
2017-09-07,0.2890173410404599
2017-09-08,0.4225352112676061
2017-09-11,0.6923076923076928
2017-09-12,0.9577464788732398
2017-09-13,0.954198473282443
2017-09-14,0.9684210526315792
2017-09-15,0.8045977011494247
2017-09-18,0.9058368881192714
2017-09-19,0.8502940332759606
2017-09-20,0.8655481128429726
2017-09-21,0.7025617968929335
2017-09-22,0.8700660011749957
2017-09-25,0.7061480665993265
2017-09-26,0.7404710370588399
2017-09-27,0.4420789103162446
2017-09-28,0.45951553205280765
2017-09-29,0.03521126760563294
2017-10-09,0.033333333333332375
2017-10-10,0.07051282051282319
2017-10-11,0.17368421052631627
2017-10-12,0.3105263157894645
2017-10-13,0.29064039408866477
2017-10-16,0.3856209150326755
2017-10-17,0.38157894736841225
2017-10-18,0.474860335195528
2017-10-19,0.5369458128078834
2017-10-20,0.9661016949152551
2017-10-23,1.0
2017-10-24,0.756444096764416
2017-10-25,0.5538245024312067
2017-10-26,0.2915455365794991
2017-10-27,0.008826067743625661
2017-10-30,0.0
2017-10-31,0.13225026661926736
2017-11-01,0.4513417131079781
2017-11-02,0.6751381775772132
2017-11-03,0.5151515151515205
2017-11-06,0.4415584415584449
2017-11-07,0.2934131736526976
2017-11-08,0.0
2017-11-09,0.0764331210191099
2017-11-10,0.3448275862068912
2017-11-13,0.3448275862068912
2017-11-14,0.4705882352941163
2017-11-15,0.8016528925619862
2017-11-16,0.7894736842105288
2017-11-17,0.4335951236666403
2017-11-20,0.6770521127320513
2017-11-21,0.6379507561264394
2017-11-22,0.25782722072028047
2017-11-23,0.42318010079349133
2017-11-24,0.5089441936066412
2017-11-27,0.3995608076475247
2017-11-28,0.45004326073054224
2017-11-29,0.9454925493236251
2017-11-30,0.36296296296296493
2017-12-01,0.44444444444444436
2017-12-04,0.5266272189349124
2017-12-05,0.45930232558139317
2017-12-06,0.3881578947368425
2017-12-07,0.8659793814432967
2017-12-08,0.8699999999999982
2017-12-11,0.400000000000001
2017-12-12,0.7269230769230771
2017-12-13,0.598639455782314
2017-12-14,0.5261324041811852
2017-12-15,0.40548780487805003
2017-12-18,0.5894039735099385
2017-12-19,0.1551724137931092
2017-12-20,0.18865942924339735
2017-12-21,0.34094549566141175
2017-12-22,0.49194788582205745
2017-12-25,0.30305448424397813
2017-12-26,0.5422630674271244
2017-12-27,0.49374816162205626
2017-12-28,0.16246105536021688
2017-12-29,0.0
2018-01-02,0.12704069426914544
2018-01-03,0.16814159292035394
2018-01-04,0.3109243697478979
2018-01-05,0.5362318840579754
2018-01-08,0.983050847457628
2018-01-09,0.9333333333333516
2018-01-10,0.940000000000018
2018-01-11,0.5576923076923274
2018-01-12,0.6615384615384773
2018-01-15,0.42307692307694206
2018-01-16,0.6315789473684271
2018-01-17,0.6914992380318412
2018-01-18,0.905463882017717
2018-01-19,0.7389151164608415
2018-01-22,0.8423443136791118
2018-01-23,0.6358794845950626
2018-01-24,0.2647264211869366
2018-01-25,0.28658688796850357
2018-01-26,0.3279849810805985
2018-01-29,0.4591837692257216
2018-01-30,0.5200000000000031
2018-01-31,0.9714285714285674
2018-02-01,0.7391304347826015
2018-02-02,0.662337662337645
2018-02-05,0.2105263157894631
2018-02-06,0.15238095238094432
2018-02-07,0.0
2018-02-08,0.0
2018-02-09,0.07317073170732857
2018-02-12,0.08823529411765883
2018-02-13,0.10344827586208519
2018-02-14,0.34817900164245796
2018-02-22,0.3204216831554582
2018-02-23,0.24709779032006182
2018-02-26,0.4175258183858481
2018-02-27,0.6441116090428641
2018-02-28,0.34761885486449473
2018-03-01,0.39256042511856976
2018-03-02,0.322217844814645
2018-03-05,0.17442272316986185
2018-03-06,0.4999999999999902
2018-03-07,0.26027397260273866
2018-03-08,0.5306122448979598
2018-03-09,0.6725663716814183
2018-03-12,0.6696428571428584
2018-03-13,0.6542056074766376
2018-03-14,1.0
2018-03-15,0.7439364955962267
2018-03-16,0.36019909078590273
2018-03-19,0.5453853089737769
2018-03-20,0.3202441489529743
2018-03-21,0.44647128417479504
2018-03-22,0.7412857954015822
2018-03-23,0.8956554414671467
2018-03-26,0.8218696007712853
2018-03-27,0.929824561403511
2018-03-28,0.9210526315789498
2018-03-29,0.5324675324675363
2018-03-30,0.12878787878788087
2018-04-02,0.20769230769230745
2018-04-03,0.08547008547008322
2018-04-04,0.0719424460431635
2018-04-09,0.2736842105263092
2018-04-10,0.3768115942028901
2018-04-11,0.1797752808988717
2018-04-12,0.24999999999999395
2018-04-13,0.4835164835164754
2018-04-16,0.3815789473684134
2018-04-17,0.5434097120033566
2018-04-18,1.0
2018-04-19,0.807421131182123
2018-04-20,0.49507193143556094
2018-04-23,0.28967301634917464
2018-04-24,0.17593730282601766
2018-04-25,0.0
2018-04-26,0.0
2018-04-27,0.09210691429288546
2018-05-02,0.5161290322580767
2018-05-03,0.730769230769249
2018-05-04,0.5757575757575853
2018-05-07,0.8660714285714278
2018-05-08,0.745901639344264
2018-05-09,0.5652173913043484
2018-05-10,0.4609374999999947
2018-05-11,0.5846153846153803
2018-05-14,0.47572815533980084
2018-05-15,0.6274509803921504
2018-05-16,0.7912087912087848
2018-05-17,1.0
2018-05-18,1.0
2018-05-21,0.6081081081081122
2018-05-22,0.7327188940092199
2018-05-23,0.7562637627727631
2018-05-24,0.7404312542840703
2018-05-25,0.6670899323404943
2018-05-28,0.9059791902618446
2018-05-29,0.5457540801264793
2018-05-30,0.3003055073899742
2018-05-31,0.0
2018-06-01,0.17503285476439845
2018-06-04,0.15823841328873692
2018-06-05,0.5465116279069703
2018-06-06,0.6298701298701209
2018-06-07,0.8761061946902605
2018-06-08,0.8715596330275182
2018-06-11,1.0
2018-06-12,0.16339869281045594
2018-06-13,0.1257142857142881
2018-06-14,0.343347639484978
2018-06-15,0.23863636363636476
2018-06-19,0.29225352112676056
2018-06-20,0.5220125786163531
2018-06-21,0.6408450704225368
2018-06-22,0.2421874999999933
2018-06-25,0.44943820224717945
2018-06-26,0.2485584581672302
2018-06-27,0.5562835328105643
2018-06-28,0.6728685333351806
2018-06-29,0.8674776670292318
2018-07-02,0.9101555180813239
2018-07-03,0.7564279991259395
2018-07-04,0.6296067200999005
2018-07-05,0.44809565572024834
2018-07-06,0.5400337406430809
2018-07-09,0.08783783783783476
2018-07-10,0.30281690140845186
2018-07-11,0.5778894472361841
2018-07-12,0.6282722513089023
2018-07-13,0.5404040404040443
2018-07-16,0.8918918918918944
2018-07-17,0.8876404494382041
2018-07-18,0.4574468085106378
2018-07-19,0.5233644859813097
2018-07-20,0.6203703703703713
2018-07-23,0.3284592281335043
2018-07-24,0.20027987029799615
2018-07-25,0.33538803810543677
2018-07-26,0.14956365157347934
2018-07-27,0.051235274318412516
2018-07-30,0.32036462538778654
2018-07-31,0.427245793504389
2018-08-01,0.37876942273983155
2018-08-02,0.6195451453008047
2018-08-03,0.9689922480620139
2018-08-06,0.8552631578947343
2018-08-07,0.920289855072462
2018-08-08,0.9491525423728804
2018-08-09,0.9625668449197857
2018-08-10,0.7341772151898724
2018-08-13,0.6170212765957435
2018-08-14,0.3397435897435862
2018-08-15,0.08333333333333254
2018-08-16,0.2625698324022309
2018-08-17,0.45197740112993995
2018-08-20,0.6531791907514436
2018-08-21,0.7274019183031996
2018-08-22,0.7865262673067203
2018-08-23,0.596593633818212
2018-08-24,0.4548944739024156
2018-08-27,0.05793274286650007
2018-08-28,0.2588297872340488
2018-08-29,0.27797998922748957
2018-08-30,0.4112771926597267
2018-08-31,0.4281770423843914
2018-09-03,0.8285714285714298
2018-09-04,0.7288135593220334
2018-09-05,0.9473684210526317
2018-09-06,0.7252747252747227
2018-09-07,0.41958041958041903
2018-09-10,0.31404958677686606
2018-09-11,0.579787234042556
2018-09-12,0.5561797752809015
2018-09-13,0.5657142857142855
2018-09-14,0.8536585365853614
2018-09-17,0.8421052631578891
2018-09-18,0.23364485981307853
2018-09-19,0.063079660057303
2018-09-20,0.2146753485900916
2018-09-21,0.1710247912816404
2018-09-25,0.11491882817954302
2018-09-26,0.34234055745730596
2018-09-27,0.3045200874645284
2018-09-28,0.33587222438645803
2018-10-08,0.2981918143650037
2018-10-09,0.6165499225262869
2018-10-10,0.4117647058823523
2018-10-11,0.5862068965517252
2018-10-12,0.47826086956521874
2018-10-15,0.6923076923076875
2018-10-16,0.6862745098039128
2018-10-17,0.8139534883720928
2018-10-18,0.55769230769228
2018-10-19,0.27586206896550103
2018-10-22,0.29213483146067915
2018-10-23,0.1593095132876227
2018-10-24,0.17244637626382767
2018-10-25,0.34020129908129937
2018-10-26,0.5573482887546872
2018-10-29,0.1963960906746427
2018-10-30,0.22840071353025534
2018-10-31,0.21100489284596238
2018-11-01,0.44514924799114197
2018-11-02,0.4429505202088019
2018-11-05,0.7435897435897569
2018-11-06,0.8734177215189962
2018-11-07,0.862500000000009
2018-11-08,0.1981981981982104
2018-11-09,0.31451612903226644
2018-11-12,0.32539682539682596
2018-11-13,0.2272727272727243
2018-11-14,0.2635658914728601
2018-11-15,0.7583970695740355
2018-11-16,0.6469022586723412
2018-11-19,0.5325390821986806
2018-11-20,0.8728895924972035
2018-11-21,0.8931903142154608
2018-11-22,0.2621640087804407
2018-11-23,0.5850348492293083
2018-11-26,0.6349558613207067
2018-11-27,0.717758310057868
2018-11-28,0.666666666666678
2018-11-29,0.9642857142857211
2018-11-30,0.39189189189188883
2018-12-03,0.5108695652173857
2018-12-04,0.30681818181817044
2018-12-05,0.23684210526314867
2018-12-06,0.2500000000000014
2018-12-07,0.5217391304347857
2018-12-10,0.17557251908397495
2018-12-11,0.22033898305086133
2018-12-12,0.36000000000001864
2018-12-13,0.27586206896553206
2018-12-14,0.11016949152543909
2018-12-17,0.32786885245903
2018-12-18,0.24999999999999775
2018-12-19,0.37804878048778356
2018-12-20,0.5900586591769974
2018-12-21,0.8220157114449191
2018-12-24,0.7991423556335481
2018-12-25,1.0
2018-12-26,0.7893010134782282
2018-12-27,0.7598656791064428
2018-12-28,0.734817813765198
2019-01-02,0.7534725333811396
2019-01-03,0.26223015996272314
2019-01-04,0.5652173913043448
2019-01-07,0.4523809523809525
2019-01-08,0.6901408450704243
2019-01-09,0.6764705882352986
2019-01-10,0.9499999999999988
2019-01-11,0.9387755102040797
2019-01-14,0.9200000000000131
2019-01-15,0.4705882352941224
2019-01-16,0.47058823529410254
2019-01-17,0.10869565217388423
2019-01-18,0.01265822784809127
2019-01-21,0.01204819277107473
2019-01-22,0.012499999999989955
2019-01-23,0.0
2019-01-24,0.11772268135905045
2019-01-25,0.3716267339218188
2019-01-28,0.5295854493917541
2019-01-29,0.6241648106904368
2019-01-30,0.9868005738881056
2019-01-31,0.9859969558599841
2019-02-01,0.9110353965550028
2019-02-11,0.970566132264535
2019-02-12,0.9609374999999922
2019-02-13,0.96323529411764
2019-02-14,0.9650349650349582
2019-02-15,0.9199999999999968
2019-02-18,0.27702702702702703
2019-02-19,0.32258064516129487
2019-02-20,0.14024390243902599
2019-02-21,0.050279329608941596
2019-02-22,0.2157573595839041
2019-02-25,0.462959494955961
2019-02-26,0.4350111859722904
2019-02-27,0.6949274316514666
2019-02-28,1.0
2019-03-01,1.0
2019-03-04,0.7342684781009406
2019-03-05,0.6395986065616397
2019-03-06,0.46433134582623664
2019-03-07,0.30120481927710735
2019-03-08,0.0
2019-03-11,0.08163265306122706
2019-03-12,0.08510638297872622
2019-03-13,0.1325301204819283
2019-03-14,0.4040404040404016
2019-03-15,0.8888888888888851
2019-03-18,0.8947368421052592
2019-03-19,1.0
2019-03-20,0.862699154121414
2019-03-21,0.4681291172595574
2019-03-22,0.3113143535664804
2019-03-25,0.04555599577390685
2019-03-26,0.0
2019-03-27,3.434263976067196e-14
2019-03-28,3.9645291966941126e-14
2019-03-29,2.811894744799382e-14
2019-04-01,0.11428571428574975
2019-04-02,0.4081632653061328
2019-04-03,0.5166666666666566
2019-04-04,0.6199999999999996
2019-04-08,0.9787234042553248
2019-04-09,0.7000000000000054
2019-04-10,0.6785714285714367
2019-04-11,0.7272727272727387
2019-04-12,0.8111111111111179
2019-04-15,0.8131868131868192
2019-04-16,1.0
2019-04-17,0.8374407685483685
2019-04-18,0.6234463643843865
2019-04-19,0.4149146582667864
2019-04-22,0.21117150974207013
2019-04-23,0.0
2019-04-24,0.0
2019-04-25,0.1094147582697302
2019-04-26,0.1524134819875073
2019-04-29,0.8129612779293917
2019-04-30,0.4594594594594508
2019-05-06,0.7333333333333298
2019-05-07,0.5494505494505443
2019-05-08,0.4716981132075459
2019-05-09,0.4455445544554453
2019-05-10,0.6021505376344027
2019-05-13,0.1956521739130345
2019-05-14,0.4301075268817174
2019-05-15,0.6942148760330572
2019-05-16,0.7196969696969696
2019-05-17,0.7597402597402633
2019-05-20,0.9212598425196883
2019-05-21,0.9159663865546245
2019-05-22,0.585585585585589
2019-05-23,0.4478218889204801
2019-05-24,0.17093582410741265
2019-05-27,0.49194984712481826
2019-05-28,0.36601791548564255
2019-05-29,0.5711630530685425
2019-05-30,0.6722663645992305
2019-05-31,0.7190426411347784
2019-06-03,0.134768314793269
2019-06-04,0.15555222538588892
2019-06-05,0.037735849056616366
2019-06-06,0.0
2019-06-10,0.2386363636363636
2019-06-11,0.40384615384615274
2019-06-12,0.5833333333333341
2019-06-13,0.5737704918032707
2019-06-14,0.8837209302325499
2019-06-17,0.303571428571423
2019-06-18,0.3934426229508177
2019-06-19,0.1960784313725478
2019-06-20,0.25490196078431854
2019-06-21,0.3089269673395494
2019-06-24,0.888799647641011
2019-06-25,0.6406114267953509
2019-06-26,0.5550284826514755
2019-06-27,0.5645949178079335
2019-06-28,0.3111017156363227
2019-07-01,0.19205309882546334
2019-07-02,0.3723229898433451
2019-07-03,0.42209052542875225
2019-07-04,0.5094339622641452
2019-07-05,0.9272727272727246
2019-07-08,0.6
2019-07-09,0.6938775510204073
2019-07-10,0.8812785388127846
2019-07-11,0.8008849557522125
2019-07-12,0.7476190476190475
2019-07-15,0.8608247422680428
2019-07-16,0.7458563535911573
2019-07-17,0.05682512525968802
2019-07-18,0.2724722091272678
2019-07-19,0.312163399110202
2019-07-22,0.47180652385350086
2019-07-23,0.4700540917815428
2019-07-24,0.8752225496516066
2019-07-25,0.6131451196010284
2019-07-26,0.5651210827062937
2019-07-29,0.09469210347954174
2019-07-30,0.25280898876403785
2019-07-31,0.19879518072288474
2019-08-01,0.33093525179855826
2019-08-02,0.3172413793103423
2019-08-05,0.8059701492537271
2019-08-06,0.7111111111111171
2019-08-07,0.571428571428586
2019-08-08,0.6818181818181781
2019-08-09,0.9183673469387772
2019-08-12,0.9292035398230097
2019-08-13,0.9245283018867874
2019-08-14,0.9607843137254787
2019-08-15,0.5573770491803209
2019-08-16,0.21904761904761236
2019-08-19,0.0
2019-08-20,0.0
2019-08-21,0.02957013073343623
2019-08-22,0.20093847758081898
2019-08-23,0.2549664492959153
2019-08-26,0.5718286011982388
2019-08-27,0.9017305442079135
2019-08-28,0.9069907515349366
2019-08-29,0.8822328281834303
2019-08-30,1.0
2019-09-02,0.817907140698968
2019-09-03,0.21276595744680932
2019-09-04,0.02985074626865545
2019-09-05,0.027397260273971304
2019-09-06,0.1931818181818133
2019-09-09,0.26744186046510277
2019-09-10,0.3770491803278616
2019-09-11,0.7619047619047584
2019-09-12,0.7619047619047925
2019-09-16,0.27272727272726677
2019-09-17,0.6899224806201716
2019-09-18,0.7333333333333462
2019-09-19,0.7233544390288501
2019-09-20,0.7468734861276353
2019-09-23,0.9806124390928944
2019-09-24,0.17255096182358667
2019-09-25,0.13744491943439816
2019-09-26,0.14584045667541745
2019-09-27,0.14895350732195026
2019-09-30,0.2570618106223954
2019-10-08,0.7657804148142986
2019-10-09,0.7948717948717907
2019-10-10,0.4642857142857035
2019-10-11,0.48275862068965286
2019-10-14,0.31818181818182595
2019-10-15,0.3255813953488413
2019-10-16,0.04918032786886847
2019-10-17,0.3793103448276057
2019-10-18,0.4461538461538487
2019-10-21,0.5324675324675368
2019-10-22,0.6081081081081176
2019-10-23,1.0
2019-10-24,0.7475097231567219
2019-10-25,0.6317323240400372
2019-10-28,0.3141173494442101
2019-10-29,0.2368937283220532
2019-10-30,0.0
2019-10-31,0.15275308626624734
2019-11-01,0.17587089155676053
2019-11-04,0.24231687034490623
2019-11-05,0.23656483295386535
2019-11-06,0.8378378378378453
2019-11-07,0.7391304347826253
2019-11-08,0.6250000000000137
2019-11-11,0.7045454545454632
2019-11-12,0.8392857142857191
2019-11-13,0.5500000000000023
2019-11-14,0.5789473684210518
2019-11-15,0.7339827333992843
2019-11-18,0.7884473135633056
2019-11-19,0.7052071327504824
2019-11-20,0.5783370475678018
2019-11-21,0.7116858504500921
2019-11-22,0.6547538331608489
2019-11-25,0.319888397557384
2019-11-26,0.27205966307180246
2019-11-27,0.44087705559907386
2019-11-28,0.15714285714286894
2019-11-29,0.21428571428572707
2019-12-02,0.7727272727272616
2019-12-03,0.8095238095238095
2019-12-04,0.5897435897435831
2019-12-05,0.3194444444444468
2019-12-06,0.2405063291139256
2019-12-09,0.0
2019-12-10,0.0
2019-12-11,0.0
2019-12-12,0.09836065573770794
2019-12-13,0.10909090909091156
2019-12-16,0.47887323943661936
2019-12-17,0.8627450980392123
2019-12-18,0.9298056916335126
2019-12-19,0.8717062258504908
2019-12-20,0.9465016001815495
2019-12-23,0.8983435697003386
2019-12-24,0.935891717801483
2019-12-25,0.908695797532669
2019-12-26,0.9883150061090695
2019-12-27,0.9325239771761463
2019-12-30,0.580212409167132
2019-12-31,0.20833333333333745
2020-01-02,0.19444444444444614
2020-01-03,0.419999999999999
2020-01-06,0.5338983050847463
2020-01-07,0.7078651685393327
2020-01-08,0.8630136986301424
2020-01-09,0.6923076923076938
2020-01-10,0.1858407079646027
2020-01-13,0.0
2020-01-14,0.11923661448240805
2020-01-15,0.23787734350174974
2020-01-16,0.34836929979444947
2020-01-17,0.8199672899011982
2020-01-20,1.0
2020-01-21,1.0
2020-01-22,0.8267645419781326
2020-01-23,0.8370555402923805
2020-02-03,0.8454146539706077
2020-02-04,0.7000000000000004
2020-02-05,0.42948717948717846
2020-02-06,0.49629629629629163
2020-02-07,0.31654676258992287
2020-02-10,0.0
2020-02-11,0.0
2020-02-12,0.0
2020-02-13,0.10447761194029964
2020-02-14,0.12714285714285886
2020-02-17,0.1938300292650707
2020-02-18,0.30891764158984086
2020-02-19,0.32265686956802964
2020-02-20,0.0
2020-02-21,0.14123384702155087
2020-02-24,0.20463394702687618
2020-02-25,0.1805649813369513
2020-02-26,0.4147182604629443
2020-02-27,0.7777777777777506
2020-02-28,0.8787878787878587
2020-03-02,0.9111111111110965
2020-03-03,1.0
2020-03-04,1.0
2020-03-05,0.9880952380952341
2020-03-06,0.8100558659217881
2020-03-09,0.839622641509434
2020-03-10,0.3572559184036874
2020-03-11,0.2345983109571241
2020-03-12,0.303540751098683
2020-03-13,0.40948793625428703
2020-03-16,0.16374092474251603
2020-03-17,0.6548191170263962
2020-03-18,0.7663513150545939
2020-03-19,0.8431526125490124
2020-03-20,0.8528807486564027
2020-03-23,1.0
2020-03-24,0.7720797720797715
2020-03-25,0.6195965417867437
2020-03-26,0.21727019498607258
2020-03-27,0.11016949152542303
2020-03-30,0.0
2020-03-31,0.0
2020-04-01,0.05555555555555235
2020-04-02,0.34545454545453647
2020-04-03,0.4367816091953936
2020-04-07,0.5352112676056249
2020-04-08,0.8571428571428572
2020-04-09,0.5784313725490181
2020-04-10,0.39080459770115417
2020-04-13,0.4878048780487856
2020-04-14,0.5287356321839093
2020-04-15,0.1967213114754045
2020-04-16,0.34644835365013665
2020-04-17,0.4287174648108732
2020-04-20,0.18460704974095865
2020-04-21,0.0
2020-04-22,0.29325070965126204
2020-04-23,0.42789793663556835
2020-04-24,0.3419200066560986
2020-04-27,0.5156050996110959
2020-04-28,0.7456980723497205
2020-04-29,0.3823529411764629
2020-04-30,0.32978723404255406
2020-05-06,0.5599999999999972
2020-05-07,0.4062500000000016
2020-05-08,0.2621359223301006
2020-05-11,0.5076923076923151
2020-05-12,0.7355371900826424
2020-05-13,0.731092436974788
2020-05-14,0.8207547169811271
2020-05-15,0.9999999999999973
2020-05-18,0.9999999999999974
2020-05-19,0.4999999999999957
2020-05-20,0.26609420236887976
2020-05-21,0.3162909123206967
2020-05-22,0.27047603402905795
2020-05-25,0.5105692607663667
2020-05-26,0.7464925514436009
2020-05-27,1.0
2020-05-28,0.9907230964844187
2020-05-29,0.7651331021021301
2020-06-01,0.3431571914733733
2020-06-02,0.3294117647058889
2020-06-03,0.0
2020-06-04,0.037037037037036535
2020-06-05,0.05454545454545342
2020-06-08,0.05357142857142674
2020-06-09,0.05263157894736643
2020-06-10,0.07499999999999804
2020-06-11,0.33928571428571913
2020-06-12,0.4354838709677501
2020-06-15,0.6279069767442025
2020-06-16,0.7543859649122869
2020-06-17,0.7543859649122785
2020-06-18,0.35294117647057976
2020-06-19,0.25396825396824285
2020-06-22,0.32142857142854747
2020-06-23,0.044728778022668385
2020-06-24,0.039550708299928086
2020-06-29,0.3555730358504972
2020-06-30,0.30451868410039573
2020-07-01,0.2880518259234372
2020-07-02,0.30372941111663604
2020-07-03,0.5883073554709904
2020-07-06,0.23273384068106925
2020-07-07,0.26510437575271284
2020-07-08,0.19999999999999607
2020-07-09,0.6181818181818195
2020-07-10,0.5714285714285784
2020-07-13,0.9111111111111152
2020-07-14,0.968992248062019
2020-07-15,0.9469696969696921
2020-07-16,0.9517241379310303
2020-07-17,0.938775510204075
2020-07-20,0.6774193548386988
2020-07-21,0.4226804123711278
2020-07-22,0.5916666666666621
2020-07-23,0.20408163265306015
2020-07-24,0.2901234567901231
2020-07-27,0.4324324324324342
2020-07-28,0.5878787878787892
2020-07-29,0.4557823129251722
2020-07-30,0.8695652173913065
2020-07-31,0.7777777777777812
2020-08-03,0.7534246575342514
2020-08-04,0.37288135593221067
2020-08-05,0.6093750000000057
2020-08-06,0.7641509433962278
2020-08-07,0.8333333333333334
2020-08-10,0.8272727272727262
2020-08-11,0.8584905660377361
2020-08-12,0.8828125000000003
2020-08-13,0.37908496732026115
2020-08-14,0.30136986301369917
2020-08-17,0.22033898305084856
2020-08-18,0.23214285714285815
2020-08-19,0.0
2020-08-20,0.36877382702513767
2020-08-21,0.34334963084114567
2020-08-24,0.4766422844281862
2020-08-25,0.46250179147869935
2020-08-26,0.6834997478567852
2020-08-27,0.09350108024354567
2020-08-28,0.3509754132631695
2020-08-31,0.2693790774746198
2020-09-01,0.5256264601401777
2020-09-02,0.5462184873949575
2020-09-03,0.9154929577464812
2020-09-04,0.9340659340659367
2020-09-07,1.0
2020-09-08,0.5106382978723356
2020-09-09,0.5208333333333331
2020-09-10,0.6870748299319672
2020-09-11,0.37999999999999795
2020-09-14,0.37999999999999795
2020-09-15,0.6240000000000057
2020-09-16,0.6209677419354862
2020-09-17,0.22033898305085106
2020-09-18,0.6017699115044256
2020-09-21,0.6249999999999999
2020-09-22,0.5908377010608858
2020-09-23,0.4754537823942856
2020-09-24,0.7193621614756841
2020-09-25,0.36731245014666924
2020-09-28,0.6661077775954365
2020-09-29,0.6704621472984434
2020-09-30,0.6993448210009882
2020-10-09,0.8194583269260374
2020-10-12,0.6131470321736293
2020-10-13,0.3004926108374398
2020-10-14,0.24137931034482638
2020-10-15,0.3251231527093575
2020-10-16,0.07834101382488477
2020-10-19,0.20540540540540494
2020-10-20,0.4565217391304374
2020-10-21,0.4285714285714326
2020-10-22,0.39568345323741466
2020-10-23,0.6717324580100602
2020-10-26,0.7055246865188761
2020-10-27,0.6624260783032927
2020-10-28,0.9120553153266021
2020-10-29,0.7801343731002205
2020-10-30,0.9188030457345174
2020-11-02,0.5299360865157892
2020-11-03,0.4280525037928141
2020-11-04,0.497536782547971
2020-11-05,0.5454545454545493
2020-11-06,0.27927927927928037
2020-11-09,0.6781609195402338
2020-11-10,0.7195121951219424
2020-11-11,0.40740740740740683
2020-11-12,0.329411764705878
2020-11-13,0.30107526881720237
2020-11-16,0.0
2020-11-17,0.0
2020-11-18,0.0
2020-11-19,0.0
2020-11-20,0.7059563704531195
2020-11-23,0.8354482075556677
2020-11-24,0.9138412037123145
2020-11-25,0.964613949782233
2020-11-26,1.0
2020-11-27,0.532373199051936
2020-11-30,0.4443194153935755
2020-12-01,0.5227754628708496
2020-12-02,0.5381526104417653
2020-12-03,0.45228215767634494
2020-12-04,0.881944444444443
2020-12-07,0.4675925925925952
2020-12-08,0.22051282051282375
2020-12-09,0.09574468085106771
2020-12-10,0.25728155339806075
2020-12-11,0.32894736842105077
2020-12-14,0.6405228758169883
2020-12-15,0.8448275862068936
2020-12-16,1.0
2020-12-17,0.6464646464646492
2020-12-18,0.2891566265060263
2020-12-21,0.5241935483871005
2020-12-22,0.5693430656934343
2020-12-23,0.6458288653095229
2020-12-24,0.7924141919952452
2020-12-25,0.8537958835352614
2020-12-28,0.3175926283910047
2020-12-29,0.22227906283258256
2020-12-30,0.0
2020-12-31,0.23744330766796562
2021-01-04,0.4092975899850738
2021-01-05,0.6648198676048859
2021-01-06,0.5862068965517168
2021-01-07,0.8162162162162129
2021-01-08,0.7535211267605588
2021-01-11,0.6759259259259203
2021-01-12,0.5412844036697269
2021-01-13,0.8571428571428618
2021-01-14,0.3852459016393482
2021-01-15,0.31125827814569995
2021-01-18,0.1917098445595882
2021-01-19,0.2578947368421078
2021-01-20,0.07142857142857198
2021-01-21,0.10714285714285758
2021-01-22,0.292929292929291
2021-01-25,0.8448275862068911
2021-01-26,0.8407079646017652
2021-01-27,0.9749999999999952
2021-01-28,1.0
2021-01-29,1.0
2021-02-01,0.5084745762711904
2021-02-02,0.3953488372093052
2021-02-03,0.2213740458015293
2021-02-04,0.12499999999999908
2021-02-05,0.0
2021-02-08,0.0
2021-02-09,0.05357142857140767
2021-02-10,0.5606060606060507
2021-02-18,0.6904761904761976
2021-02-19,0.7261904761904748
2021-02-22,1.0
2021-02-23,1.0
2021-02-24,0.8143522386084477
2021-02-25,0.8264463448958427
2021-02-26,0.8292311789097279
2021-03-01,0.5982517617158994
2021-03-02,0.2910625405756405
2021-03-03,0.2919153553988146
2021-03-04,0.055982847384113694
2021-03-05,0.05897410408072036
2021-03-08,0.06292176541556735
2021-03-09,0.12068965517239888
2021-03-10,0.5306122448979381
2021-03-11,0.4333333333333179
2021-03-12,0.21739130434781326
2021-03-15,0.2272727272727139
2021-03-16,0.31313131313130754
2021-03-17,0.11881188118811795
2021-03-18,0.12765957446808457
2021-03-19,0.24137931034482768
2021-03-22,0.5714285714285801
2021-03-23,0.33310852141726144
2021-03-24,0.48443044110518996
2021-03-25,0.6161808401141886
2021-03-26,0.4744942832014085
2021-03-29,0.14715536105032612
2021-03-30,0.3914629534888909
2021-03-31,0.3080375051845016
2021-04-01,0.2139053612489444
2021-04-02,0.35128652894418694
2021-04-06,0.561403508771934
2021-04-07,0.18032786885245655
2021-04-08,0.21568627450980146
2021-04-09,0.17741935483870794
2021-04-12,0.0
2021-04-13,0.16666666666666247
2021-04-14,0.22641509433962526
2021-04-15,0.19999999999999798
2021-04-16,0.23529411764705394
2021-04-19,0.3170731707316969
2021-04-20,0.023809523809517612
2021-04-21,0.435483870967736
2021-04-22,0.5960053389264985
2021-04-23,0.7227306884525793
2021-04-26,0.6745660572675092
2021-04-27,0.8975078318604722
2021-04-28,0.5050086647787221
2021-04-29,0.46064569612672923
2021-04-30,0.7649812734082352
2021-05-06,0.8853848921425986
2021-05-07,0.9151388100670604
2021-05-10,1.0
2021-05-11,1.0
2021-05-12,0.8125000000000107
2021-05-13,0.7894736842105373
2021-05-14,0.5249999999999918
2021-05-17,0.42553191489360787
2021-05-18,0.6896551724137896
2021-05-19,0.7407407407407341
2021-05-20,0.7307692307692266
2021-05-21,0.8181818181818203
2021-05-24,0.9469026548672597
2021-05-25,0.5429515793777898
2021-05-26,0.5874830593877002
2021-05-27,0.3422939290003779
2021-05-28,0.31154334038054526
2021-05-31,0.022987780843510896
2021-06-01,0.14679714443038266
2021-06-02,0.11933510521994387
2021-06-03,0.20869801668905316
2021-06-04,0.17314918607193258
2021-06-07,0.3809523809523812
2021-06-08,0.0
2021-06-09,0.5312499999999952
2021-06-10,0.48113207547169257
2021-06-11,0.5368421052631539
2021-06-15,0.6454545454545495
2021-06-16,0.7888888888888899
2021-06-17,0.23809523809523805
2021-06-18,0.46534653465346604
2021-06-21,0.6736111111111066
2021-06-22,0.538461538461536
2021-06-23,0.5671063243060441
2021-06-24,0.7419673247106904
2021-06-25,0.6373830163453716
2021-06-28,0.164951321279573
2021-06-29,0.48446811208317425
2021-06-30,0.8165659117567473
2021-07-01,0.9510443864229836
2021-07-02,0.8337750737907389
2021-07-05,0.6328844790928376
2021-07-06,0.5963855421686781
2021-07-07,0.2434210526315847
2021-07-08,0.0
2021-07-09,0.017857142857140518
2021-07-12,0.08219178082192313
2021-07-13,0.36082474226804095
2021-07-14,0.4794520547945197
2021-07-15,0.6129032258064594
2021-07-16,0.641791044776126
2021-07-19,0.6712328767123363
2021-07-20,0.3125000000000096
2021-07-21,0.6226415094339657
2021-07-22,0.4154411284102711
2021-07-23,0.5305548265182993
2021-07-26,0.6038665174471592
2021-07-27,0.7170155324147087
2021-07-28,0.6845885699993712
2021-07-29,0.7327538608262074
2021-07-30,0.4087710394992734
2021-08-02,0.04460894634056022
2021-08-03,0.4649887886055867
2021-08-04,0.4025157232704442
2021-08-05,0.4657534246575355
2021-08-06,0.5151515151515154
2021-08-09,0.7749999999999942
2021-08-10,0.2478632478632335
2021-08-11,0.297029702970282
2021-08-12,0.24999999999998848
2021-08-13,0.33333333333332354
2021-08-16,0.098901098901101
2021-08-17,0.1836734693877621
2021-08-18,0.140350877192987
2021-08-19,0.48780487804879524
2021-08-20,0.6216216216216319
2021-08-23,0.7812500000000028
2021-08-24,0.9189189189189181
2021-08-25,1.0
2021-08-26,1.0
2021-08-27,0.618117539650932
2021-08-30,0.26712925736198945
2021-08-31,0.33567461905259144
2021-09-01,0.3553743125074137
2021-09-02,0.1368845902560212
2021-09-03,0.17865558049648023
2021-09-06,0.29700741916821016
2021-09-07,0.2592965002980813
2021-09-08,0.1341463414634098
2021-09-09,0.5813953488372041
2021-09-10,0.5434782608695788
2021-09-13,0.5714285714285875
2021-09-14,0.4390243902439206
2021-09-15,0.9016393442623055
2021-09-16,0.7068965517241435
2021-09-17,0.8414634146341429
2021-09-22,0.8907563025210057
2021-09-23,0.9185185185185166
2021-09-24,0.7016129032258007
2021-09-27,0.7984496124030955
2021-09-28,0.572056888534747
2021-09-29,0.2948380983032068
2021-09-30,0.12456591880741621
2021-10-08,0.31525552909152943
2021-10-11,0.22163088747656942
2021-10-12,0.3803105439811381
2021-10-13,0.5774881759750772
2021-10-14,1.0
2021-10-15,1.0
2021-10-18,1.0
2021-10-19,1.0
2021-10-20,1.0
2021-10-21,1.0
2021-10-22,1.0
2021-10-25,0.8485910239852004
2021-10-26,0.7357137179169425
2021-10-27,0.45945885519837615
2021-10-28,0.27779955365340014
2021-10-29,0.0
2021-11-01,0.0
2021-11-02,0.0
2021-11-03,0.09974392724662248
2021-11-04,0.1582266226789765
2021-11-05,0.15662650602410036
2021-11-08,0.20000000000000545
2021-11-09,0.2765957446808522
2021-11-10,0.0
2021-11-11,0.0
2021-11-12,0.0
2021-11-15,0.25974025974025855
2021-11-16,0.2727272727272801
2021-11-17,0.5666666666666648
2021-11-18,0.8679245283018805
2021-11-19,1.0
2021-11-22,1.0
2021-11-23,1.0
2021-11-24,1.0
2021-11-25,0.630434782608701
2021-11-26,0.509509372375471
2021-11-29,0.3615796062364936
2021-11-30,0.5165715861498513
2021-12-01,0.21765802071197246
2021-12-02,0.2455350139274797
2021-12-03,0.26825673117574866
2021-12-06,0.5471525596428918
2021-12-07,0.30032704023674667
2021-12-08,0.4689728502855054
2021-12-09,0.7184466019417501
2021-12-10,0.5920000000000067
2021-12-13,0.44897959183673974
2021-12-14,0.6989247311828035
2021-12-15,0.8
2021-12-16,0.5423728813559278
2021-12-17,0.791666666666664
2021-12-20,0.7755102040816299
2021-12-21,0.6989563470691872
2021-12-22,0.434280395422256
2021-12-23,0.5606184537209342
2021-12-24,0.0
2021-12-27,0.0
2021-12-28,0.0
2021-12-29,0.0
2021-12-30,0.0
2021-12-31,0.0
2022-01-04,0.0
2022-01-05,0.0754716981132025
2022-01-06,0.4117647058823436
2022-01-07,0.6989247311827967
2022-01-10,0.9238095238095348
2022-01-11,0.9509803921568637
2022-01-12,0.9537037037037047
2022-01-13,0.7413793103448284
2022-01-14,0.3620689655172443
2022-01-17,0.07933696961110642
2022-01-18,0.08124289189462228
2022-01-19,0.016765089134718355
2022-01-20,0.14430284857572406
2022-01-21,0.28746063895032054
2022-01-24,0.9377284037011363
2022-01-25,1.0
2022-01-26,0.731954257083117
2022-01-27,0.6186609693838591
2022-01-28,0.5999999999999917
2022-02-07,0.5102040816326444
2022-02-08,0.05000000000001762
2022-02-09,0.5365853658536717
2022-02-10,0.5945945945946122
2022-02-11,0.6938775510204145
2022-02-14,0.5423728813559383
2022-02-15,0.7111111111111192
2022-02-16,0.32432432432432623
2022-02-17,0.25531914893616603
2022-02-18,0.0
2022-02-21,0.18447378951579022
2022-02-22,0.15558555518054576
2022-02-23,0.16588522785250356
2022-02-24,0.34866586054009396
2022-02-25,0.43620154100608
2022-02-28,0.27402594261667934
2022-03-01,0.3861305737457807
2022-03-02,0.44386601084266436
2022-03-03,0.3478260869565483
2022-03-04,0.7391304347826015
2022-03-07,0.8999999999999816
2022-03-08,0.9845559845559811
2022-03-09,1.0
2022-03-10,1.0
2022-03-11,1.0
2022-03-14,0.9057934031118664
2022-03-15,0.2949954169765425
2022-03-16,0.1611147627185491
2022-03-17,0.10697554348976149
2022-03-18,0.0
2022-03-21,0.046772715442103215
2022-03-22,0.11609379792567283
2022-03-23,0.11629266488842237
2022-03-24,0.10432394328406822
2022-03-25,0.27777777777777707
2022-03-28,0.1632653061224511
2022-03-29,0.29761904761904984
2022-03-30,0.5657894736842171
2022-03-31,0.9365079365079394
2022-04-01,0.9344262295081991
2022-04-06,1.0
2022-04-07,1.0
2022-04-08,1.0
2022-04-11,1.0
2022-04-12,0.684931506849315
2022-04-13,0.6714285714285699
2022-04-14,0.349999999999991
2022-04-15,0.2499999999999878
2022-04-18,0.23809523809523708
2022-04-19,0.41860465116278167
2022-04-20,0.33333333333332876
2022-04-21,0.706524064171122
2022-04-22,0.8509962212298599
2022-04-25,0.5582580214714788
2022-04-26,0.40135698006445497
2022-04-27,0.2911022021242224
2022-04-28,0.0
2022-04-29,0.3417483586653422
2022-05-05,0.4458239277652331
2022-05-06,0.49017880089583404
2022-05-09,0.7196969696969685
2022-05-10,1.0
2022-05-11,0.712962962962962
2022-05-12,0.5289256198347125
2022-05-13,0.5250000000000036
2022-05-16,0.25000000000000605
2022-05-17,0.25000000000000555
2022-05-18,0.5538461538461619
2022-05-19,0.9318181818181853
2022-05-20,0.9444302956139339
2022-05-23,0.6454037992146824
2022-05-24,0.3439108989428341
2022-05-25,0.1647759481244804
2022-05-26,0.14706017317391806
2022-05-27,0.17324615426725662
2022-05-30,0.21770441901060048
2022-05-31,0.46123775980183357
2022-06-01,0.7498898793917121
2022-06-02,0.47727272727274067
2022-06-06,0.15217391304348227
2022-06-07,0.32608695652174796
2022-06-08,0.5230769230769285
2022-06-09,0.523076923076933
2022-06-10,0.7142857142857113
2022-06-13,0.7547169811320814
2022-06-14,0.5423728813559331
2022-06-15,0.0952380952380969
2022-06-16,0.08695652173912384
2022-06-17,0.2758620689655159
2022-06-20,0.4318181818181809
2022-06-21,0.6727272727272728
2022-06-22,0.8909503602092194
2022-06-23,0.9595802846003674
2022-06-24,0.6010633895245512
2022-06-27,0.6955485972622033
2022-06-28,0.37190044680727297
2022-06-29,0.37919545864727267
2022-06-30,0.4476745802677202
2022-07-01,0.6182558836970162
2022-07-04,0.16016880406714867
2022-07-05,0.2763157894736885
2022-07-06,0.3164556962025366
2022-07-07,0.27027027027026745
2022-07-08,0.43749999999999867
2022-07-11,1.0
2022-07-12,1.0
2022-07-13,1.0
2022-07-14,1.0
2022-07-15,1.0
2022-07-18,1.0
2022-07-19,0.7083333333333387
2022-07-20,0.6265060240963933
2022-07-21,0.37195870402968945
2022-07-22,0.24874440150790172
2022-07-25,0.0
2022-07-26,0.0
2022-07-27,0.0
2022-07-28,0.04512231503580042
2022-07-29,0.06739385189839085
2022-08-01,0.4315469114080582
2022-08-02,0.599055257532605
2022-08-03,0.9249999999999959
2022-08-04,0.7111111111111142
2022-08-05,0.8181818181818232
2022-08-08,0.39655172413793227
2022-08-09,0.40677966101694074
2022-08-10,0.5454545454545505
2022-08-11,0.6527777777777795
2022-08-12,0.45333333333333226
2022-08-15,0.7808219178082155
2022-08-16,0.6049382716049413
2022-08-17,0.3733333333333256
2022-08-18,0.397435897435892
2022-08-19,0.5921052631578924
2022-08-22,0.34374999999999967
2022-08-23,0.5438596491228076
2022-08-24,0.5740740740740765
2022-08-25,0.48936170212766983
2022-08-26,0.46666666666667145
2022-08-29,0.5387652548456558
2022-08-30,0.37545337057571404
2022-08-31,0.6204180166444159
2022-09-01,0.40714568611508595
2022-09-02,0.025351501909704467
2022-09-05,0.025335444620387768
2022-09-06,0.3277207093710619
2022-09-07,0.3151100799684048
2022-09-08,0.3866210405184519
2022-09-09,0.7586206896551955
2022-09-13,0.9200000000000358
2022-09-14,0.24000000000001673
2022-09-15,0.21428571428572513
2022-09-16,0.42857142857141856
2022-09-19,0.23255813953487095
2022-09-20,0.19565217391302706
2022-09-21,0.22499999999997822
2022-09-22,0.42857142857141434
2022-09-23,0.46153846153845773
2022-09-26,0.7368421052631541
2022-09-27,0.8071161708726934
2022-09-28,1.0
2022-09-29,1.0
2022-09-30,0.6748352463666949
2022-10-10,0.38439955106622387
2022-10-11,0.20564930468340048
2022-10-12,0.09164211151465873
2022-10-13,0.0
2022-10-14,0.16146812787754858
2022-10-17,0.17857142857140706
2022-10-18,0.400000000000008
2022-10-19,0.7142857142857021
2022-10-20,0.5882352941176636
2022-10-21,0.7200000000000334
2022-10-24,0.8461538461538661
2022-10-25,0.8571428571428664
2022-10-26,0.8947368421052742
2022-10-27,0.9444444444444421
2022-10-28,0.43749999999999045
2022-10-31,0.4374999999999975
2022-11-01,0.3673469387755217
2022-11-02,0.08333333333333741
2022-11-03,0.08163265306122792
2022-11-04,0.4736842105263224
2022-11-07,0.3414634146341493
2022-11-08,0.5306122448979574
2022-11-09,0.7826086956521624
2022-11-10,0.9090909090909085
2022-11-11,0.9230769230769227
2022-11-14,1.0
2022-11-15,1.0
2022-11-16,1.0
2022-11-17,1.0
2022-11-18,0.7153124139829347
2022-11-21,0.6728598314118085
2022-11-22,0.3060715788862669
2022-11-23,0.17238181532008806
2022-11-24,0.021315445461968483
2022-11-25,0.12380648633563897
2022-11-28,0.06649842986864862
2022-11-29,0.07985019045389789
2022-11-30,0.059355573482655445
2022-12-01,0.06521739130434764
2022-12-02,0.0
2022-12-05,0.3423423423423312
2022-12-06,0.3762376237623676
2022-12-07,0.6210526315789432
2022-12-08,0.7804878048780466
2022-12-09,0.9577464788732483
2022-12-12,0.6521739130435037
2022-12-13,0.7547169811320859
2022-12-14,0.38775510204084174
2022-12-15,0.28000000000002434
2022-12-16,0.4285714285714215
2022-12-19,0.3913043478260831
2022-12-20,0.2463768115941968
2022-12-21,0.40677966101694385
2022-12-22,0.6668026086021595
2022-12-23,0.5470363790440987
2022-12-26,0.7462569081159208
2022-12-27,0.9095609052702084
2022-12-28,0.9043838774448008
2022-12-29,0.8285647618307167
2022-12-30,0.7503672845096232
2023-01-03,0.8873750970395434
2023-01-04,0.8904361267527761
2023-01-05,0.7721518987341763
2023-01-06,0.5
2023-01-09,0.5048160612742335
2023-01-10,0.1139820947667222
2023-01-11,0.08648831188323158
2023-01-12,0.19719444389869523
2023-01-13,0.27831078083406513
2023-01-16,0.6144446950898441
2023-01-17,0.48139147851955594
2023-01-18,0.32969691276112695
2023-01-19,0.2634278536369699
2023-01-20,0.3461538461538379
2023-01-30,0.07865168539325622
2023-01-31,0.10769230769230559
2023-02-01,0.4230769230769248
2023-02-02,0.600000000000009
2023-02-03,0.5600000000000109
2023-02-06,0.6666666666666666
2023-02-07,0.8799999999999937
2023-02-08,0.833333333333322
2023-02-09,0.5277777777777506
2023-02-10,0.49999999999996353
2023-02-13,0.620689655172374
2023-02-14,0.06666666666664228
2023-02-15,0.02127659574467993
2023-02-16,0.025641025641025467
2023-02-17,0.020833333333333797
2023-02-20,0.04081632653062468
2023-02-21,0.3877551020408337
2023-02-22,0.6568567454798588
2023-02-23,0.8266311883971194
2023-02-24,0.9340645379859348
2023-02-27,0.8025365890891042
2023-02-28,0.49810877259340924
2023-03-01,0.4151982824968636
2023-03-02,0.0
2023-03-03,0.045352442536134366
2023-03-06,0.0454025997006489
2023-03-07,0.055555555555545214
2023-03-08,0.06060606060604998
2023-03-09,0.09999999999998167
2023-03-10,0.0
2023-03-13,0.0
2023-03-14,0.5483870967741884
2023-03-15,0.580645161290309
2023-03-16,0.6666666666666591
2023-03-17,0.9545454545454507
2023-03-20,1.0
2023-03-21,0.7454545454545562
2023-03-22,0.7628112241805944
2023-03-23,0.7033825113292396
2023-03-24,0.3234765814583063
2023-03-27,0.0785399129762997
2023-03-28,0.09860179577667684
2023-03-29,0.233819349519399
2023-03-30,0.39767421836132716
2023-03-31,0.6371914264597186
2023-04-03,0.9711077128930221
2023-04-04,0.942857142857151
2023-04-06,0.4523809523809527
2023-04-07,0.19999999999998755
2023-04-10,0.16129032258061957
2023-04-11,0.0
2023-04-12,0.0645161290322825
2023-04-13,0.1818181818182227
2023-04-14,0.11111111111114931
2023-04-17,0.33333333333336257
2023-04-18,0.5500000000000462
2023-04-19,0.3913486581361183
2023-04-20,0.43492782337958874
2023-04-21,0.8751088079529171
2023-04-24,0.7502196693569152
2023-04-25,0.634460585853743
2023-04-26,0.7563560162879086
2023-04-27,0.7319404312069202
2023-04-28,0.10640876478574905
2023-05-04,0.38337283915795933
2023-05-05,0.4482758620689673
2023-05-08,0.3818181818181641
2023-05-09,0.4210526315789359
2023-05-10,0.9444444444444179
2023-05-11,0.4324324324324247
2023-05-12,0.3333333333333333
2023-05-15,0.38461538461540884
2023-05-16,0.32432432432434777
2023-05-17,0.06666666666669809
2023-05-18,0.6400000000000042
2023-05-19,0.8666666666666628
2023-05-22,0.8709677419354745
2023-05-23,0.9189189189189078
2023-05-24,0.8294800686325281
2023-05-25,0.5409614142504338
2023-05-26,0.2634572625264846
2023-05-29,0.1629940512007901
2023-05-30,0.0
2023-05-31,0.11656955710424395
2023-06-01,0.20043403833383663
2023-06-02,0.3710168115098972
2023-06-05,0.700610354223461
2023-06-06,1.0
2023-06-07,1.0
2023-06-08,0.8400000000000051
2023-06-09,0.6666666666666894
2023-06-12,0.678571428571445
2023-06-13,0.6428571428571616
2023-06-14,0.4285714285714412
2023-06-15,0.5555555555555429
2023-06-16,0.8205128205128107
2023-06-19,0.5406398124988817
2023-06-20,0.5898939788621191
2023-06-21,0.7874078611395864
2023-06-26,0.8306700508170757
2023-06-27,0.7114834461839239
2023-06-28,0.7444065910099534
2023-06-29,0.6592870268283945
2023-06-30,0.35728862636983916
2023-07-03,0.18186452308596532
2023-07-04,0.20000000000001242
2023-07-05,0.25
2023-07-06,0.5172413793103273
2023-07-07,0.8333333333333274
2023-07-10,0.36000000000000615
2023-07-11,0.34615384615383327
2023-07-12,0.37499999999998396
2023-07-13,0.06249999999997597
2023-07-14,0.6499999999999861
2023-07-17,0.9677419354838445
2023-07-18,0.8571428571428445
2023-07-19,0.88372093023256
2023-07-20,0.8863636363636404
2023-07-21,0.4000000000000071
2023-07-24,0.23255813953488733
2023-07-25,0.5763915574342028
2023-07-26,0.6120336817956564
2023-07-27,0.5466962608844018
2023-07-28,0.6284739584550345
2023-07-31,0.7776117792999466
2023-08-01,0.3349517244766007
2023-08-02,0.053269363933151216
2023-08-03,0.06067833533656363
2023-08-04,0.19659597427364378
2023-08-07,0.22641509433962811
2023-08-08,0.4117647058823753
2023-08-09,1.0
2023-08-10,0.93548387096774
2023-08-11,0.6666666666666357
2023-08-14,0.515151515151501
2023-08-15,0.4054054054053839
2023-08-16,0.2666666666666463
2023-08-17,0.4736842105262828
2023-08-18,0.7441860465116187
2023-08-21,0.8536585365853538
2023-08-22,1.0
2023-08-23,1.0
2023-08-24,1.0
2023-08-25,0.8839402261136184
2023-08-28,0.8143061985917855
2023-08-29,0.8669501791546813
2023-08-30,0.8599219695950562
2023-08-31,0.5089934446346015
2023-09-01,0.883872896756109
2023-09-04,0.9475079140675533
2023-09-05,0.9046321525885509
2023-09-06,0.9113924050632867
2023-09-07,0.9649532710280363
2023-09-08,0.6544117647058815
2023-09-11,0.22562674094707738
2023-09-12,0.24425287356322203
2023-09-13,0.1628571428571452
2023-09-14,0.011494252873564726
2023-09-15,0.11382113821138629
2023-09-18,0.23529411764706787
2023-09-19,0.19512195121951792
2023-09-20,0.23529411764706715
2023-09-21,0.7731092436974919
2023-09-22,0.6636520767498391
2023-09-25,0.5563654459764079
2023-09-26,0.5818282005755231
2023-09-27,0.6738370136236563
2023-09-28,0.12288965011009934
2023-10-09,0.10511720385097947
2023-10-10,0.2941008057369496
2023-10-11,0.2666798531356934
2023-10-12,0.16307058440854033
2023-10-13,0.28235294117647175
2023-10-16,0.3934426229508182
2023-10-17,1.1421586891787052e-14
2023-10-18,0.3454545454545516
2023-10-19,0.45238095238095716
2023-10-20,0.4042553191489295
2023-10-23,0.5535714285714233
2023-10-24,0.5254237288135596
2023-10-25,0.2181818181818245
2023-10-26,0.3333333333333296
2023-10-27,0.452974251828184
2023-10-30,0.20664189735172803
2023-10-31,0.3236488837047339
2023-11-01,0.46917199715704205
2023-11-02,0.5391768536218444
2023-11-03,0.43145068074802456
2023-11-06,0.9135322435592294
2023-11-07,0.9155377182179192
2023-11-08,0.9124202968440323
2023-11-09,0.48571428571430975
2023-11-10,0.38636363636365656
2023-11-13,0.5000000000000057
2023-11-14,0.590909090909095
2023-11-15,0.5970149253731357
2023-11-16,0.8518518518518511
2023-11-17,1.0
2023-11-20,0.8313253012048079
2023-11-21,0.8138757161261871
2023-11-22,0.8142626583143974
2023-11-23,0.48879342547625854
2023-11-24,0.20578756085851815
2023-11-27,0.6001074586040217
2023-11-28,0.44430936539865673
2023-11-29,0.3941085337125296
2023-11-30,0.4890188023384642
2023-12-01,0.7266938634548664
2023-12-04,0.4492753623188438
2023-12-05,0.6296296296296229
2023-12-06,0.7234042553191445
2023-12-07,0.6071428571428374
2023-12-08,0.06382978723402093
2023-12-11,0.05999999999997946
2023-12-12,0.0
2023-12-13,0.0
2023-12-14,0.16949152542373963
2023-12-15,0.22226191326714428
2023-12-18,0.35522496371553225
2023-12-19,0.7062853147381895
2023-12-20,0.5459040218510737
2023-12-21,0.28622494490502715
2023-12-22,0.30482463799498294
2023-12-25,0.21685611133134367
2023-12-26,0.0
2023-12-27,0.19483202624472504
2023-12-28,0.3896103896103914
2023-12-29,0.4054054054054061
2024-01-02,0.4838709677419243
2024-01-03,0.8913043478260756
2024-01-04,0.577777777777765
2024-01-05,0.4411764705882312
2024-01-08,0.574999999999998
2024-01-09,0.6410256410256441
2024-01-10,0.7499999999999999
2024-01-11,1.0
2024-01-12,1.0
2024-01-15,1.0
2024-01-16,1.0
2024-01-17,0.5890410958904049
2024-01-18,0.34848484848483824
2024-01-19,0.21666666666665493
2024-01-22,0.14545454545454115
2024-01-23,0.4946236559139844
2024-01-24,0.7571428571428664
2024-01-25,0.9633027522935793
2024-01-26,0.9905660377358481
2024-01-29,0.8487394957983175
2024-01-30,0.49579831932772817
2024-01-31,0.43697478991596156
2024-02-01,0.0
2024-02-02,0.0
2024-02-05,0.0
2024-02-06,0.10465116279069545
2024-02-07,0.10112359550561682
2024-02-08,0.4200000000000143
2024-02-19,0.8194444444444484
2024-02-20,0.7866666666666732
2024-02-21,0.5434503094409563
2024-02-22,0.6189912873666824
2024-02-23,0.5062065551123628
2024-02-26,0.02374855443580953
2024-02-27,0.037853138923940696
2024-02-28,0.05437257342104749
2024-02-29,0.08760416551390206
2024-03-01,0.09988580513692026
2024-03-04,0.7498717392163011
2024-03-05,0.5555555555555404
2024-03-06,0.8461538461537604
2024-03-07,0.7777777777776587
2024-03-08,0.9166666666666101
2024-03-11,0.9354838709676979
2024-03-12,1.0
2024-03-13,1.0
2024-03-14,1.0
2024-03-15,0.452741015319596
2024-03-18,0.3135706936079224
2024-03-19,0.3746601324387198
2024-03-20,0.2996490725488638
2024-03-21,0.14032319938619142
2024-03-22,0.34941071757410946
2024-03-25,0.3778993054114724
2024-03-26,0.1611306370971905
2024-03-27,0.40603170338528555
2024-03-28,0.9220779220779246
2024-03-29,0.9548872180451143
2024-04-01,0.9833333333333355
2024-04-02,1.0
2024-04-03,0.9942857142857118
2024-04-08,0.8992248062015431
2024-04-09,0.45081967213114094
2024-04-10,0.053763440860218774
2024-04-11,0.15384615384615113
2024-04-12,0.23684210526315608
2024-04-15,0.24324324324324423
2024-04-16,0.6296296296296401
2024-04-17,0.8656716417910549
2024-04-18,0.8235294117647098
2024-04-19,0.8831168831168843
2024-04-22,0.9999999999999961
2024-04-23,0.8510638297872288
2024-04-24,0.861842105263154
2024-04-25,0.8397435897435853
2024-04-26,0.7768595041322323
2024-04-29,0.13846153846154255
2024-04-30,0.27777777777778245
2024-05-06,0.3500000000000007
2024-05-07,0.42000000000000454
2024-05-08,0.41176470588235536
2024-05-09,0.9504950495049517
2024-05-10,0.9545454545454556
2024-05-13,0.6297253897401114
2024-05-14,0.5950100885492356
2024-05-15,0.7473629821000177
2024-05-16,0.7275986804143412
2024-05-17,0.511611186189297
2024-05-20,0.712882975733161
2024-05-21,0.8116464036780723
2024-05-22,0.6472226731402135
2024-05-23,0.49046217985603663
2024-05-24,0.6535433070866106
2024-05-27,0.5285714285714268
2024-05-28,0.06557377049179969
2024-05-29,0.05714285714285361
2024-05-30,0.06349206349205956
2024-05-31,0.016666666666667693
2024-06-03,0.11926605504586729
2024-06-04,0.17105263157894107
2024-06-05,0.2708333333333255
2024-06-06,0.6524273952211916
2024-06-07,0.6422055689898735
2024-06-11,0.4274057219484078
2024-06-12,0.4333215218067334
2024-06-13,0.5724090978561467
2024-06-14,0.1126559108594975
2024-06-17,0.33126286192418514
2024-06-18,0.4866792721593338
2024-06-19,0.7116616320213399
2024-06-20,0.8044164037854882
2024-06-21,1.0
2024-06-24,0.9471544715447194
2024-06-25,0.8320000000000034
2024-06-26,0.5545851528384308
2024-06-27,0.05098039215686361
2024-06-28,0.05836575875486495
2024-07-01,0.056818181818182545
2024-07-02,0.18819188191882152
2024-07-03,0.27927927927927954
2024-07-04,0.7894736842105218
2024-07-05,0.7407407407407376
2024-07-08,0.8955223880597025
2024-07-09,0.4363636363636314
2024-07-10,0.15476190476190574
2024-07-11,0.0
2024-07-12,0.0
2024-07-15,0.0
2024-07-16,0.0
2024-07-17,0.15909090909089327
2024-07-18,0.2340425531914779
2024-07-19,0.46428571428569104
2024-07-22,0.7984025296879784
2024-07-23,1.0
2024-07-24,1.0
2024-07-25,1.0
2024-07-26,1.0
2024-07-29,0.9857606525829029
2024-07-30,0.8441751453736691
2024-07-31,0.7903906650336323
2024-08-01,0.4646734774796011
2024-08-02,0.7264957264957228
2024-08-05,0.8295454545454508
2024-08-06,0.9536082474226762
2024-08-07,0.7605042016806709
2024-08-08,0.6135593220339013
2024-08-09,0.4424778761061994
2024-08-12,0.19024390243902817
2024-08-13,0.18627450980391966
2024-08-14,0.41871921182265875
2024-08-15,0.6809815950920224
2024-08-16,0.48898678414096597
2024-08-19,0.5115207373271868
2024-08-20,0.294354838709677
2024-08-21,0.1935483870967753
2024-08-22,0.08333333333333529
2024-08-23,0.13114754098360995
2024-08-26,0.1827956989247368
2024-08-27,0.5388228941684672
2024-08-28,0.01672221747429209
2024-08-29,0.014445437915790109
2024-08-30,0.013561384323934715
2024-09-02,0.2863541904607985
2024-09-03,0.4774472540228014
2024-09-04,0.5853027014056661
2024-09-05,0.7389308275868514
2024-09-06,0.852968664101156
2024-09-09,0.8333333333333356
2024-09-10,0.6250000000000012
2024-09-11,0.7913043478260846
2024-09-12,0.5545454545454499
2024-09-13,0.2372881355932176
2024-09-18,0.10389610389610053
2024-09-19,0.2549019607843108
2024-09-20,0.1455696202531645
2024-09-23,0.17910447761194284
2024-09-24,0.39473684210526394
2024-09-25,0.642857142857142
2024-09-26,0.323529411764713
2024-09-27,0.6710526315789568
2024-09-30,0.6753246753246864
2024-10-08,0.5689655172413925
2024-10-09,0.5076923076923242
2024-10-10,0.6111111111110982
2024-10-11,0.08888888888889464
2024-10-14,0.3880597014925134
2024-10-15,0.255319148936157
2024-10-16,0.45871559633026376
2024-10-17,0.6201550387596919
2024-10-18,0.7363636363636388
2024-10-21,0.46341463414635026
2024-10-22,0.6837606837606907
2024-10-23,0.4320000000000094
2024-10-24,0.2050184580814307
2024-10-25,0.1838311363257157
2024-10-28,0.24168416434235176
2024-10-29,0.0
2024-10-30,0.1787419586115437
2024-10-31,0.22736042782075727
2024-11-01,0.6202316776672508
2024-11-04,0.7492001194488196
2024-11-05,0.777630180658867
2024-11-06,0.6046511627906865
2024-11-07,0.7524752475247494
2024-11-08,0.3796296296296338
2024-11-11,0.22429906542056346
2024-11-12,0.29523809523809574
2024-11-13,0.5284552845528473
2024-11-14,0.42574257425742756
2024-11-15,0.7460317460317372
2024-11-18,0.9591836734693806
2024-11-19,0.7272727272727323
2024-11-20,0.13308110103353607
2024-11-21,0.06138522650053428
2024-11-22,0.0
2024-11-25,0.3757620380806924
2024-11-26,0.5225378966198971
2024-11-27,0.5871349746593987
2024-11-28,0.8138859051514894
2024-11-29,0.7496797977812931
2024-12-02,0.666445428727527
2024-12-03,0.7179487179487216
2024-12-04,0.8915662650602428
2024-12-05,0.7349397590361549
2024-12-06,0.8869565217391381
2024-12-09,0.6541353383458662
2024-12-10,0.45038167938931656
2024-12-11,0.3178294573643426
2024-12-12,0.4485294117647053
2024-12-13,0.16528925619834844
2024-12-16,0.21276595744681082
2024-12-17,0.3593275314648516
2024-12-18,0.7455375166138217
2024-12-19,0.5595646152514457
2024-12-20,0.6593553980315071
2024-12-23,0.7202610545570143
2024-12-24,0.6068162394138942
2024-12-25,0.07132316997958103
2024-12-26,0.0849771391247587
2024-12-27,0.5025457026265611
2024-12-30,0.41836734693877586
2024-12-31,0.4361702127659581
