date,FCT_Cr_Atr_Dfive
2018-03-26,
2018-03-27,
2018-03-28,
2018-03-29,
2018-03-30,
2018-04-02,
2018-04-03,
2018-04-04,
2018-04-09,
2018-04-10,
2018-04-11,0.15258236266482147
2018-04-12,0.05220434577444136
2018-04-13,0.1535723717747931
2018-04-16,0.12096612095381397
2018-04-17,-0.017485493230173607
2018-04-18,0.07397248345524166
2018-04-19,-0.01796142364635989
2018-04-20,0.11041039555687501
2018-04-23,-0.009375912505640547
2018-04-24,0.3655357142857144
2018-04-25,-0.05140110785272013
2018-04-26,0.019421999337887
2018-04-27,-0.10192453349858836
2018-05-02,-0.0373200017091833
2018-05-03,-0.3972211075441421
2018-05-04,-0.16595456811222586
2018-05-07,0.08493757551349104
2018-05-08,0.05569161691922945
2018-05-09,0.3138482459006277
2018-05-10,0.21532175689479102
2018-05-11,0.16129506990434092
2018-05-14,-0.12608695652173857
2018-05-15,0.03650696464105415
2018-05-16,-0.5403116067474547
2018-05-17,-0.01053901850361963
2018-05-18,-0.03482726423902838
2018-05-21,0.037707251120756125
2018-05-22,-0.04393009338317995
2018-05-23,0.3139848851713255
2018-05-24,-0.16331778601450858
2018-05-25,0.023866303278065902
2018-05-28,0.12828033928825316
2018-05-29,-0.03028164719615873
2018-05-30,-0.1090121999212902
2018-05-31,0.15702895152006366
2018-06-01,0.12695012085256124
2018-06-04,-0.2591314031180392
2018-06-05,0.09113765988322885
2018-06-06,0.050664750269492166
2018-06-07,-0.11450676982591992
2018-06-08,-0.270991465101374
2018-06-11,0.2456937799043058
2018-06-12,-0.0783090528787908
2018-06-13,-0.07051961823965965
2018-06-14,0.0583742498636122
2018-06-15,0.11160361239931789
2018-06-19,-0.1437707029812293
2018-06-20,-0.04027171276079833
2018-06-21,0.08353984609364823
2018-06-22,0.022243905964835664
2018-06-25,0.04668667466986741
2018-06-26,0.025688863375429596
2018-06-27,0.299830364715863
2018-06-28,-0.06134422536443537
2018-06-29,-0.023424098321499186
2018-07-02,0.07427748169331419
2018-07-03,0.05713709445052846
2018-07-04,-0.305841973339411
2018-07-05,0.0007399366581708269
2018-07-06,0.04315726290516134
2018-07-09,-0.11362167786980831
2018-07-10,-0.028737010700938644
2018-07-11,-0.024090206338823736
2018-07-12,0.26985364501444375
2018-07-13,-0.0501661960756274
2018-07-16,-0.057467255676974555
2018-07-17,0.022778762900080247
2018-07-18,0.044612594398525635
2018-07-19,-0.4093783644023973
2018-07-20,0.08744320478120844
2018-07-23,0.02554961378490741
2018-07-24,-0.11098256777009505
2018-07-25,0.15796019900497615
2018-07-26,0.10523601951591441
2018-07-27,-0.15997746329499957
2018-07-30,0.06398080065359663
2018-07-31,-0.007322285674243936
2018-08-01,-0.07758958018894477
2018-08-02,0.0466201167760212
2018-08-03,0.27908848925533947
2018-08-06,0.14997359831029075
2018-08-07,0.3577586424330461
2018-08-08,0.3805808447061702
2018-08-09,0.09889684613744201
2018-08-10,-0.194191568110862
2018-08-13,-0.22549667375241172
2018-08-14,-0.29414517239457083
2018-08-15,-0.7083319525900216
2018-08-16,-0.02757083262393179
2018-08-17,-0.09676976411632877
2018-08-20,0.3138728561438762
2018-08-21,0.01542939226920486
2018-08-22,0.2566792334411902
2018-08-23,-0.1875939207650239
2018-08-24,0.16000500870726742
2018-08-27,-0.507320787131035
2018-08-28,-0.12418226115805034
2018-08-29,-0.08724710326540827
2018-08-30,0.23627492725853405
2018-08-31,-0.15902373950663795
2018-09-03,0.2455199076477299
2018-09-04,0.13990280917855
2018-09-05,0.27826206451535757
2018-09-06,-0.2709079209079268
2018-09-07,0.21953734988547935
2018-09-10,0.20040265500645144
2018-09-11,-0.0072654728642720014
2018-09-12,-0.03805680829179786
2018-09-13,0.2490990990991046
2018-09-14,-0.130226289726074
2018-09-17,-0.28257568087476426
2018-09-18,0.02964043842451837
2018-09-19,-0.3201368523949141
2018-09-20,-0.048890501239496585
2018-09-21,-0.08124466321763892
2018-09-25,0.12072829131652785
2018-09-26,-0.10366117575171319
2018-09-27,0.2712439331778085
2018-09-28,-0.0032360439103033545
2018-10-08,0.17845815577997048
2018-10-09,0.3421853388658375
2018-10-10,0.20424199456457887
2018-10-11,0.19639737554509595
2018-10-12,-0.0019996569216090207
2018-10-15,-0.03855082075940823
2018-10-16,-0.47805773469916923
2018-10-17,-0.13038140676878435
2018-10-18,-0.43774602137871355
2018-10-19,-0.05811753773138849
2018-10-22,-0.1077635097654498
2018-10-23,-0.06412760416666859
2018-10-24,0.05907283028779042
2018-10-25,0.13803433780271712
2018-10-26,-0.0886025610435044
2018-10-29,0.07406207827260554
2018-10-30,0.17982456140350916
2018-10-31,-0.14223977992450706
2018-11-01,0.061421069524731614
2018-11-02,0.3878151594687014
2018-11-05,-0.06132094943240514
2018-11-06,0.06651690201112466
2018-11-07,0.12600587880278172
2018-11-08,-0.12159817767119038
2018-11-09,-0.4420357089121803
2018-11-12,0.22457110938122415
2018-11-13,-0.03399779837928767
2018-11-14,0.02329990789993093
2018-11-15,0.14835696491548345
2018-11-16,0.1412559520128604
2018-11-19,-0.21318327701397913
2018-11-20,-0.12844215791462105
2018-11-21,-0.02361441555366585
2018-11-22,-0.034664293109702836
2018-11-23,0.20276556606822038
2018-11-26,-0.033285857945428925
2018-11-27,0.10052472238747114
2018-11-28,-0.12893874697552052
2018-11-29,0.03638970437951244
2018-11-30,-0.33636536082091
2018-12-03,0.46855673802277154
2018-12-04,-0.011821320561242592
2018-12-05,0.08977124157111886
2018-12-06,-0.09310827521049442
2018-12-07,0.22499707061598626
2018-12-10,-0.5354527055409176
2018-12-11,0.0060457790246391495
2018-12-12,-0.11039116386006256
2018-12-13,-0.05590528413366402
2018-12-14,-0.0882450882450879
2018-12-17,0.006781609195401772
2018-12-18,0.06357182144989028
2018-12-19,0.34195618425466334
2018-12-20,0.11155515272174897
2018-12-21,0.027953474697224895
2018-12-24,0.1441091923044618
2018-12-25,0.12199184116888954
2018-12-26,-0.3248958285873385
2018-12-27,0.21413721705054026
2018-12-28,-0.022263424382428548
2019-01-02,-0.01928517574131519
2019-01-03,-0.24021157570310134
2019-01-04,0.12910669238759415
2019-01-07,-0.4064485112151438
2019-01-08,0.0531537607414036
2019-01-09,-0.008287908852007433
2019-01-10,-0.13971824221564175
2019-01-11,-0.1553176750016485
2019-01-14,0.19495592432623335
2019-01-15,-0.12866810440990578
2019-01-16,-0.051591869792924225
2019-01-17,0.09093084174851902
2019-01-18,0.27809857120562587
2019-01-21,-0.05994544214594069
2019-01-22,0.1525497870381027
2019-01-23,0.07061131763734149
2019-01-24,0.20931501232018057
2019-01-25,-0.24705208021658404
2019-01-28,-0.023717730399837357
2019-01-29,-0.04907392452419013
2019-01-30,0.002063492063491163
2019-01-31,-0.25775029852356596
2019-02-01,0.19940257436138997
2019-02-11,0.03980394115380837
2019-02-12,-0.009693672218440733
2019-02-13,-0.015699855699857625
2019-02-14,0.2600495112401279
2019-02-15,-0.1448151848151868
2019-02-18,0.18794799830966755
2019-02-19,-0.06860841384374138
2019-02-20,-0.030129487899840345
2019-02-21,-0.13419960447811183
2019-02-22,-0.11471712345295312
2019-02-25,-0.22092776849362122
2019-02-26,0.2577069482212129
2019-02-27,0.043838813804290326
2019-02-28,-0.08484392532703713
2019-03-01,0.2571752450415099
2019-03-04,0.07326500409345668
2019-03-05,-0.2602085479411916
2019-03-06,0.12060422379371762
2019-03-07,0.16893313641947816
2019-03-08,-0.13264410581709488
2019-03-11,-0.04062289057226355
2019-03-12,0.04577571524555264
2019-03-13,-0.24398318098466887
2019-03-14,-0.13379755932487342
2019-03-15,0.02929623567921578
2019-03-18,-0.06196093394658794
2019-03-19,-0.01151537240901494
2019-03-20,0.12525589197892023
2019-03-21,0.1617515635346412
2019-03-22,-0.06895719875138948
2019-03-25,0.03807995497766924
2019-03-26,0.017074032204966633
2019-03-27,-0.08918862092844092
2019-03-28,-0.19504158404558786
2019-03-29,0.25063392152052294
2019-04-01,0.02388097896892142
2019-04-02,0.1782020239647288
2019-04-03,0.15707119492437138
2019-04-04,0.0434267930085877
2019-04-08,-0.39285272981497854
2019-04-09,-0.004557031734021798
2019-04-10,-0.3249495822529487
2019-04-11,-0.08890154012105184
2019-04-12,0.1152520830391199
2019-04-15,0.5080188347740539
2019-04-16,0.03950901939510168
2019-04-17,0.21810025988407428
2019-04-18,-0.05007706077598982
2019-04-19,-0.15665016401429466
2019-04-22,-0.104765964837193
2019-04-23,0.05638551820026473
2019-04-24,-0.11947618827866618
2019-04-25,0.16381836472230343
2019-04-26,0.2502858315034425
2019-04-29,-0.30419460863951064
2019-04-30,-0.16542538010229174
2019-05-06,0.16726038698065082
2019-05-07,-0.08208262914247666
2019-05-08,-0.22062603775905276
2019-05-09,0.012514428042042988
2019-05-10,0.2040014608656549
2019-05-13,-0.06787144853283904
2019-05-14,0.19862375486509448
2019-05-15,0.02332972793077509
2019-05-16,0.11251858459708201
2019-05-17,-0.15972702559235333
2019-05-20,0.006758199847446005
2019-05-21,-0.40662338929177594
2019-05-22,0.10533923026917422
2019-05-23,0.055010617508678555
2019-05-24,0.30854266211368997
2019-05-27,-0.03390279538232804
2019-05-28,0.22143342050477988
2019-05-29,-0.0881037646543559
2019-05-30,-0.04740303352630079
2019-05-31,-0.18002610054614776
2019-06-03,0.040855796614505994
2019-06-04,0.08485054810376325
2019-06-05,0.07924252303139373
2019-06-06,-0.022510225200807317
2019-06-10,-0.2930446332164395
2019-06-11,-0.11421552595867263
2019-06-12,-0.20488526758612932
2019-06-13,0.1379730286027926
2019-06-14,-0.049912845774916614
2019-06-17,0.21733218653950742
2019-06-18,0.11430601006765335
2019-06-19,0.10231820882464175
2019-06-20,-0.2509525594025307
2019-06-21,0.035431804280287554
2019-06-24,0.004445350444291283
2019-06-25,-0.09262224893468848
2019-06-26,-0.08867159701604296
2019-06-27,-0.09989749270794279
2019-06-28,-0.06442436682254393
2019-07-01,0.15156278123004888
2019-07-02,0.18645839690301813
2019-07-03,0.21146510885839903
2019-07-04,0.17963224893917942
2019-07-05,0.03018847428167879
2019-07-08,-0.19802873986735325
2019-07-09,-0.24872539368721694
2019-07-10,-0.3183197855649383
2019-07-11,0.07421927729228048
2019-07-12,0.08598799630655549
2019-07-15,-0.07177865612648157
2019-07-16,0.12183882519501275
2019-07-17,0.4557170390770253
2019-07-18,-0.15394860439051325
2019-07-19,0.12992864617301683
2019-07-22,0.19458854754010668
2019-07-23,-0.06409713753208396
2019-07-24,-0.43444371810419424
2019-07-25,0.09505777024154924
2019-07-26,-0.35909531283968266
2019-07-29,-0.19018833237065946
2019-07-30,0.08698477143828702
2019-07-31,0.13047598612452493
2019-08-01,-0.10262414565252168
2019-08-02,0.6568396226415081
2019-08-05,0.13379619516179242
2019-08-06,0.3543874172185409
2019-08-07,0.047932547932545144
2019-08-08,0.09815894117188281
2019-08-09,-0.6761992153531923
2019-08-12,-0.01647650861133903
2019-08-13,-0.757820855614973
2019-08-14,0.11573994376542246
2019-08-15,-0.06827813479789108
2019-08-16,0.2232978260600655
2019-08-19,0.02871248619482617
2019-08-20,0.35430652160968135
2019-08-21,-0.2690929184469689
2019-08-22,0.0014158800845400776
2019-08-23,0.006084289174142839
2019-08-26,-0.09238673312898293
2019-08-27,0.13694456656343398
2019-08-28,0.17890342139382057
2019-08-29,-0.0010026795747269598
2019-08-30,0.06819912696201057
2019-09-02,0.1190260070118154
2019-09-03,-0.14929902688438312
2019-09-04,-0.0891889026864978
2019-09-05,0.10653098616712822
2019-09-06,-0.1425073637702503
2019-09-09,-0.01154863491860092
2019-09-10,0.03388243798595299
2019-09-11,0.036940367398208614
2019-09-12,0.046124740390040414
2019-09-16,0.03273763179989578
2019-09-17,0.09421113889830895
2019-09-18,0.22503390677256543
2019-09-19,0.027415433555656215
2019-09-20,-0.2548014727695471
2019-09-23,-0.00495191751418143
2019-09-24,-0.401557315305335
2019-09-25,-0.4773482816937019
2019-09-26,-0.07698779018212508
2019-09-27,0.19720938499822022
2019-09-30,0.07752798053527926
2019-10-08,0.3543488686126777
2019-10-09,0.7457525132320753
2019-10-10,0.07223844117048252
2019-10-11,0.10072164948453767
2019-10-14,-0.033702551793910046
2019-10-15,-0.11281041223292904
2019-10-16,-0.8182621285653
2019-10-17,0.009541661824110287
2019-10-18,-0.4125817176145238
2019-10-21,-0.047411635637919496
2019-10-22,-0.08336886369672741
2019-10-23,0.2409813648714138
2019-10-24,-0.0036976474815146147
2019-10-25,0.26369282872563476
2019-10-28,-0.016369837059492163
2019-10-29,0.15203391212195225
2019-10-30,0.1489811556362799
2019-10-31,-0.101048302440287
2019-11-01,0.013750767341928625
2019-11-04,0.06012855069458973
2019-11-05,-0.0495137046861186
2019-11-06,-0.1311784897025176
2019-11-07,0.15404740576433798
2019-11-08,0.02474647663834405
2019-11-11,0.07586729425647498
2019-11-12,0.005709866286411354
2019-11-13,0.1706386753400352
2019-11-14,-0.07282913165266366
2019-11-15,-0.0415111890994834
2019-11-18,-0.14268623938952435
2019-11-19,-0.06469876465708461
2019-11-20,-0.12173173090745018
2019-11-21,-0.05002767582154031
2019-11-22,-0.05118493675240099
2019-11-25,-0.01370999724905942
2019-11-26,0.027221814879452164
2019-11-27,-0.07781152295205224
2019-11-28,-0.03032946703560023
2019-11-29,-0.0637083457443516
2019-12-02,0.2563854211508097
2019-12-03,0.0359675785207695
2019-12-04,0.09843990331794981
2019-12-05,0.17559523809523625
2019-12-06,0.17473089911354672
2019-12-09,-0.14877198805177766
2019-12-10,0.037603704028198015
2019-12-11,-0.07123468663209313
2019-12-12,-0.12640827486637948
2019-12-13,-0.06964898415570854
2019-12-16,-0.2395472153440592
2019-12-17,-0.1363002202779045
2019-12-18,0.14292743200905017
2019-12-19,-0.040258391800286286
2019-12-20,-0.033250833418022416
2019-12-23,0.127449638178445
2019-12-24,0.08264741095480269
2019-12-25,0.013048245614035836
2019-12-26,0.05714285714285809
2019-12-27,0.19076213641431414
2019-12-30,0.11272772704556758
2019-12-31,0.2621493088419171
2020-01-02,-0.2059218377088326
2020-01-03,0.5234127754780392
2020-01-06,0.038956620574758266
2020-01-07,0.07723104195041713
2020-01-08,-0.010208925017318876
2020-01-09,0.3225008278482176
2020-01-10,-0.6563933751253069
2020-01-13,-0.3312583755917728
2020-01-14,-0.11752537491458276
2020-01-15,-0.5248989752457126
2020-01-16,-0.4842563828786587
2020-01-17,0.14499358666025308
2020-01-20,0.14333836655179238
2020-01-21,-0.19137561980112194
2020-01-22,0.24342345816076072
2020-01-23,0.5188841650735663
2020-02-03,-0.1597643097643088
2020-02-04,0.335707723480033
2020-02-05,0.2890948037516916
2020-02-06,0.038085802027028236
2020-02-07,-0.43900166634461446
2020-02-10,0.3912206762656648
2020-02-11,-0.6321596533083662
2020-02-12,-0.25616764136644876
2020-02-13,-0.07298259954947785
2020-02-14,0.1740448940103194
2020-02-17,-0.4774829589565204
2020-02-18,0.31224265123342143
2020-02-19,0.2654751120711742
2020-02-20,0.0523867263863811
2020-02-21,0.06858299595141601
2020-02-24,0.34482441625298726
2020-02-25,-0.02614556114970979
2020-02-26,-0.11061946902655045
2020-02-27,0.10427547759492242
2020-02-28,0.05053434443026421
2020-03-02,0.2582634141380136
2020-03-03,0.19485203563152845
2020-03-04,-0.05998934776803777
2020-03-05,-0.16539964541082208
2020-03-06,-0.03272729888790345
2020-03-09,-0.6952554367331478
2020-03-10,-0.5925108498739133
2020-03-11,0.8383144709207478
2020-03-12,0.4288609768126006
2020-03-13,0.06680667981769915
2020-03-16,0.6297978483123533
2020-03-17,0.5428349199650826
2020-03-18,-0.9417157865433765
2020-03-19,-0.3025612732420693
2020-03-20,-0.2917475412196996
2020-03-23,-0.12237370916896725
2020-03-24,-0.15816794177396035
2020-03-25,0.15018073814748906
2020-03-26,-0.19642542796069765
2020-03-27,0.16531900941753178
2020-03-30,-0.44762948198091035
2020-03-31,0.2174475422510801
2020-04-01,0.011264399951345316
2020-04-02,0.44933039669881647
2020-04-03,0.22826175061045378
2020-04-07,0.2358237840590785
2020-04-08,-0.29738127994686686
2020-04-09,-0.0036724522362592774
2020-04-10,-0.530957808834704
2020-04-13,-0.29363799872781937
2020-04-14,0.12656054710529374
2020-04-15,0.0694682832414292
2020-04-16,0.26624644333215586
2020-04-17,0.41209801680004077
2020-04-20,-0.049198632841754505
2020-04-21,-0.046989840034586755
2020-04-22,0.006844189078266085
2020-04-23,-0.08665586306434059
2020-04-24,-0.3116391832656387
2020-04-27,0.11316144379251619
2020-04-28,-0.06667961236869352
2020-04-29,0.10816724056756252
2020-04-30,-0.45344203392260163
2020-05-06,0.35790698243171304
2020-05-07,-0.03330627765805421
2020-05-08,0.17680424049914364
2020-05-11,-0.15601003941733543
2020-05-12,0.23891176324878202
2020-05-13,-0.4660119660232094
2020-05-14,0.04352245957140672
2020-05-15,-0.2181006834020761
2020-05-18,0.1488593799788695
2020-05-19,0.1766120897028011
2020-05-20,0.2080165956066729
2020-05-21,-0.07874504827762638
2020-05-22,0.10943804357571882
2020-05-25,-0.13326330532212874
2020-05-26,-0.3136088606296785
2020-05-27,0.042699732917058766
2020-05-28,0.04108576060791533
2020-05-29,-0.32571193126553405
2020-06-01,-0.06322598403523283
2020-06-02,0.11219496173678614
2020-06-03,0.23049862561064
2020-06-04,0.13163891521140794
2020-06-05,0.3123125308658002
2020-06-08,0.24184456017856154
2020-06-09,0.16206277382748216
2020-06-10,-0.41455122103143616
2020-06-11,-0.1688476392095667
2020-06-12,0.15710670931492698
2020-06-15,-0.06151315845888086
2020-06-16,0.03469951077090644
2020-06-17,0.22952717337936288
2020-06-18,-0.005912381844615115
2020-06-19,-0.31276694535739835
2020-06-22,-0.19141232384310902
2020-06-23,-0.34511320010280877
2020-06-24,-0.17703324988909466
2020-06-29,0.19145530643250977
2020-06-30,0.10632675334951952
2020-07-01,0.032748464600218505
2020-07-02,0.31738932239448986
2020-07-03,0.13245356793744129
2020-07-06,-0.20982793672831945
2020-07-07,-0.009281946326138945
2020-07-08,0.1581285831285819
2020-07-09,-0.28780591389286814
2020-07-10,0.15994576111307549
2020-07-13,0.04053573193634309
2020-07-14,0.18461954622814808
2020-07-15,-0.09129762292412617
2020-07-16,0.44109292839942893
2020-07-17,-0.2810086063138564
2020-07-20,0.20558079287760703
2020-07-21,-0.16928851283920995
2020-07-22,0.008880132040977439
2020-07-23,-0.4537847937037303
2020-07-24,0.16145777265896907
2020-07-27,-0.30809917418794686
2020-07-28,-0.004657647200832525
2020-07-29,-0.06564266604797547
2020-07-30,0.2179456099946605
2020-07-31,0.05135010911443213
2020-08-03,0.24525321244648318
2020-08-04,-0.07116004774885525
2020-08-05,0.1685104661745397
2020-08-06,0.15228364406090308
2020-08-07,-0.2596059113300465
2020-08-10,-0.15201405491559522
2020-08-11,0.0748448878152219
2020-08-12,-0.009404388714736131
2020-08-13,-0.3833229410674266
2020-08-14,0.11580899060221873
2020-08-17,-0.12008821170810127
2020-08-18,0.21591683708248158
2020-08-19,-0.08298704770235982
2020-08-20,0.1903812864431482
2020-08-21,0.08869319768894852
2020-08-24,0.41105015673981343
2020-08-25,-0.24949031600407606
2020-08-26,-0.14758786784074965
2020-08-27,0.011868414750956208
2020-08-28,-0.059514836407263925
2020-08-31,-0.3281305270604897
2020-09-01,0.059319375833137636
2020-09-02,0.15959512497418044
2020-09-03,0.27461198779141277
2020-09-04,0.004377526116653837
2020-09-07,0.3243934922831869
2020-09-08,0.014748234856926525
2020-09-09,0.21974468085106094
2020-09-10,-0.2974090575713826
2020-09-11,0.055528921849176814
2020-09-14,-0.3628888322906331
2020-09-15,-0.1022682657025582
2020-09-16,-0.27838954427924933
2020-09-17,-0.031202293362407263
2020-09-18,-0.0007558688152511164
2020-09-21,0.1062503729967898
2020-09-22,0.48602430434989985
2020-09-23,-0.016897584433620105
2020-09-24,0.1533466333594386
2020-09-25,-0.08267857142857274
2020-09-28,0.029803646563813523
2020-09-29,-0.6767777777777729
2020-09-30,0.20528332533387222
2020-10-09,-0.2112600548034539
2020-10-12,0.0010006845939507722
2020-10-13,-0.04160679926250185
2020-10-14,0.2820497850528204
2020-10-15,-0.36025317986122235
2020-10-16,0.4408752588246104
2020-10-19,0.011123632345941145
2020-10-20,0.04746985973514336
2020-10-21,-0.04651132351435835
2020-10-22,0.32625698324021923
2020-10-23,-0.5888321065216457
2020-10-26,0.2070689454714521
2020-10-27,-0.09452459152704659
2020-10-28,0.23001998001997975
2020-10-29,0.011716621253408707
2020-10-30,0.490571683218748
2020-11-02,-0.14786310209070302
2020-11-03,0.16866264484368826
2020-11-04,-0.22679052259199772
2020-11-05,-0.17085930686477466
2020-11-06,-0.2490004907274124
2020-11-09,-0.13859245710660123
2020-11-10,-0.06879368131017768
2020-11-11,0.08145056842851303
2020-11-12,0.057134653482852835
2020-11-13,-0.05049747747395495
2020-11-16,0.057117961273976656
2020-11-17,-0.07154467588086481
2020-11-18,-0.13494750418152987
2020-11-19,-0.04272880997674701
2020-11-20,-0.019959980267278868
2020-11-23,0.06273579892661778
2020-11-24,0.3507801899592945
2020-11-25,0.24964855701645616
2020-11-26,0.10414278269931848
2020-11-27,0.16370845240853704
2020-11-30,0.12226624236470121
2020-12-01,-0.43327009668350447
2020-12-02,-0.25118502695554756
2020-12-03,-0.08275224409599971
2020-12-04,0.17374613694753843
2020-12-07,-0.29262965373299565
2020-12-08,0.23438807653913846
2020-12-09,0.0628784610534165
2020-12-10,0.004959492843144096
2020-12-11,-0.3819499590967833
2020-12-14,0.120965835729211
2020-12-15,-0.11199657656281989
2020-12-16,-0.014366627772429807
2020-12-17,0.15999901109452985
2020-12-18,0.04549425519483301
2020-12-21,0.26434303205567206
2020-12-22,0.026023011153724768
2020-12-23,0.21010382179484405
2020-12-24,-0.13440758948472234
2020-12-25,0.09971169282180607
2020-12-28,-0.34170002524432874
2020-12-29,-0.07575378796113033
2020-12-30,-0.2753111191141737
2020-12-31,-0.1764061318635573
2021-01-04,0.2611543787627316
2021-01-05,0.14519610722142273
2021-01-06,0.14210191082802395
2021-01-07,0.2566000504797074
2021-01-08,0.2448562188928437
2021-01-11,-0.2633734812617887
2021-01-12,0.015242259798028075
2021-01-13,-0.13046533711779057
2021-01-14,-0.25933297726672105
2021-01-15,-0.0656260446851641
2021-01-18,-0.11554792029946928
2021-01-19,-0.20062526160634447
2021-01-20,-0.00758709733913792
2021-01-21,0.05601594514545258
2021-01-22,-0.06885218270689662
2021-01-25,0.10677874873353385
2021-01-26,0.10739775280898603
2021-01-27,-0.021386817879520507
2021-01-28,0.13489620651724285
2021-01-29,0.018917426125379895
2021-02-01,-0.042203326929788496
2021-02-02,0.24128708009589933
2021-02-03,0.1349948078920069
2021-02-04,-0.04478102714811257
2021-02-05,0.05102045555284926
2021-02-08,0.013647168471577042
2021-02-09,-0.23457225062766196
2021-02-10,-0.03151032369957123
2021-02-18,-0.0181957940113359
2021-02-19,0.21740127273353868
2021-02-22,0.08294734060674888
2021-02-23,0.2985587379048671
2021-02-24,0.009487702275750843
2021-02-25,-0.007812715988148797
2021-02-26,-0.267506450688076
2021-03-01,0.011971117544611484
2021-03-02,-0.34026951838028824
2021-03-03,-0.03960826827511467
2021-03-04,-0.03337941079289238
2021-03-05,0.15309521208181737
2021-03-08,-0.00584336870508842
2021-03-09,-0.023753111000559476
2021-03-10,0.12278448212137576
2021-03-11,-0.00934099283785287
2021-03-12,-0.31431967164670405
2021-03-15,-0.16687768411245835
2021-03-16,0.010456620276146744
2021-03-17,-0.27783871608431
2021-03-18,0.022390676567655872
2021-03-19,0.6282152852529604
2021-03-22,0.1564725486426084
2021-03-23,0.07575643388905078
2021-03-24,0.20861939171553848
2021-03-25,0.07984917662751015
2021-03-26,-0.6374430992736064
2021-03-29,-0.10926729037710192
2021-03-30,0.09762350093519875
2021-03-31,-0.148545630547386
2021-04-01,-0.041424696595614804
2021-04-02,0.36115598671243143
2021-04-06,0.031855589152700974
2021-04-07,-0.12354213739724168
2021-04-08,0.1117102970447043
2021-04-09,-0.15954758631842686
2021-04-12,-0.3267562149951505
2021-04-13,0.015086771252411545
2021-04-14,0.0039761014870167005
2021-04-15,0.13877624779916511
2021-04-16,0.13252179021078372
2021-04-19,0.1207013371186407
2021-04-20,0.008238341911383834
2021-04-21,0.15153324902497767
2021-04-22,-0.23184832032329467
2021-04-23,-0.02744579761765701
2021-04-26,0.10762067896227372
2021-04-27,0.11378206158075159
2021-04-28,-0.23349090698817543
2021-04-29,0.012696466879736079
2021-04-30,0.07733996674744674
2021-05-06,-0.09401188608059634
2021-05-07,-0.21139309524399724
2021-05-10,0.2455908289241669
2021-05-11,0.12866848395890135
2021-05-12,0.01893144434943131
2021-05-13,0.12299773227548541
2021-05-14,0.18607081207281684
2021-05-17,-0.1574129855910504
2021-05-18,-0.015964385142358553
2021-05-19,0.01704018723532011
2021-05-20,-0.0951770167854751
2021-05-21,-0.10540683636551261
2021-05-24,0.0025443116640766136
2021-05-25,-0.08279921605051513
2021-05-26,-0.2787510543483953
2021-05-27,-0.10740309978804642
2021-05-28,0.11730237772447469
2021-05-31,0.09181752754248954
2021-06-01,0.3269067915386812
2021-06-02,0.28270492507807377
2021-06-03,0.18478746114073846
2021-06-04,-0.17087166566501602
2021-06-07,-0.06369366093536083
2021-06-08,-0.4923978213366931
2021-06-09,-0.050895572650831375
2021-06-10,-0.054336744151560194
2021-06-11,0.18319225597352046
2021-06-15,-0.03152168592388881
2021-06-16,0.18896404746100182
2021-06-17,-0.12058880313115808
2021-06-18,0.11221720032438032
2021-06-21,-0.06842475663270228
2021-06-22,0.07901380851585472
2021-06-23,0.022025033290649268
2021-06-24,0.06745514610575039
2021-06-25,-0.2325097031276132
2021-06-28,-0.07377485837552698
2021-06-29,-0.1270765806466155
2021-06-30,-0.11256587615283208
2021-07-01,0.055308213291159244
2021-07-02,0.0654102859560356
2021-07-05,-0.09422662588980937
2021-07-06,0.131847472657405
2021-07-07,0.4543228107549776
2021-07-08,0.05657720483462772
2021-07-09,0.07031099148650019
2021-07-12,0.13148700061517796
2021-07-13,-0.09029411764705975
2021-07-14,-0.4874691941842689
2021-07-15,0.03877565421905102
2021-07-16,0.006137547951510801
2021-07-19,0.07293268696130273
2021-07-20,0.10420324751620996
2021-07-21,0.1342681300465645
2021-07-22,-0.33664201839557556
2021-07-23,-0.013756922652538282
2021-07-26,-0.13730782794934593
2021-07-27,-0.17862714078485553
2021-07-28,0.013469440448154254
2021-07-29,0.12794711256076402
2021-07-30,-0.11876758034090079
2021-08-02,0.25952737194155817
2021-08-03,0.25987890060747376
2021-08-04,0.007292870905586438
2021-08-05,0.19882451563074305
2021-08-06,0.16050281237083985
2021-08-09,-0.09881308622727311
2021-08-10,-0.22826464375620847
2021-08-11,-0.03812925170068111
2021-08-12,-0.13699618419782253
2021-08-13,-0.12050557010030828
2021-08-16,-0.24964871767479593
2021-08-17,0.038843777706300237
2021-08-18,0.002297879710441174
2021-08-19,0.1327447585839062
2021-08-20,0.04747021034253629
2021-08-23,0.1714705506641435
2021-08-24,0.1544560547895124
2021-08-25,0.019338834676806294
2021-08-26,-0.3166525042276977
2021-08-27,0.10780003709886632
2021-08-30,-0.16582064297800625
2021-08-31,-0.3278220451527216
2021-09-01,0.0292703150912112
2021-09-02,0.3156752349577453
2021-09-03,-0.15790177486019794
2021-09-06,0.36554548761010247
2021-09-07,0.2688476861783603
2021-09-08,-0.09546036091651697
2021-09-09,-0.20512840707642163
2021-09-10,0.1326498002497771
2021-09-13,-0.2860415183861084
2021-09-14,-0.04460882784200083
2021-09-15,0.15742617288232824
2021-09-16,0.19404299010865117
2021-09-17,-0.12386619117441114
2021-09-22,0.04123750108941577
2021-09-23,0.008070366303539635
2021-09-24,-0.0351296537737198
2021-09-27,-0.027836134453778957
2021-09-28,0.10244966862210292
2021-09-29,0.2373979160799758
2021-09-30,-0.03547676282051145
2021-10-08,-0.13387417375058253
2021-10-11,-0.14992570198811458
2021-10-12,-0.13379745265805837
2021-10-13,-0.3633202249629537
2021-10-14,0.09860704151383345
2021-10-15,0.16243306586751644
2021-10-18,0.1429920174849561
2021-10-19,0.24881979086332268
2021-10-20,0.10828323154240782
2021-10-21,0.005459464896425376
2021-10-22,-0.03742119409987707
2021-10-25,-0.11824488692541615
2021-10-26,-0.2996952867907611
2021-10-27,0.035405231464210485
2021-10-28,0.00047047753469392495
2021-10-29,-0.07239960032633597
2021-11-01,-0.0034185878962514765
2021-11-02,0.1504716619372683
2021-11-03,0.08351316357358912
2021-11-04,-0.26660295616717405
2021-11-05,0.2863444250240619
2021-11-08,0.24681048883333323
2021-11-09,-0.022483346602305377
2021-11-10,-0.04221508828250818
2021-11-11,0.24079936923823408
2021-11-12,-0.46174774073593283
2021-11-15,-0.36666632253091014
2021-11-16,0.178609989620569
2021-11-17,-0.08733025478587636
2021-11-18,-0.03297328250234464
2021-11-19,0.31477726764756253
2021-11-22,0.16076024775980619
2021-11-23,-0.24719207855949743
2021-11-24,0.17545010497314437
2021-11-25,-0.19253504987564127
2021-11-26,-0.13548558730325205
2021-11-29,0.15660260178162178
2021-11-30,0.3577938052107778
2021-12-01,-0.05816173570019731
2021-12-02,0.2793473864792926
2021-12-03,0.15514927697757916
2021-12-06,-0.214603133829951
2021-12-07,-0.40256008359456646
2021-12-08,-0.1725644547759942
2021-12-09,-0.20797962507222967
2021-12-10,-0.37490847528257487
2021-12-13,0.07377166241707182
2021-12-14,0.000733650754255577
2021-12-15,0.10354946373764978
2021-12-16,0.16163644513662634
2021-12-17,0.20819742715705206
2021-12-20,0.08815459435381162
2021-12-21,0.24780827772083322
2021-12-22,0.02940010787717615
2021-12-23,-0.10259689159944789
2021-12-24,0.03695989528235443
2021-12-27,-0.20542470878326854
2021-12-28,-0.07481428694825695
2021-12-29,-0.09787839279364546
2021-12-30,0.0139985795730178
2021-12-31,0.049830613375027734
2022-01-04,-0.007640067911713344
2022-01-05,-0.25642926592124526
2022-01-06,0.13029673029672753
2022-01-07,-0.06038314130284694
2022-01-10,-0.06442315726871628
2022-01-11,0.15256688973175228
2022-01-12,0.31247153189691623
2022-01-13,-0.09839691947210398
2022-01-14,0.05987530176618627
2022-01-17,0.06437337630495789
2022-01-18,0.10593020580649873
2022-01-19,-0.13092422544842403
2022-01-20,0.108065703113493
2022-01-21,0.2833288293061033
2022-01-24,-0.05369324018902961
2022-01-25,-0.10732856360935009
2022-01-26,0.007440855266941455
2022-01-27,-0.08786106408085793
2022-01-28,-0.33279569892472755
2022-02-07,0.0026475117239467025
2022-02-08,-0.16035035413342347
2022-02-09,-0.04582064663400042
2022-02-10,0.04164350581505345
2022-02-11,0.022285746409523348
2022-02-14,0.1931851567889687
2022-02-15,0.1854145600773593
2022-02-16,0.14903948475216672
2022-02-17,0.1413638461061568
2022-02-18,-0.014317051994725341
2022-02-21,-0.21723452012404612
2022-02-22,0.06312060394289541
2022-02-23,-0.1099053767305536
2022-02-24,-0.022965044426232872
2022-02-25,0.22691358563476816
2022-02-28,0.1268921251873859
2022-03-01,-0.18048469814184595
2022-03-02,0.1551779989850362
2022-03-03,-0.03833079523768802
2022-03-04,-0.04237153726258178
2022-03-07,0.029916654304053755
2022-03-08,0.3059576590556429
2022-03-09,-0.034978701698599166
2022-03-10,-0.009070211014703858
2022-03-11,-0.05402443038762879
2022-03-14,-0.2293854463761429
2022-03-15,-0.29244117722198215
2022-03-16,-0.16850105198009946
2022-03-17,-0.2522213902148286
2022-03-18,-0.2075945452413992
2022-03-21,0.11020881357173049
2022-03-22,-0.0459398175311716
2022-03-23,0.0005400710813854709
2022-03-24,0.14590225490652728
2022-03-25,0.03343985311820105
2022-03-28,0.017169359242297677
2022-03-29,-0.020826850381843467
2022-03-30,0.29816354531684125
2022-03-31,0.09723645225823116
2022-04-01,0.15785944347407543
2022-04-06,-0.11767305908477124
2022-04-07,0.2996148088859464
2022-04-08,-0.341292565406261
2022-04-11,-0.15650576575888264
2022-04-12,-0.08059902394923879
2022-04-13,0.08432255037409238
2022-04-14,-0.4075354361369345
2022-04-15,0.13698525828460137
2022-04-18,0.029554528625512305
2022-04-19,-0.06804374020338169
2022-04-20,0.01706953953117157
2022-04-21,0.24285079046310648
2022-04-22,-0.06450702677412731
2022-04-25,0.2811239319123159
2022-04-26,0.16888677307334293
2022-04-27,-0.007871377861456835
2022-04-28,-0.046102876872315464
2022-04-29,0.04912862684128618
2022-05-05,-0.4560310731812599
2022-05-06,-0.06889555377061411
2022-05-09,-0.00029424103953795515
2022-05-10,0.29534147848515724
2022-05-11,-0.028616129244879183
2022-05-12,0.3145643820391472
2022-05-13,-0.02105747345058292
2022-05-16,-0.02335030382614295
2022-05-17,-0.4713753882446829
2022-05-18,0.020678866303507324
2022-05-19,-0.03904743155152899
2022-05-20,0.08453257885684737
2022-05-23,-0.003410149146035067
2022-05-24,0.17143663658841435
2022-05-25,-0.0392073828485011
2022-05-26,-0.17763081369367714
2022-05-27,-0.13713178892289246
2022-05-30,0.03132232669874256
2022-05-31,0.0630547550432275
2022-06-01,0.19740397148300032
2022-06-02,0.2748934001428244
2022-06-06,-0.03072793737878339
2022-06-07,-0.055460130619898164
2022-06-08,-0.10619937694703915
2022-06-09,-0.26006988530991393
2022-06-10,-0.333035064511387
2022-06-13,0.20115641558656833
2022-06-14,0.2052417798243282
2022-06-15,0.18520470554384044
2022-06-16,0.04857685637502453
2022-06-17,0.260522152360991
2022-06-20,0.07612404317773251
2022-06-21,-0.19939860770576673
2022-06-22,-0.06808059164018768
2022-06-23,0.12811502300064953
2022-06-24,-1.3160144129997775e-06
2022-06-27,-0.2893655100912068
2022-06-28,0.1100799855200538
2022-06-29,-0.18053234694472264
2022-06-30,-0.09953058376047244
2022-07-01,-0.11636456659633755
2022-07-04,0.02930484918572082
2022-07-05,-0.21714852607709906
2022-07-06,0.5015927676875517
2022-07-07,0.1253339097085966
2022-07-08,0.06702902291137483
2022-07-11,0.08867018743966593
2022-07-12,0.16877678865809462
2022-07-13,-0.5198255742980487
2022-07-14,-0.26641613256752156
2022-07-15,-0.06256447119701897
2022-07-18,0.1478643345531945
2022-07-19,-0.08614565614411737
2022-07-20,0.11765773192823181
2022-07-21,0.1345503556713193
2022-07-22,-0.06528532972970495
2022-07-25,-0.23714565561138756
2022-07-26,0.2726628513368135
2022-07-27,0.0614591005621766
2022-07-28,0.22456465407285037
2022-07-29,0.08838757396449663
2022-08-01,0.06280985459542213
2022-08-02,-0.32070070878976215
2022-08-03,-0.15707259423575126
2022-08-04,-0.1879781420765032
2022-08-05,0.022107421563945358
2022-08-08,0.03245590691758722
2022-08-09,0.1487892224807623
2022-08-10,0.11216755824173387
2022-08-11,-0.06261715561821736
2022-08-12,-0.03638838991490192
2022-08-15,-0.145656114108731
2022-08-16,-0.009093988310837055
2022-08-17,0.052932603459747526
2022-08-18,-0.027057851571888843
2022-08-19,0.0928476602797181
2022-08-22,0.22622333835481612
2022-08-23,0.00266825048442728
2022-08-24,0.029398306718803377
2022-08-25,0.08688909774436061
2022-08-26,-0.06640771332944523
2022-08-29,-0.12790670843212076
2022-08-30,-0.12283489591609781
2022-08-31,-0.14874281692537267
2022-09-01,-0.03902218376337142
2022-09-02,-0.06196667090700606
2022-09-05,0.04517194904569434
2022-09-06,0.07465993004275194
2022-09-07,0.12410417433985595
2022-09-08,0.091443260634918
2022-09-09,0.07072162842074009
2022-09-13,-0.010363100963154978
2022-09-14,0.034151383773344604
2022-09-15,0.1309414244472561
2022-09-16,-0.16383256529412885
2022-09-19,0.16321719214059507
2022-09-20,0.04717834658969142
2022-09-21,0.07405394427740307
2022-09-22,-0.2769787561486011
2022-09-23,0.15085745911855247
2022-09-26,-0.12099380424198011
2022-09-27,-0.05654174833089359
2022-09-28,-0.19119360493569004
2022-09-29,0.10571549899069368
2022-09-30,-0.07660730074522995
2022-10-10,-0.26630408967843067
2022-10-11,-0.054044973926665955
2022-10-12,0.13303253357984507
2022-10-13,-0.12075220898937249
2022-10-14,0.17304001819272863
2022-10-17,0.23118224387607947
2022-10-18,0.045378091480977975
2022-10-19,-0.04328745850979694
2022-10-20,0.17734415544155385
2022-10-21,-0.1906153709521843
2022-10-24,0.061662324830561714
2022-10-25,0.02687441978245546
2022-10-26,-0.032173959789269686
2022-10-27,-0.08358957518583389
2022-10-28,-0.05445817934667464
2022-10-31,-0.14815710424358325
2022-11-01,0.07693713646773066
2022-11-02,0.02857981220657562
2022-11-03,0.0345075720406841
2022-11-04,0.24142588738885173
2022-11-07,0.04334247724335687
2022-11-08,-0.23767634475375826
2022-11-09,0.2617581602373862
2022-11-10,0.06000714927622122
2022-11-11,-0.1847987319170189
2022-11-14,0.16237530601505124
2022-11-15,0.3056310634505549
2022-11-16,-0.41036140751612604
2022-11-17,-0.07777826375570834
2022-11-18,0.050162881794863896
2022-11-21,-0.1815259587027634
2022-11-22,-0.07638249138616783
2022-11-23,0.1726336456015893
2022-11-24,-0.026641265369372655
2022-11-25,-0.04850525779389652
2022-11-28,0.27819278305337014
2022-11-29,0.016880353380005417
2022-11-30,0.03354472688583097
2022-12-01,0.01558873677763686
2022-12-02,0.13847541369304184
2022-12-05,-0.3322727089505625
2022-12-06,-0.12843101897021053
2022-12-07,0.014959180108640419
2022-12-08,0.08472398854389375
2022-12-09,-0.06749939902734706
2022-12-12,0.005326937966260242
2022-12-13,-0.05909455149267433
2022-12-14,-0.17789607420945402
2022-12-15,-0.18538591993357081
2022-12-16,-0.13737584613838788
2022-12-19,0.20993208847902473
2022-12-20,-0.06068896762289694
2022-12-21,0.16169738533048722
2022-12-22,0.076239065717531
2022-12-23,0.12422038382260177
2022-12-26,-0.17761422219725193
2022-12-27,0.14055446144523495
2022-12-28,-0.09222271321255027
2022-12-29,0.13752633771318262
2022-12-30,0.014320944839415012
2023-01-03,-0.05161256653794098
2023-01-04,0.27301013700206916
2023-01-05,0.0434353650236615
2023-01-06,-0.12780027532537488
2023-01-09,-0.07639670895516544
2023-01-10,0.2147222387857709
2023-01-11,-0.49499257643928535
2023-01-12,0.02241204921084791
2023-01-13,-0.020773433416506115
2023-01-16,-0.005173903009794173
2023-01-17,-0.16926769333122638
2023-01-18,0.27305032654629713
2023-01-19,0.1868796463733219
2023-01-20,0.14313221177495813
2023-01-30,0.12790855991395453
2023-01-31,0.14328914328914277
2023-02-01,-0.005900542723718406
2023-02-02,-0.22870191278955584
2023-02-03,-0.10792599972147963
2023-02-06,0.13193124287114838
2023-02-07,-0.04044752191754107
2023-02-08,-0.025052267842918405
2023-02-09,-0.08503724125875903
2023-02-10,-0.019239085499232887
2023-02-13,-0.4570771713730363
2023-02-14,-0.1643314910185732
2023-02-15,-0.06939043886128149
2023-02-16,0.27051030132579296
2023-02-17,0.05780864744322453
2023-02-20,0.30802299461758764
2023-02-21,0.14625673482926757
2023-02-22,0.027243834223236514
2023-02-23,-0.19136829719280998
2023-02-24,0.04010878138474497
2023-02-27,-0.014889705882353846
2023-02-28,-0.09982263094627843
2023-03-01,-0.012813897488821377
2023-03-02,-0.04117138534687824
2023-03-03,-0.1779753008302128
2023-03-06,0.082556785090279
2023-03-07,0.34470315018168796
2023-03-08,0.1754718865474914
2023-03-09,0.015527950310560888
2023-03-10,0.3039749723960246
2023-03-13,-0.19507145836535347
2023-03-14,-0.24893887137386647
2023-03-15,-0.14171586502219818
2023-03-16,0.2024278515157397
2023-03-17,-0.18578990730902106
2023-03-20,0.1684193544903888
2023-03-21,-0.1116190978692124
2023-03-22,-0.08255448828041453
2023-03-23,-0.25880793215211434
2023-03-24,-0.10513651942976399
2023-03-27,-0.21913997533295873
2023-03-28,0.1226893942512418
2023-03-29,0.13800125313283343
2023-03-30,0.10754884055565228
2023-03-31,-0.003681130188399301
2023-04-03,0.6809502664298387
2023-04-04,-0.01842408196155184
2023-04-06,-0.060965660738878956
2023-04-07,0.019795592369069293
2023-04-10,0.12717184435809006
2023-04-11,-0.9534866606067716
2023-04-12,-0.025729490248002546
2023-04-13,0.09044584885174456
2023-04-14,-0.08103880722624325
2023-04-17,-0.03295011711625763
2023-04-18,0.4342380659135805
2023-04-19,-0.022354948604522328
2023-04-20,-0.07199337325659137
2023-04-21,0.12675938978139933
2023-04-24,0.05420915880297049
2023-04-25,0.0485558771088227
2023-04-26,0.13140282550813287
2023-04-27,0.20456930435742174
2023-04-28,-0.0982843137254916
2023-05-04,-0.043262836978179973
2023-05-05,-0.13343463217880513
2023-05-08,-0.10179092380681881
2023-05-09,-0.4450970548862133
2023-05-10,0.17643967093236157
2023-05-11,0.12137749890558933
2023-05-12,0.06539372608799653
2023-05-15,0.04889837326999705
2023-05-16,0.30992445480355335
2023-05-17,-0.17331114070916756
2023-05-18,-0.1742802526903697
2023-05-19,-0.02272923025543791
2023-05-22,0.06643899140247704
2023-05-23,-0.11152484961460726
2023-05-24,0.0025833903066072514
2023-05-25,0.014460484699556277
2023-05-26,0.012645255118464944
2023-05-29,-0.2815926012028198
2023-05-30,0.1404940895438501
2023-05-31,0.15147311884028022
2023-06-01,0.11839550853213454
2023-06-02,0.0855566274214738
2023-06-05,0.19325054744958028
2023-06-06,-0.17771863242136915
2023-06-07,-0.229941449626492
2023-06-08,-0.18686592330483845
2023-06-09,-0.05385434358285155
2023-06-12,0.10487499860427064
2023-06-13,0.08049741560582321
2023-06-14,0.1186129562174157
2023-06-15,0.19238301463212543
2023-06-16,-0.17962998662648466
2023-06-19,-0.2553558030107339
2023-06-20,-0.039684446126319335
2023-06-21,0.2822213640138755
2023-06-26,-0.15274018082594787
2023-06-27,0.10061646374160046
2023-06-28,0.15248686147628637
2023-06-29,0.16061390500825573
2023-06-30,-0.5330847219639806
2023-07-03,0.028500346174333092
2023-07-04,0.05518795229161117
2023-07-05,-0.11931393199501203
2023-07-06,-0.27934895240983776
2023-07-07,0.3626048512047845
2023-07-10,0.19016340538073
2023-07-11,-0.08548557133922816
2023-07-12,0.20372109936062094
2023-07-13,0.11958644166876918
2023-07-14,-0.17076352833374955
2023-07-17,-0.14508845540217835
2023-07-18,0.07437111868534131
2023-07-19,-0.07837695731045749
2023-07-20,0.17434311362442256
2023-07-21,0.07335309819310994
2023-07-24,-0.13510736090987419
2023-07-25,0.07469053348043841
2023-07-26,-0.04002012829973769
2023-07-27,-0.22612409275978043
2023-07-28,-0.12881005805463527
2023-07-31,0.18391073293125676
2023-08-01,-0.1545073705833016
2023-08-02,0.062289950999250304
2023-08-03,0.33921933085502
2023-08-04,0.21603235888949923
2023-08-07,-0.013550376564076115
2023-08-08,0.07435940889370853
2023-08-09,0.07042253521126934
2023-08-10,-0.37798874824191625
2023-08-11,-0.20829700668410067
2023-08-14,0.2740979950282271
2023-08-15,0.08875596049046786
2023-08-16,-0.22812956327986272
2023-08-17,0.19699149930950033
2023-08-18,0.09760600434492299
2023-08-21,-0.36369295965530124
2023-08-22,-0.06501098342106343
2023-08-23,0.1265955682231741
2023-08-24,-0.0965509604339739
2023-08-25,0.1325091377550468
2023-08-28,-0.07952877771318637
2023-08-29,-0.09268607419170342
2023-08-30,0.06316134429141564
2023-08-31,-0.05602527766531432
2023-09-01,-0.21506137865911024
2023-09-04,0.1198711081819636
2023-09-05,0.06703739261623434
2023-09-06,0.1465661596446371
2023-09-07,0.22602362948184812
2023-09-08,0.11076475477971628
2023-09-11,0.05276732335260075
2023-09-12,0.02442080287626515
2023-09-13,-0.4238342174408809
2023-09-14,-0.005111086656153924
2023-09-15,-0.08475612728860839
2023-09-18,-0.03728094917577627
2023-09-19,0.03212663871305152
2023-09-20,0.3076538216214596
2023-09-21,-0.2490003991818684
2023-09-22,0.053319365388285904
2023-09-25,-0.01055670927446889
2023-09-26,-0.13124835298621565
2023-09-27,0.007883930017236265
2023-09-28,0.1405706732170484
2023-10-09,0.35649576190987736
2023-10-10,-0.0512952935011322
2023-10-11,0.10018913792498829
2023-10-12,-0.1987631092095261
2023-10-13,-0.05248917977557953
2023-10-16,-0.50067922496856
2023-10-17,0.09028015608021064
2023-10-18,0.13120480196853604
2023-10-19,0.008094712024938847
2023-10-20,0.12079634301312908
2023-10-23,0.08870998825731764
2023-10-24,0.024796311702078473
2023-10-25,-0.23114890191263443
2023-10-26,0.2189403681919151
2023-10-27,-0.19495311858112657
2023-10-30,0.035533547296353454
2023-10-31,-0.07944728136943165
2023-11-01,0.057635681740692016
2023-11-02,-0.20661851743836765
2023-11-03,0.13424249252874784
2023-11-06,0.0906119346256183
2023-11-07,0.1531035090812928
2023-11-08,0.06716139618138542
2023-11-09,0.07074857139394278
2023-11-10,-0.081060322459885
2023-11-13,-0.09879101899827414
2023-11-14,-0.3151589834754167
2023-11-15,-0.14309425732912773
2023-11-16,-0.0014728301423757987
2023-11-17,0.34202710107652234
2023-11-20,0.05034151523011933
2023-11-21,0.17285657520204686
2023-11-22,0.0852060414700962
2023-11-23,0.04772265008497873
2023-11-24,-0.5167523066479267
2023-11-27,0.0007787665451784685
2023-11-28,0.04351588464449709
2023-11-29,0.05353898905490657
2023-11-30,-0.11055745359141884
2023-12-01,0.4847198712666168
2023-12-04,0.08692307367157268
2023-12-05,-0.012631671073938203
2023-12-06,-0.029646288375269232
2023-12-07,0.08748873088741943
2023-12-08,-0.35907978622140047
2023-12-11,-0.2979268003862189
2023-12-12,-0.05322663767081677
2023-12-13,0.14547462989261023
2023-12-14,-0.14479910485902603
2023-12-15,-0.03609056543467454
2023-12-18,0.2555689461840653
2023-12-19,0.04241995236022261
2023-12-20,-0.3831749133580961
2023-12-21,0.16689413952371968
2023-12-22,0.2397779882963573
2023-12-25,0.1347147131558557
2023-12-26,-0.04222469240413439
2023-12-27,0.26447383458044277
2023-12-28,-0.055018836734328086
2023-12-29,-0.12920952353665852
2024-01-02,-0.3985200623131668
2024-01-03,0.27970234499423186
2024-01-04,0.042354308005686396
2024-01-05,0.08055943565654287
2024-01-08,-0.015538638810705538
2024-01-09,0.17954703248820786
2024-01-10,-0.4086185668554513
2024-01-11,-0.18943439964416836
2024-01-12,-0.07282008700154076
2024-01-15,0.20803364879074604
2024-01-16,0.0361440182350334
2024-01-17,0.182575207030698
2024-01-18,0.10882744760363654
2024-01-19,-0.04428295619225076
2024-01-22,-0.3442345666917045
2024-01-23,-0.024565391512475526
2024-01-24,-0.07956709303901305
2024-01-25,-0.04700299776391356
2024-01-26,0.08567978867276699
2024-01-29,0.23789469741065963
2024-01-30,-0.018446543193210006
2024-01-31,0.11182551567557424
2024-02-01,0.04709737417410917
2024-02-02,0.010855279914416704
2024-02-05,-0.17166107367039418
2024-02-06,0.018086411240861494
2024-02-07,-0.13807281266875202
2024-02-08,-0.020658531377115943
2024-02-19,-0.31378532258369723
2024-02-20,0.0032129738955558873
2024-02-21,0.020768134938081724
2024-02-22,0.08804157626941009
2024-02-23,0.056238297255965644
2024-02-26,0.37413933143391587
2024-02-27,0.24109427536218644
2024-02-28,0.004520814727540987
2024-02-29,0.02372528339833083
2024-03-01,-0.10336241297764154
2024-03-04,-0.060811155167309644
2024-03-05,-0.11463963963963596
2024-03-06,-0.017686449287718776
2024-03-07,-0.053553143559287496
2024-03-08,0.11261992511992341
2024-03-11,-0.10827226933527578
2024-03-12,0.043226120857699474
2024-03-13,-0.08389025074978468
2024-03-14,0.036295829393840726
2024-03-15,0.17303554260076684
2024-03-18,-0.03321711225345294
2024-03-19,-0.16507243049660292
2024-03-20,0.1368012466782236
2024-03-21,-0.038452445930498624
2024-03-22,-0.4538471199939541
2024-03-25,0.13311439988612506
2024-03-26,0.14364433919555086
2024-03-27,0.03602400020885377
2024-03-28,0.09124296878090686
2024-03-29,0.2609561094725484
2024-04-01,-0.08607429225985735
2024-04-02,-0.0550624923665647
2024-04-03,-0.11205882352941351
2024-04-08,0.069708069708061
2024-04-09,0.02446681781500702
2024-04-10,0.12765381436835715
2024-04-11,0.0660202383874752
2024-04-12,0.031240249609986625
2024-04-15,-0.04018891583452629
2024-04-16,0.013507126235719966
2024-04-17,-0.1290687399319752
2024-04-18,-0.004300170941974407
2024-04-19,0.27593934345255555
2024-04-22,-0.15524121303212848
2024-04-23,-0.12612453127270698
2024-04-24,0.20893784083301095
2024-04-25,-0.17104354433407626
2024-04-26,-0.49516364773224575
2024-04-29,0.000722842263573005
2024-04-30,0.035439440909338246
2024-05-06,-0.37227777653772254
2024-05-07,0.14547638591362844
2024-05-08,0.156782504282106
2024-05-09,0.008840563775376925
2024-05-10,0.01538858091641918
2024-05-13,0.3382093307754268
2024-05-14,-0.08560982095813469
2024-05-15,-0.027559279888355652
2024-05-16,0.15514238912653516
2024-05-17,-0.03548886893143041
2024-05-20,-0.23116876847028878
2024-05-21,0.21411947900840395
2024-05-22,0.21490837125955498
2024-05-23,-0.10356589298035308
2024-05-24,0.19334030056234308
2024-05-27,0.08157405383560293
2024-05-28,-0.2689382971914534
2024-05-29,-0.17824899025896432
2024-05-30,-0.05522262632942734
2024-05-31,-0.15910221883964226
2024-06-03,0.13623094807543606
2024-06-04,0.49141086687869107
2024-06-05,0.0035083184959719335
2024-06-06,0.05979665147154874
2024-06-07,-0.0030547409579705243
2024-06-11,-0.2798487227058687
2024-06-12,-0.6284547005749417
2024-06-13,0.09680820838471584
2024-06-14,-0.038551904623432824
2024-06-17,-0.04598385602752323
2024-06-18,0.328957218578555
2024-06-19,0.22921291138532024
2024-06-20,-0.12332981229071467
2024-06-21,-0.02866241767658874
2024-06-24,0.06780860167898384
2024-06-25,-0.18119890212865133
2024-06-26,-0.00563361289541273
2024-06-27,0.15749337546209075
2024-06-28,0.11355903421794175
2024-07-01,-0.06199237943611517
2024-07-02,0.025195756504170636
2024-07-03,0.017115839243501893
2024-07-04,-0.07168357351212731
2024-07-05,-0.10870979186377053
2024-07-08,0.17973229447607728
2024-07-09,-0.13877447384754338
2024-07-10,0.15208697958101625
2024-07-11,0.053198460919142765
2024-07-12,0.1045245240066275
2024-07-15,-0.17488043525953195
2024-07-16,0.2000641099403256
2024-07-17,-0.2622457097397463
2024-07-18,-0.1479281665655367
2024-07-19,-0.06300688201302854
2024-07-22,0.2618992677863321
2024-07-23,-0.11278002310129187
2024-07-24,0.15452565844171862
2024-07-25,0.07903463838182338
2024-07-26,0.1990373879654053
2024-07-29,-0.3549803651634809
2024-07-30,0.18863600720497856
2024-07-31,0.0038018296730024936
2024-08-01,0.056692913385823704
2024-08-02,-0.19585551060960715
2024-08-05,0.38560587575033034
2024-08-06,-0.13238873176114074
2024-08-07,-0.05363393605274683
2024-08-08,-0.11130456387126408
2024-08-09,-0.04928172271760962
2024-08-12,-0.47525364777564116
2024-08-13,-0.045104033433637336
2024-08-14,0.09523641992681711
2024-08-15,0.09032593619972384
2024-08-16,0.050123992177961346
2024-08-19,0.22894281451485163
2024-08-20,0.09351769546073802
2024-08-21,-0.12864678523284584
2024-08-22,0.08089232195075621
2024-08-23,-0.006679880543865724
2024-08-26,0.04963912372977356
2024-08-27,-0.2519228483464215
2024-08-28,0.015792851474619632
2024-08-29,-0.3074322957384377
2024-08-30,0.02981103552532538
2024-09-02,0.07820972649544003
2024-09-03,0.2372387843704768
2024-09-04,0.1783594135166733
2024-09-05,0.23394343268368079
2024-09-06,0.05611253510412799
2024-09-09,-0.07434177427469654
2024-09-10,0.009564110800105684
2024-09-11,-0.1002233465028585
2024-09-12,0.090649884301127
2024-09-13,-0.06827318637299212
2024-09-18,-0.2065876885631863
2024-09-19,-0.08717057980279873
2024-09-20,-0.2384189813558182
2024-09-23,-0.3238361220620969
2024-09-24,0.03903115986694335
2024-09-25,0.19815028375051508
2024-09-26,0.30207705723798745
2024-09-27,0.3182145566029873
2024-09-30,0.41244229942626365
2024-10-08,-0.19219080338266317
2024-10-09,0.24886621315192697
2024-10-10,-0.3985218702865741
2024-10-11,-0.07689464088318146
2024-10-14,-0.2490998641820373
2024-10-15,0.4656805064706841
2024-10-16,-0.5078548760023239
2024-10-17,0.06807521620276694
2024-10-18,-0.1444033710517986
2024-10-21,-0.1310019711595333
2024-10-22,-0.617974810268151
2024-10-23,0.355472107486829
2024-10-24,0.07208471775998251
2024-10-25,0.11905336551081107
2024-10-28,0.4781913495293109
2024-10-29,0.31439225701384216
2024-10-30,-0.20706721302750766
2024-10-31,-0.03842115191146687
2024-11-01,-0.012551140697590491
2024-11-04,-0.5996431311888697
2024-11-05,-0.02772979129077377
2024-11-06,0.2532126320170595
2024-11-07,0.26416883270321273
2024-11-08,-0.0658755205227789
2024-11-11,0.28721839593455356
2024-11-12,0.009122667420491106
2024-11-13,-0.34338056980118475
2024-11-14,-0.42462556347244784
2024-11-15,0.13898395303209576
2024-11-18,0.028369888281042227
2024-11-19,0.24073424831022594
2024-11-20,0.19146228175688398
2024-11-21,0.10568646577613786
2024-11-22,-0.1632673208350769
2024-11-25,0.010375152240951972
2024-11-26,-0.23356166983509002
2024-11-27,0.07334201174538457
2024-11-28,0.10898107007784313
2024-11-29,0.024896253347850138
2024-12-02,-0.10224289782805385
2024-12-03,-0.14487212341755787
2024-12-04,-0.2128602745488225
2024-12-05,0.08716707021791348
2024-12-06,0.10593421378748791
2024-12-09,-0.008195758703764947
2024-12-10,0.13949380331562738
2024-12-11,0.06808005248714875
2024-12-12,-0.1649452829239063
2024-12-13,-0.00661177438124301
2024-12-16,0.06737253161452218
2024-12-17,-0.06429574604284537
2024-12-18,0.03361642394670408
2024-12-19,-0.029589835003813916
2024-12-20,-0.012526531066582601
2024-12-23,0.043775902880227584
2024-12-24,0.14830851726561223
2024-12-25,0.05793807674555147
2024-12-26,-0.051530257374941366
2024-12-27,-0.0939220374798409
2024-12-30,-0.17521079499827302
2024-12-31,0.06713905694578773
