date,FCT_Demark_Atr_Dfive
2018-03-26,
2018-03-27,
2018-03-28,
2018-03-29,
2018-03-30,
2018-04-02,
2018-04-03,
2018-04-04,
2018-04-09,
2018-04-10,0.0
2018-04-11,0.006622516556290972
2018-04-12,0.007782101167314668
2018-04-13,0.014925373134327409
2018-04-16,0.1809523809523788
2018-04-17,0.1792452830188663
2018-04-18,0.35555555555555385
2018-04-19,0.33802816901408295
2018-04-20,0.5071428571428567
2018-04-23,0.49264705882352955
2018-04-24,0.9218749999999998
2018-04-25,0.9147727272727272
2018-04-26,0.9470588235294134
2018-04-27,0.797687861271679
2018-05-02,0.7621951219512209
2018-05-03,0.11111111111111081
2018-05-04,0.0
2018-05-07,0.13432835820895497
2018-05-08,0.17318435754189773
2018-05-09,0.5263157894736845
2018-05-10,0.7558139534883733
2018-05-11,1.0
2018-05-14,0.84186046511628
2018-05-15,0.8565400843881867
2018-05-16,0.3008130081300825
2018-05-17,0.26808510638298105
2018-05-18,0.2192982456140374
2018-05-21,0.24630541871921377
2018-05-22,0.14044943820224673
2018-05-23,0.8051948051948054
2018-05-24,0.3518518518518473
2018-05-25,0.4018691588784955
2018-05-28,0.6258503401360487
2018-05-29,0.5687499999999962
2018-05-30,0.3941605839416018
2018-05-31,0.730769230769233
2018-06-01,0.8323353293413198
2018-06-04,0.44554455445544866
2018-06-05,0.5504587155963315
2018-06-06,0.6093023255813954
2018-06-07,0.4780701754385951
2018-06-08,0.18303571428571078
2018-06-11,0.4499999999999962
2018-06-12,0.324840764331209
2018-06-13,0.23809523809523858
2018-06-14,0.29197080291970934
2018-06-15,0.4878048780487876
2018-06-19,0.0
2018-06-20,0.0
2018-06-21,0.1911764705882368
2018-06-22,0.26086956521739196
2018-06-25,0.39999999999999847
2018-06-26,0.4745762711864352
2018-06-27,0.932330827067667
2018-06-28,0.8345864661654107
2018-06-29,0.7969924812030049
2018-07-02,0.841176470588233
2018-07-03,0.8994413407821223
2018-07-04,0.5603448275862059
2018-07-05,0.5603448275862088
2018-07-06,0.6377952755905522
2018-07-09,0.39080459770114995
2018-07-10,0.2638888888888881
2018-07-11,0.23170731707316988
2018-07-12,0.7237569060773474
2018-07-13,0.6571428571428571
2018-07-16,0.5528846153846151
2018-07-17,0.5772727272727268
2018-07-18,0.6381909547738694
2018-07-19,0.08720930232558162
2018-07-20,0.23437500000000044
2018-07-23,0.26011560693641633
2018-07-24,0.15463917525773194
2018-07-25,0.3515981735159823
2018-07-26,0.4782608695652164
2018-07-27,0.27810650887573973
2018-07-30,0.34838709677419555
2018-07-31,0.35064935064935443
2018-08-01,0.17355371900826627
2018-08-02,0.21212121212121626
2018-08-03,0.6923076923076984
2018-08-06,0.795918367346943
2018-08-07,0.983164983164985
2018-08-08,0.9909584086799287
2018-08-09,1.0
2018-08-10,0.9909193033089633
2018-08-13,0.8871083545389408
2018-08-14,0.8024545658634142
2018-08-15,0.18354279585127367
2018-08-16,0.09698169619775998
2018-08-17,0.08306308424648495
2018-08-20,0.3539152055371616
2018-08-21,0.3645542858710727
2018-08-22,0.6564625850340101
2018-08-23,0.4431818181818195
2018-08-24,0.6031250000000019
2018-08-27,0.1111111111111111
2018-08-28,0.09414758269720139
2018-08-29,0.08788598574821904
2018-08-30,0.21253405994550642
2018-08-31,0.10991957104557845
2018-09-03,0.19902912621359634
2018-09-04,0.30714285714285416
2018-09-05,0.6979865771812052
2018-09-06,0.3480662983425326
2018-09-07,0.587912087912081
2018-09-10,0.7203065134099571
2018-09-11,0.7153846153846171
2018-09-12,0.7142857142857147
2018-09-13,0.9957081545064452
2018-09-14,0.9591836734693913
2018-09-17,0.6407185628742502
2018-09-18,0.6740331491712617
2018-09-19,0.2672413793103434
2018-09-20,0.15422885572138748
2018-09-21,0.13080168776370893
2018-09-25,0.22613065326632745
2018-09-26,0.13824884792626518
2018-09-27,0.43703703703703256
2018-09-28,0.4285714285714296
2018-10-08,0.7421874999999966
2018-10-09,0.8881355932203365
2018-10-10,1.0
2018-10-11,1.0
2018-10-12,1.0
2018-10-15,1.0
2018-10-16,0.7746781115879865
2018-10-17,0.7206266318537926
2018-10-18,0.2225519287833874
2018-10-19,0.13981762917933552
2018-10-22,0.0
2018-10-23,0.0
2018-10-24,0.08918918918918514
2018-10-25,0.1410256410256354
2018-10-26,0.11702127659574048
2018-10-29,0.1639344262295039
2018-10-30,0.34814814814814454
2018-10-31,0.0945945945945943
2018-11-01,0.2013888888888895
2018-11-02,0.7840375586854448
2018-11-05,0.6751054852320652
2018-11-06,0.7240143369175601
2018-11-07,0.880769230769229
2018-11-08,0.6948051948051908
2018-11-09,0.2743682310469302
2018-11-12,0.49704142011834435
2018-11-13,0.46372239747634336
2018-11-14,0.486404833836861
2018-11-15,0.6514657980456066
2018-11-16,0.904977375565608
2018-11-19,0.6984872962255827
2018-11-20,0.4385122761078367
2018-11-21,0.3843788896400468
2018-11-22,0.27804394441668867
2018-11-23,0.6536783569203966
2018-11-26,0.583345036930165
2018-11-27,0.7551626780110411
2018-11-28,0.5437492728518403
2018-11-29,0.5833853449662336
2018-11-30,0.18213058419244038
2018-12-03,0.6155462184873957
2018-12-04,0.6089743589743613
2018-12-05,0.7096774193548399
2018-12-06,0.6275510204081638
2018-12-07,0.9110429447852759
2018-12-10,0.27804878048780884
2018-12-11,0.29186602870813083
2018-12-12,0.20618556701030757
2018-12-13,0.18575851393188697
2018-12-14,0.031249999999997113
2018-12-17,0.036437246963559364
2018-12-18,0.14215732629062117
2018-12-19,0.523242551554247
2018-12-20,0.6630340588472389
2018-12-21,0.704947055956758
2018-12-24,1.0
2018-12-25,1.0
2018-12-26,0.679604260355029
2018-12-27,0.809699201274003
2018-12-28,0.7726311184007054
2019-01-02,0.7585421412300676
2019-01-03,0.5611940298507466
2019-01-04,0.7708333333333331
2019-01-07,0.1292775665399235
2019-01-08,0.22304832713754655
2019-01-09,0.21818181818181911
2019-01-10,0.15748031496062972
2019-01-11,0.06117647058823555
2019-01-14,0.14492753623188204
2019-01-15,0.04560260586318999
2019-01-16,0.0422960725075507
2019-01-17,0.06086956521738862
2019-01-18,0.3866666666666662
2019-01-21,0.31739130434782764
2019-01-22,0.5049504950495071
2019-01-23,0.617647058823535
2019-01-24,0.8989361702127661
2019-01-25,0.5714285714285677
2019-01-28,0.5274725274725227
2019-01-29,0.4522292993630535
2019-01-30,0.4556962025316401
2019-01-31,0.047619047619049414
2019-02-01,0.35542168674699276
2019-02-11,0.4125874125874189
2019-02-12,0.39285714285714546
2019-02-13,0.3642857142857147
2019-02-14,0.8799999999999881
2019-02-15,0.6413043478260716
2019-02-18,0.8658692700588245
2019-02-19,0.6926219758168755
2019-02-20,0.6387772779132398
2019-02-21,0.49369862276277476
2019-02-22,0.36671277119733453
2019-02-25,0.0
2019-02-26,0.37958716646071017
2019-02-27,0.4309264214046836
2019-02-28,0.35226170861158934
2019-03-01,0.6422018348623848
2019-03-04,0.7401960784313726
2019-03-05,0.4187499999999963
2019-03-06,0.5791855203619882
2019-03-07,0.8076923076923038
2019-03-08,0.6804733727810574
2019-03-11,0.6117647058823468
2019-03-12,0.712328767123285
2019-03-13,0.2684563758389238
2019-03-14,0.0
2019-03-15,0.0230769230769229
2019-03-18,0.019130815692154652
2019-03-19,0.01902466812244124
2019-03-20,0.06535880227155418
2019-03-21,0.4594682383311162
2019-03-22,0.3439322054739772
2019-03-25,0.40627332625896134
2019-03-26,0.43780082175700386
2019-03-27,0.3140688085864779
2019-03-28,0.0
2019-03-29,0.3937500000000042
2019-04-01,0.4228187919463164
2019-04-02,0.616915422885573
2019-04-03,0.7821782178217854
2019-04-04,0.8229166666666728
2019-04-08,0.4260089686098656
2019-04-09,0.42410714285713635
2019-04-10,0.15246636771300412
2019-04-11,0.0
2019-04-12,0.09729729729729927
2019-04-15,0.6054054054054024
2019-04-16,0.6483516483516574
2019-04-17,0.9718943192874806
2019-04-18,0.8348407271492908
2019-04-19,0.6469942675947262
2019-04-22,0.6005387509171465
2019-04-23,0.6535273535179036
2019-04-24,0.5126955082951845
2019-04-25,0.6744864140677316
2019-04-26,0.8712704386497011
2019-04-29,0.6204430786897948
2019-04-30,0.4612403100775171
2019-05-06,0.6059479553903323
2019-05-07,0.5470085470085466
2019-05-08,0.276041666666671
2019-05-09,0.2994350282485954
2019-05-10,0.5649717514124372
2019-05-13,0.476190476190481
2019-05-14,0.6844262295082005
2019-05-15,0.7076271186440701
2019-05-16,0.8768472906403926
2019-05-17,0.7081081081081079
2019-05-20,0.7172774869109955
2019-05-21,0.16012664787743972
2019-05-22,0.3048582451365834
2019-05-23,0.38450889840345437
2019-05-24,0.6723727866447785
2019-05-27,0.6530634636021637
2019-05-28,1.0
2019-05-29,0.9199380749488587
2019-05-30,0.9123146031340239
2019-05-31,0.847595475660236
2019-06-03,0.8802816901408496
2019-06-04,0.9194312796208555
2019-06-05,1.0
2019-06-06,1.0
2019-06-10,0.46883468834688397
2019-06-11,0.3634020618556703
2019-06-12,0.142857142857144
2019-06-13,0.28337236533957827
2019-06-14,0.2565789473684197
2019-06-17,0.45419847328243945
2019-06-18,0.6183096945137115
2019-06-19,0.8281876126186652
2019-06-20,0.3564450191475619
2019-06-21,0.45729861618013656
2019-06-24,0.47453974843701086
2019-06-25,0.15209001918885973
2019-06-26,0.03637558033465679
2019-06-27,0.026270894788595758
2019-06-28,0.022599001473895448
2019-07-01,0.2568493150684915
2019-07-02,0.4504504504504494
2019-07-03,0.6368563685636859
2019-07-04,0.868055555555556
2019-07-05,0.8865248226950349
2019-07-08,0.7478632478632478
2019-07-09,0.4291845493562239
2019-07-10,0.058823529411765114
2019-07-11,0.16083916083915992
2019-07-12,0.2463768115942017
2019-07-15,0.21935483870967643
2019-07-16,0.3029045643153504
2019-07-17,0.7735560052879829
2019-07-18,0.6240449373654634
2019-07-19,0.7121795680251991
2019-07-22,0.8907153089634768
2019-07-23,0.7923379339484795
2019-07-24,0.454810949899939
2019-07-25,0.5400197925572637
2019-07-26,0.22787380326740528
2019-07-29,0.06306874195786397
2019-07-30,0.11455108359133091
2019-07-31,0.16666666666666774
2019-08-01,0.06521739130435053
2019-08-02,0.6858974358974423
2019-08-05,0.8400000000000043
2019-08-06,0.9133858267716559
2019-08-07,0.941176470588236
2019-08-08,1.0
2019-08-09,0.616302186878725
2019-08-12,0.609311740890686
2019-08-13,0.10133843212236895
2019-08-14,0.175438596491227
2019-08-15,0.12671104685789503
2019-08-16,0.21144844454256512
2019-08-19,0.23717925644366533
2019-08-20,0.7666841196889501
2019-08-21,0.2248291612717564
2019-08-22,0.2305884826564777
2019-08-23,0.24019757835380717
2019-08-26,0.07653676460157606
2019-08-27,0.35632610939113357
2019-08-28,0.6747967479674902
2019-08-29,0.6640000000000063
2019-08-30,0.7358490566037754
2019-09-02,0.8941176470588205
2019-09-03,0.746268656716412
2019-09-04,0.5724637681159319
2019-09-05,0.7388535031847052
2019-09-06,0.5070422535211193
2019-09-09,0.4852941176470503
2019-09-10,0.5612882024318023
2019-09-11,0.6709148044692737
2019-09-12,0.741734387175778
2019-09-16,0.8530697866808596
2019-09-17,0.9048120358318735
2019-09-18,0.9499604218095995
2019-09-19,0.9657084455403806
2019-09-20,0.6687154065799752
2019-09-23,0.6583351194499867
2019-09-24,0.35270541082164397
2019-09-25,0.033755274261604074
2019-09-26,0.0
2019-09-27,0.05974025974025858
2019-09-30,0.11568123393315968
2019-10-08,0.35887096774193267
2019-10-09,0.9316239316239306
2019-10-10,1.0
2019-10-11,1.0
2019-10-14,1.0
2019-10-15,0.9754003251597946
2019-10-16,0.33723134005623323
2019-10-17,0.34279553156618103
2019-10-18,0.06578719825366061
2019-10-21,0.02982396872930078
2019-10-22,0.027922743383624302
2019-10-23,0.055195653863267226
2019-10-24,0.029660586536647247
2019-10-25,0.11827956989247418
2019-10-28,0.11340206185567102
2019-10-29,0.40259740259740495
2019-10-30,0.7808219178082212
2019-10-31,0.5102040816326533
2019-11-01,0.5339805825242738
2019-11-04,0.6559139784946266
2019-11-05,0.5789473684210571
2019-11-06,0.24657534246576246
2019-11-07,0.6567164179104534
2019-11-08,0.701298701298704
2019-11-11,0.7870370370370339
2019-11-12,0.7927927927927894
2019-11-13,1.0
2019-11-14,0.9999999999999951
2019-11-15,0.9999999999999943
2019-11-18,0.7005301656899358
2019-11-19,0.5178389442779556
2019-11-20,0.06830429213498414
2019-11-21,0.049538258575185304
2019-11-22,0.0
2019-11-25,0.0
2019-11-26,0.0
2019-11-27,0.0
2019-11-28,0.0
2019-11-29,0.0
2019-12-02,0.3419354838709736
2019-12-03,0.3800000000000056
2019-12-04,0.500000000000005
2019-12-05,0.7360000000000041
2019-12-06,1.0
2019-12-09,1.0
2019-12-10,1.0
2019-12-11,0.7789973238559836
2019-12-12,0.6131983426044334
2019-12-13,0.48301175660822376
2019-12-16,0.14885550046569943
2019-12-17,0.0
2019-12-18,0.16501954313981357
2019-12-19,0.15450092312639865
2019-12-20,0.14538574499099638
2019-12-23,0.22772277227722906
2019-12-24,0.3066666666666668
2019-12-25,0.31578947368421195
2019-12-26,0.4137931034482785
2019-12-27,0.7362637362637416
2019-12-30,0.9418604651162814
2019-12-31,0.976608187134505
2020-01-02,0.7371134020618568
2020-01-03,0.876118644281104
2020-01-06,0.8945547830841646
2020-01-07,0.9083760967397281
2020-01-08,0.923389307211588
2020-01-09,1.0
2020-01-10,0.7744875295403072
2020-01-13,0.6083224305878127
2020-01-14,0.5636821305576885
2020-01-15,0.2736620620306183
2020-01-16,0.004285714285714247
2020-01-17,0.005617977528089838
2020-01-20,0.014814814814816057
2020-01-21,0.006185567010310351
2020-01-22,0.011320754716983064
2020-01-23,0.478260869565217
2020-02-03,0.3478260869565227
2020-02-04,0.5588235294117646
2020-02-05,0.758991973596371
2020-02-06,0.7883480357936169
2020-02-07,0.5019817944715346
2020-02-10,0.7249768336030333
2020-02-11,0.3687154517958219
2020-02-12,0.24297732960532176
2020-02-13,0.2265600153205862
2020-02-14,0.29211466768373845
2020-02-17,0.0
2020-02-18,0.03030303030303481
2020-02-19,0.22900763358779447
2020-02-20,0.26548672566372644
2020-02-21,0.352941176470594
2020-02-24,0.9436619718309835
2020-02-25,0.9253731343283461
2020-02-26,0.880952380952362
2020-02-27,0.984126984126974
2020-02-28,0.9877342965296717
2020-03-02,0.9943385769577479
2020-03-03,1.0
2020-03-04,0.8893266036933758
2020-03-05,0.7671498272913921
2020-03-06,0.7678540558766677
2020-03-09,0.32781693498111414
2020-03-10,0.07681730108131704
2020-03-11,0.3510429110909774
2020-03-12,0.5047770700636942
2020-03-13,0.5295007564296519
2020-03-16,0.7894736842105259
2020-03-17,1.0
2020-03-18,0.7730375426621149
2020-03-19,0.7299667565850763
2020-03-20,0.5446009605794156
2020-03-23,0.4881797016469775
2020-03-24,0.34180035839408995
2020-03-25,0.4998559591109756
2020-03-26,0.3000096729309245
2020-03-27,0.4631239199879193
2020-03-30,0.013602277002790224
2020-03-31,0.24438124942665912
2020-04-01,0.2500000000000002
2020-04-02,0.5932203389830493
2020-04-03,0.7031802120141327
2020-04-07,0.9128440366972466
2020-04-08,0.7323943661971809
2020-04-09,0.727272727272727
2020-04-10,0.3600917431192661
2020-04-13,0.0
2020-04-14,0.13291139240506264
2020-04-15,0.16470588235294123
2020-04-16,0.46683673469387815
2020-04-17,0.8676056338028187
2020-04-20,0.7512195121951248
2020-04-21,0.7404580152671787
2020-04-22,0.7404580152671769
2020-04-23,0.7308707124010569
2020-04-24,0.41758241758241765
2020-04-27,0.5551601423487516
2020-04-28,0.4678571428571401
2020-04-29,0.5927051671732506
2020-04-30,0.16073358047251163
2020-05-06,0.44792713376220034
2020-05-07,0.42402589863808915
2020-05-08,0.5494716965477829
2020-05-11,0.4386784905281525
2020-05-12,0.6921423373743284
2020-05-13,0.2698457588163481
2020-05-14,0.30184634910635616
2020-05-15,0.028077123501824217
2020-05-18,0.1726384364820855
2020-05-19,0.37464788732394405
2020-05-20,0.6820512820512818
2020-05-21,0.5462555066079308
2020-05-22,0.7087378640776708
2020-05-25,0.5230769230769238
2020-05-26,0.09954751131221586
2020-05-27,0.13875598086124413
2020-05-28,0.16201117318435693
2020-05-29,0.02348993288590698
2020-06-01,0.022950819672132045
2020-06-02,0.03196347031963582
2020-06-03,0.24822695035460818
2020-06-04,0.35161290322580485
2020-06-05,0.6629213483146026
2020-06-08,0.8941798941798907
2020-06-09,1.0
2020-06-10,0.6279415765018076
2020-06-11,0.48759150045935507
2020-06-12,0.6016982340393203
2020-06-15,0.5682824883020656
2020-06-16,0.6003762752448812
2020-06-17,0.8892703834950272
2020-06-18,0.8375051687247755
2020-06-19,0.5335410454442076
2020-06-22,0.3623016935662004
2020-06-23,0.11278342413069734
2020-06-24,0.0
2020-06-29,0.12270269466989199
2020-06-30,0.1566396648120409
2020-07-01,0.180366237267826
2020-07-02,0.4630872483221461
2020-07-03,0.6491228070175452
2020-07-06,0.34615384615384664
2020-07-07,0.3396226415094319
2020-07-08,0.5851063829787178
2020-07-09,0.19834710743801592
2020-07-10,0.3975155279503084
2020-07-13,0.438356164383558
2020-07-14,0.601123595505615
2020-07-15,0.523809523809523
2020-07-16,0.886010362694299
2020-07-17,0.6596858638743393
2020-07-20,0.7805907172995753
2020-07-21,0.7007126664408386
2020-07-22,0.7058163492959247
2020-07-23,0.2978934002539563
2020-07-24,0.4452754239711
2020-07-27,0.1102323282254101
2020-07-28,0.11108141272521962
2020-07-29,0.10086972510802668
2020-07-30,0.2249030265751023
2020-07-31,0.29558464079036645
2020-08-03,0.669902912621345
2020-08-04,0.5348837209302206
2020-08-05,0.7384615384615321
2020-08-06,0.8152173913043455
2020-08-07,0.553488372093024
2020-08-10,0.4328358208955254
2020-08-11,0.5000000000000043
2020-08-12,0.4912280701754409
2020-08-13,0.13114754098360515
2020-08-14,0.1832061068702263
2020-08-17,0.15189873417721225
2020-08-18,0.3419689119170963
2020-08-19,0.2456140350877199
2020-08-20,0.4038461538461551
2020-08-21,0.5140186915887865
2020-08-24,0.9440000000000065
2020-08-25,0.7524752475247616
2020-08-26,0.5170068027210895
2020-08-27,0.5277777777777772
2020-08-28,0.47368421052631776
2020-08-31,0.0
2020-09-01,0.013157894736846592
2020-09-02,0.06896551724140132
2020-09-03,0.7222222222222239
2020-09-04,0.7303370786516808
2020-09-07,0.9926470588235269
2020-09-08,0.9929577464788708
2020-09-09,0.995555555555554
2020-09-10,0.9148709906116405
2020-09-11,0.9294611349546994
2020-09-14,0.6071360389055767
2020-09-15,0.4984226852136635
2020-09-16,0.153303799837774
2020-09-17,0.1457554725040041
2020-09-18,0.11150599733452218
2020-09-21,0.16937524602148873
2020-09-22,0.756541356164131
2020-09-23,0.708695652173915
2020-09-24,0.824000000000002
2020-09-25,0.7580645161290345
2020-09-28,0.7868852459016404
2020-09-29,0.1991525423728832
2020-09-30,0.3846540425069694
2020-10-09,0.20654492945288538
2020-10-12,0.21070937463063466
2020-10-13,0.18881177531293486
2020-10-14,0.41650147866373044
2020-10-15,0.01796734500709659
2020-10-16,0.46712579505029966
2020-10-19,0.4779720320820053
2020-10-20,0.5239610171390262
2020-10-21,0.47959183673470507
2020-10-22,0.860000000000008
2020-10-23,0.24390243902439088
2020-10-26,0.44285714285713873
2020-10-27,0.3793103448275808
2020-10-28,0.5306859205776122
2020-10-29,0.5406360424028229
2020-10-30,0.9003690036900373
2020-11-02,0.8865546218487403
2020-11-03,1.0
2020-11-04,0.9085680043129624
2020-11-05,0.7504239482741325
2020-11-06,0.5010725581426273
2020-11-09,0.28509949538227064
2020-11-10,0.07035950914602963
2020-11-11,0.2398053834575954
2020-11-12,0.32011625299043284
2020-11-13,0.2561293844071762
2020-11-16,0.34831460674157255
2020-11-17,0.21359223300970814
2020-11-18,0.0
2020-11-19,0.0
2020-11-20,0.0
2020-11-23,0.05882352941176637
2020-11-24,0.5459183673469394
2020-11-25,0.7729257641921412
2020-11-26,0.8553719008264451
2020-11-27,1.0
2020-11-30,1.0
2020-12-01,0.7124183006535935
2020-12-02,0.5156794425087097
2020-12-03,0.438661710037178
2020-12-04,0.57344632768362
2020-12-07,0.33165161881295546
2020-12-08,0.5272656544700134
2020-12-09,0.5899632776030767
2020-12-10,0.5931330026289113
2020-12-11,0.21086436288838722
2020-12-14,0.30877461346378265
2020-12-15,0.0
2020-12-16,0.0
2020-12-17,0.34787271947895576
2020-12-18,0.419354838709679
2020-12-21,0.699604743083004
2020-12-22,0.7254901960784318
2020-12-23,0.8507462686567164
2020-12-24,0.8181818181818179
2020-12-25,1.0
2020-12-28,0.6105263157894726
2020-12-29,0.4886877828054298
2020-12-30,0.043478260869563655
2020-12-31,0.011194029850745286
2021-01-04,0.3044619422572185
2021-01-05,0.41945288753799376
2021-01-06,0.5476190476190461
2021-01-07,0.756781346606585
2021-01-08,1.0
2021-01-11,1.0
2021-01-12,1.0
2021-01-13,0.823280470420527
2021-01-14,0.43827799842871334
2021-01-15,0.2881626859861514
2021-01-18,0.19424553563937494
2021-01-19,0.022900693923674647
2021-01-20,0.023728813559326413
2021-01-21,0.02966101694915788
2021-01-22,0.0
2021-01-25,0.0
2021-01-26,0.0
2021-01-27,0.0
2021-01-28,0.2807017543859591
2021-01-29,0.310679611650479
2021-02-01,0.2666666666666674
2021-02-02,0.6098901098901144
2021-02-03,0.7873563218390874
2021-02-04,0.7687500000000079
2021-02-05,0.8654924592011184
2021-02-08,0.875800520209207
2021-02-09,0.5939115885991324
2021-02-10,0.5097084869234572
2021-02-18,0.4368622973281454
2021-02-19,0.8000256254723678
2021-02-22,0.913214060325886
2021-02-23,1.0
2021-02-24,1.0
2021-02-25,1.0
2021-02-26,0.8772563176895286
2021-03-01,0.8855218855218835
2021-03-02,0.4677419354838728
2021-03-03,0.3619631901840494
2021-03-04,0.2893959793929739
2021-03-05,0.6139753782629525
2021-03-08,0.6104600971639287
2021-03-09,0.548002198362695
2021-03-10,0.6844191023770446
2021-03-11,0.6619895546670023
2021-03-12,0.3250471669811114
2021-03-15,0.20325380616412733
2021-03-16,0.2189054754002733
2021-03-17,0.0
2021-03-18,0.0
2021-03-19,0.4682713347921217
2021-03-22,0.6064356435643571
2021-03-23,0.69014084507042
2021-03-24,0.9556313993174003
2021-03-25,0.9766081871344994
2021-03-26,0.39867109634551845
2021-03-29,0.2843450479233248
2021-03-30,0.39664804469274084
2021-03-31,0.2743589743589781
2021-04-01,0.1983002832861184
2021-04-02,0.5970695970695955
2021-04-06,0.641732283464565
2021-04-07,0.4867256637168099
2021-04-08,0.704819277108428
2021-04-09,0.4237288135593194
2021-04-12,0.02868852459016382
2021-04-13,0.030567685589519625
2021-04-14,0.03192528695716611
2021-04-15,0.24128621143888018
2021-04-16,0.3527958455728158
2021-04-19,0.5652323724682832
2021-04-20,0.5833571856053811
2021-04-21,0.7900786179523728
2021-04-22,0.42783975095430404
2021-04-23,0.387679950992065
2021-04-26,0.5704090946809327
2021-04-27,0.702564102564095
2021-04-28,0.3910891089108836
2021-04-29,0.41145833333332854
2021-04-30,0.5073891625615712
2021-05-06,0.3908629441624335
2021-05-07,0.12307692307691989
2021-05-10,0.4270270270270283
2021-05-11,0.6011235955056184
2021-05-12,0.6250778034333917
2021-05-13,0.7613047888527047
2021-05-14,1.0
2021-05-17,0.9020252377069166
2021-05-18,0.9010205959374338
2021-05-19,0.911714127709219
2021-05-20,0.8327467963265777
2021-05-21,0.6483327319742623
2021-05-24,0.6519445179334048
2021-05-25,0.4444444444444482
2021-05-26,0.0
2021-05-27,0.0
2021-05-28,0.15209125475285015
2021-05-31,0.26071428571428296
2021-06-01,0.5508684863523553
2021-06-02,0.8226744186046498
2021-06-03,1.0
2021-06-04,0.8215297450424943
2021-06-07,0.8049535603715191
2021-06-08,0.3457943925233657
2021-06-09,0.2579505300353381
2021-06-10,0.13223140495867808
2021-06-11,0.3875000000000015
2021-06-15,0.35294117647058965
2021-06-16,0.7596475178761457
2021-06-17,0.45883112102773177
2021-06-18,0.6254552545336758
2021-06-21,0.5401469155332221
2021-06-22,0.6764889708684557
2021-06-23,0.7225306914391791
2021-06-24,0.9356953832945814
2021-06-25,0.41239376642748454
2021-06-28,0.25805806276992643
2021-06-29,0.025000000000000522
2021-06-30,0.0
2021-07-01,0.09251101321585793
2021-07-02,0.12138728323699306
2021-07-05,0.09813084112149487
2021-07-06,0.23316062176165828
2021-07-07,0.6931034482758613
2021-07-08,0.7294832826747717
2021-07-09,0.7956656346749236
2021-07-12,0.9922779922779907
2021-07-13,0.9031007751937958
2021-07-14,0.3969072164948461
2021-07-15,0.447960361533219
2021-07-16,0.45663148050500607
2021-07-19,0.557277191223066
2021-07-20,0.679116767138189
2021-07-21,0.9780111585165767
2021-07-22,0.4305201990722515
2021-07-23,0.4098015107708748
2021-07-26,0.236868542744092
2021-07-27,0.04037679379634663
2021-07-28,0.05514705882353293
2021-07-29,0.09554140127389049
2021-07-30,0.02051282051282408
2021-08-02,0.371308016877636
2021-08-03,0.660079051383394
2021-08-04,0.6666666666666606
2021-08-05,0.8361204013377906
2021-08-06,1.0
2021-08-09,1.0
2021-08-10,0.7626459143968884
2021-08-11,0.7056603773584905
2021-08-12,0.563590980907239
2021-08-13,0.3474952143095647
2021-08-16,0.0
2021-08-17,0.0
2021-08-18,0.0
2021-08-19,0.2673179014134798
2021-08-20,0.31209556993529125
2021-08-23,0.6481304160482648
2021-08-24,0.882320716711759
2021-08-25,0.9415584415584426
2021-08-26,0.36405529953917476
2021-08-27,0.5000000000000009
2021-08-30,0.3558823529411749
2021-08-31,0.13563829787233891
2021-09-01,0.16062176165802977
2021-09-02,0.36482084690553584
2021-09-03,0.2140350877192979
2021-09-06,0.531250000000001
2021-09-07,0.8632075471698107
2021-09-08,0.7220052313292283
2021-09-09,0.5294779622836601
2021-09-10,0.6605829054037424
2021-09-13,0.3519714261865973
2021-09-14,0.25137156245862674
2021-09-15,0.5100888374319552
2021-09-16,0.795151156980564
2021-09-17,0.6128701897046637
2021-09-22,0.690878940072464
2021-09-23,0.7006369426751567
2021-09-24,0.6736111111111098
2021-09-27,0.6492537313432856
2021-09-28,0.8787878787878834
2021-09-29,1.0
2021-09-30,0.9556451612903222
2021-10-08,0.7455197132616491
2021-10-11,0.579136690647481
2021-10-12,0.4327868852459001
2021-10-13,0.0
2021-10-14,0.14253880656854345
2021-10-15,0.3104161874751457
2021-10-18,0.4722725259897835
2021-10-19,0.7184400968742473
2021-10-20,0.870809724840227
2021-10-21,0.8800075365561856
2021-10-22,0.8756642811473329
2021-10-25,0.747384816147838
2021-10-26,0.3616236162361602
2021-10-27,0.40163934426229114
2021-10-28,0.39166666666665567
2021-10-29,0.2633928571428511
2021-11-01,0.2657657657657618
2021-11-02,0.5396825396825441
2021-11-03,0.6987951807228995
2021-11-04,0.24358974358975355
2021-11-05,0.5718157181571847
2021-11-08,0.7402862985685079
2021-11-09,0.723360655737705
2021-11-10,0.7103004291845475
2021-11-11,0.9798994974874368
2021-11-12,0.5351473922902491
2021-11-15,0.20334928229664986
2021-11-16,0.3753673889299692
2021-11-17,0.31440714338825204
2021-11-18,0.2645762326385051
2021-11-19,0.5565268353844893
2021-11-22,0.8204741465279688
2021-11-23,0.4885591579379104
2021-11-24,0.7449930800210888
2021-11-25,0.45911344341171006
2021-11-26,0.288456650344824
2021-11-29,0.47420147420147457
2021-11-30,0.7332155477031792
2021-12-01,0.7193308550185863
2021-12-02,0.9698113207547165
2021-12-03,1.0
2021-12-06,0.8711656441717794
2021-12-07,0.5904436860068263
2021-12-08,0.4379785604900463
2021-12-09,0.2584937216480791
2021-12-10,0.0
2021-12-13,0.013712275174476277
2021-12-14,0.015577742877280733
2021-12-15,0.020212341075274927
2021-12-16,0.14283734216000823
2021-12-17,0.3145244975486282
2021-12-20,0.48500832789362014
2021-12-21,0.8723657361177477
2021-12-22,0.9035087719298242
2021-12-23,0.7799043062200959
2021-12-24,0.8730158730158735
2021-12-27,0.4975845410627965
2021-12-28,0.3333333333333315
2021-12-29,0.18781725888325027
2021-12-30,0.2010869565217405
2021-12-31,0.3194444444444439
2022-01-04,0.3239436619718321
2022-01-05,0.11258278145695207
2022-01-06,0.21771217712176702
2022-01-07,0.19732441471571566
2022-01-10,0.09239325311393976
2022-01-11,0.20436418167488823
2022-01-12,0.6803203033402416
2022-01-13,0.5022686038014789
2022-01-14,0.6420339320152171
2022-01-17,0.7419698006532292
2022-01-18,0.8218412978754535
2022-01-19,0.6834210526315755
2022-01-20,0.85884774747356
2022-01-21,0.9558359621451105
2022-01-24,0.9486301369862977
2022-01-25,0.9390243902438983
2022-01-26,0.9428571428571365
2022-01-27,0.8478260869565174
2022-01-28,0.25641025641025855
2022-02-07,0.26495726495727145
2022-02-08,0.005681818181819848
2022-02-09,0.004937141692718213
2022-02-10,0.05378550690045221
2022-02-11,0.06187275365769353
2022-02-14,0.4407281655828569
2022-02-15,0.7145145818368711
2022-02-16,0.8952527932037525
2022-02-17,0.92788585993349
2022-02-18,0.864359170838458
2022-02-21,0.7591294150261156
2022-02-22,0.8005319148936181
2022-02-23,0.7087087087087113
2022-02-24,0.7087087087087106
2022-02-25,0.9084967320261458
2022-02-28,0.9614035087719305
2022-03-01,0.819029850746269
2022-03-02,0.8909883720930228
2022-03-03,0.8933143669985769
2022-03-04,0.8968363136176057
2022-03-07,0.9109263657957236
2022-03-08,1.0
2022-03-09,1.0
2022-03-10,1.0
2022-03-11,1.0
2022-03-14,0.7974440894568694
2022-03-15,0.6225279449699056
2022-03-16,0.4219030520646327
2022-03-17,0.16996951219512293
2022-03-18,0.0
2022-03-21,0.02619204275374933
2022-03-22,0.025105991922218216
2022-03-23,0.026944594090588577
2022-03-24,0.043699760733392136
2022-03-25,0.055068404975522865
2022-03-28,0.08669504475005514
2022-03-29,0.08787768152499893
2022-03-30,0.49450535825725495
2022-03-31,0.5944863069933772
2022-04-01,0.7819650067294766
2022-04-06,0.6231038506417742
2022-04-07,0.8430799220272902
2022-04-08,0.5861344537815124
2022-04-11,0.444214876033058
2022-04-12,0.3633369923161362
2022-04-13,0.4401595744680853
2022-04-14,0.0
2022-04-15,0.05272407732864807
2022-04-18,0.061225876736845465
2022-04-19,0.05319881828121239
2022-04-20,0.0825957110585926
2022-04-21,0.3055357585523111
2022-04-22,0.1778176529748462
2022-04-25,0.6544643690646931
2022-04-26,0.895929781021264
2022-04-27,0.8945811660414752
2022-04-28,0.8325082105990946
2022-04-29,0.933491686460806
2022-05-05,0.26262626262626404
2022-05-06,0.08060453400503433
2022-05-09,0.07360406091370307
2022-05-10,0.5137085137085128
2022-05-11,0.48314606741572824
2022-05-12,0.9389763779527538
2022-05-13,0.8970286811573968
2022-05-16,0.8538919215811196
2022-05-17,0.25797099045597344
2022-05-18,0.27470426479771265
2022-05-19,0.15470289308461896
2022-05-20,0.32378012942483464
2022-05-23,0.32235885426354344
2022-05-24,0.7272351388097981
2022-05-25,0.5838756067559259
2022-05-26,0.2513513513513521
2022-05-27,0.0
2022-05-30,0.03834808259587254
2022-05-31,0.16000000000000117
2022-06-01,0.49156118143460004
2022-06-02,0.8483033932135731
2022-06-06,0.7456140350877177
2022-06-07,0.6699186991869901
2022-06-08,0.5616438356164384
2022-06-09,0.31893687707640983
2022-06-10,0.0
2022-06-13,0.16396396396396762
2022-06-14,0.37920489296636056
2022-06-15,0.5433854907539089
2022-06-16,0.5895061728395065
2022-06-17,0.8757808462083847
2022-06-20,0.9013369486557199
2022-06-21,0.7864235553744026
2022-06-22,0.761818935000185
2022-06-23,0.900137225623167
2022-06-24,0.9058446121455126
2022-06-27,0.5558243915033414
2022-06-28,0.6881659644402808
2022-06-29,0.4614249904145908
2022-06-30,0.34744525547445376
2022-07-01,0.1841680129240739
2022-07-04,0.21268656716418094
2022-07-05,0.0
2022-07-06,0.5095298602287153
2022-07-07,0.6111111111111087
2022-07-08,0.6700564971751378
2022-07-11,0.76932826362484
2022-07-12,1.0
2022-07-13,0.4918627980542491
2022-07-14,0.16419589493878442
2022-07-15,0.09194069983927312
2022-07-18,0.2936253443860299
2022-07-19,0.22743478444410042
2022-07-20,0.3100170305469654
2022-07-21,0.4724543489155539
2022-07-22,0.39396495432310735
2022-07-25,0.0
2022-07-26,0.4221311475409823
2022-07-27,0.4989733059548276
2022-07-28,0.6992700729927017
2022-07-29,0.8202054794520548
2022-08-01,0.9141221374045796
2022-08-02,0.5771670190274841
2022-08-03,0.3973063973063962
2022-08-04,0.016483516483514152
2022-08-05,0.04507042253521323
2022-08-08,0.09275362318840506
2022-08-09,0.324786324786326
2022-08-10,0.8260869565217333
2022-08-11,0.45997314556801444
2022-08-12,0.34879134148795815
2022-08-15,0.14892370443783096
2022-08-16,0.09868795877182565
2022-08-17,0.2160121526977274
2022-08-18,0.20446019316156192
2022-08-19,0.35800150362992744
2022-08-22,0.7216576512726766
2022-08-23,0.7278233168385368
2022-08-24,0.7575757575757545
2022-08-25,1.0
2022-08-26,0.994923857868013
2022-08-29,0.739726027397249
2022-08-30,0.3554502369668174
2022-08-31,0.013761467889903897
2022-09-01,0.0
2022-09-02,0.0
2022-09-05,0.03636363636363757
2022-09-06,0.05263157894737044
2022-09-07,0.3129251700680292
2022-09-08,0.5776397515527986
2022-09-09,0.8850351461339213
2022-09-13,0.8758829294670281
2022-09-14,1.0
2022-09-15,1.0
2022-09-16,0.6132684602536632
2022-09-19,0.7454334724314525
2022-09-20,0.7719317355558111
2022-09-21,0.8067422833366257
2022-09-22,0.5692979747454973
2022-09-23,0.741666666666666
2022-09-26,0.6753926701570665
2022-09-27,0.607669616519174
2022-09-28,0.2917847025495726
2022-09-29,0.45922746781115487
2022-09-30,0.2723214285714267
2022-10-10,0.010230179028130898
2022-10-11,0.009259259259257335
2022-10-12,0.08850788828256943
2022-10-13,0.061008810716757275
2022-10-14,0.2508512404551064
2022-10-17,0.48601883757847036
2022-10-18,0.5609704103705638
2022-10-19,0.4909092341074019
2022-10-20,0.8857327696326805
2022-10-21,0.4829086389061465
2022-10-24,0.6296285639085217
2022-10-25,0.6987951807228933
2022-10-26,0.5979381443299001
2022-10-27,0.4156626506024244
2022-10-28,0.33173076923077677
2022-10-31,0.04522613065326666
2022-11-01,0.23387096774193522
2022-11-02,0.2612612612612632
2022-11-03,0.3127962085307988
2022-11-04,0.7309417040358721
2022-11-07,0.8358974358974492
2022-11-08,0.4101562500000017
2022-11-09,0.6578313253012046
2022-11-10,0.6959314775160608
2022-11-11,0.5493975903614484
2022-11-14,0.6765285996055226
2022-11-15,0.9165449006414593
2022-11-16,0.590787127598804
2022-11-17,0.5342318980108406
2022-11-18,0.5874984068938587
2022-11-21,0.3955930043461324
2022-11-22,0.23450243531545836
2022-11-23,0.6189995120576737
2022-11-24,0.5169514385908431
2022-11-25,0.40113879035356
2022-11-28,0.7878787878787821
2022-11-29,0.8065326633165782
2022-11-30,0.8253968253968215
2022-12-01,0.8445475638051096
2022-12-02,0.955734406438636
2022-12-05,0.6308411214953284
2022-12-06,0.4558011049723764
2022-12-07,0.4788359788359754
2022-12-08,0.6013667425968056
2022-12-09,0.511173184357537
2022-12-12,0.5204403731405981
2022-12-13,0.4314522197140688
2022-12-14,0.23312320916905446
2022-12-15,0.057996846507164225
2022-12-16,0.0
2022-12-19,0.15987258929192827
2022-12-20,0.15480815418453672
2022-12-21,0.2563269524464866
2022-12-22,0.3132483415344741
2022-12-23,0.4379310344827493
2022-12-26,0.15662650602409306
2022-12-27,0.30952380952380365
2022-12-28,0.05511811023621447
2022-12-29,0.4394904458598759
2022-12-30,0.47305389221557886
2023-01-03,0.38725490196079093
2023-01-04,0.6788818382917031
2023-01-05,0.7375394607847056
2023-01-06,0.6189575064207404
2023-01-09,0.5203824440130509
2023-01-10,0.7727438662926029
2023-01-11,0.21971014795128896
2023-01-12,0.24717245073350064
2023-01-13,0.24178583320583405
2023-01-16,0.24626821208745556
2023-01-17,0.035256410256405156
2023-01-18,0.22695035460992707
2023-01-19,0.5514403292181098
2023-01-20,0.7211895910780686
2023-01-30,0.8596491228070203
2023-01-31,1.0
2023-02-01,1.0
2023-02-02,0.9032258064516044
2023-02-03,0.7906976744186022
2023-02-06,0.8749999999999972
2023-02-07,0.8634714798913496
2023-02-08,0.8527130683832144
2023-02-09,0.6192208558847673
2023-02-10,0.585877730392047
2023-02-13,0.09984267608444186
2023-02-14,0.01863291829246887
2023-02-15,0.0
2023-02-16,0.1852335998909602
2023-02-17,0.22298087506880074
2023-02-20,0.5234375000000059
2023-02-21,0.8044692737430267
2023-02-22,0.8622754491017967
2023-02-23,0.5700000000000012
2023-02-24,0.6587301587301526
2023-02-27,0.6355932203389743
2023-02-28,0.3869047619047516
2023-03-01,0.37142857142856006
2023-03-02,0.32663316582913504
2023-03-03,0.11453744493391506
2023-03-06,0.23282442748091878
2023-03-07,0.5959885386819503
2023-03-08,0.7299270072992731
2023-03-09,0.7281553398058298
2023-03-10,0.9075975359342925
2023-03-13,0.7728194726166323
2023-03-14,0.6845070422535179
2023-03-15,0.5516889341100266
2023-03-16,0.7784955158789473
2023-03-17,0.6296424093431111
2023-03-20,0.9540255968782408
2023-03-21,0.6471188699162569
2023-03-22,0.5220527006164333
2023-03-23,0.23847673970716166
2023-03-24,0.19597962799771043
2023-03-27,0.0
2023-03-28,0.03581267217630927
2023-03-29,0.13043478260869842
2023-03-30,0.18932038834952097
2023-03-31,0.20000000000000667
2023-04-03,0.8321513002364107
2023-04-04,0.8280871670702221
2023-04-06,0.7841191066997559
2023-04-07,0.7966101694915246
2023-04-10,0.9558011049723759
2023-04-11,0.08168316831683055
2023-04-12,0.07263922518159603
2023-04-13,0.15632183908045677
2023-04-14,0.11977092580617746
2023-04-17,0.08456760452089607
2023-04-18,0.5032075393463995
2023-04-19,0.45484455604842355
2023-04-20,0.2191756134969264
2023-04-21,0.6181239488282247
2023-04-24,0.7513461157919874
2023-04-25,0.8092609310463225
2023-04-26,1.0
2023-04-27,1.0
2023-04-28,0.896193771626296
2023-05-04,0.8810408921933065
2023-05-05,0.7325581395348815
2023-05-08,0.6296296296296245
2023-05-09,0.0
2023-05-10,0.2541806020066898
2023-05-11,0.4043126684636117
2023-05-12,0.4682080924855487
2023-05-15,0.5181058495821734
2023-05-16,1.0
2023-05-17,0.8566543311696357
2023-05-18,0.5579503617311644
2023-05-19,0.5072342978611412
2023-05-22,0.6266397889551152
2023-05-23,0.40294165038342195
2023-05-24,0.410166433535738
2023-05-25,0.44119887135229885
2023-05-26,0.4689449966047252
2023-05-29,0.02272727272727416
2023-05-30,0.25409836065573643
2023-05-31,0.4662162162162171
2023-06-01,0.6012461059190035
2023-06-02,0.6692506459948311
2023-06-05,1.0
2023-06-06,0.7598566308243725
2023-06-07,0.4705882352941152
2023-06-08,0.26129032258064405
2023-06-09,0.1292775665399279
2023-06-12,0.3018292682926829
2023-06-13,0.3816793893129789
2023-06-14,0.582417582417589
2023-06-15,1.0
2023-06-16,0.5626362589716598
2023-06-19,0.24750491024528698
2023-06-20,0.2260884297914481
2023-06-21,0.4958090730980417
2023-06-26,0.3698959985898101
2023-06-27,0.45687947153674724
2023-06-28,0.6324489504498049
2023-06-29,0.7646102902039091
2023-06-30,0.25836228779232134
2023-07-03,0.2807570977917996
2023-07-04,0.32550335570469924
2023-07-05,0.254335260115608
2023-07-06,0.023391812865496183
2023-07-07,0.2676056338028134
2023-07-10,0.48449612403100817
2023-07-11,0.4076655052264823
2023-07-12,0.5935251798561135
2023-07-13,0.7430191442455693
2023-07-14,0.5823089817013627
2023-07-17,0.3744925694517972
2023-07-18,0.5282015402837358
2023-07-19,0.22731291369542284
2023-07-20,0.7594096047277802
2023-07-21,1.0
2023-07-24,0.5491580823280902
2023-07-25,0.6313575076319293
2023-07-26,0.5809523809523897
2023-07-27,0.28042328042328923
2023-07-28,0.1754385964912347
2023-07-31,0.36206896551724965
2023-08-01,0.1360946745562138
2023-08-02,0.23295454545453928
2023-08-03,0.6359832635983229
2023-08-04,0.858870967741931
2023-08-07,0.8594377510040112
2023-08-08,0.9953488372092942
2023-08-09,0.9962825278810344
2023-08-10,0.6305220883534022
2023-08-11,0.38554216867469193
2023-08-14,0.617499999999994
2023-08-15,0.6717062634989182
2023-08-16,0.4946889259898815
2023-08-17,0.6526351138351338
2023-08-18,0.7562712021934128
2023-08-21,0.46266154167506185
2023-08-22,0.3303867029667657
2023-08-23,0.6523307818721413
2023-08-24,0.2889065901774081
2023-08-25,0.6698366444462088
2023-08-28,0.48458190108690313
2023-08-29,0.36861313868613543
2023-08-30,0.4490445859872625
2023-08-31,0.400568181818178
2023-09-01,0.15384615384615194
2023-09-04,0.22429906542055472
2023-09-05,0.28742514970058813
2023-09-06,0.5162601626016148
2023-09-07,0.7881944444444378
2023-09-08,0.9688715953307289
2023-09-11,0.99300699300699
2023-09-12,1.0
2023-09-13,0.49575070821530026
2023-09-14,0.48997134670487136
2023-09-15,0.39992147459224486
2023-09-18,0.3452555196029121
2023-09-19,0.3848643626816928
2023-09-20,0.830270201891351
2023-09-21,0.46948967698616373
2023-09-22,0.5569481616555814
2023-09-25,0.5392402577216854
2023-09-26,0.33425330111436125
2023-09-27,0.3260681986536156
2023-09-28,0.6036585365853685
2023-10-09,0.8581235697940525
2023-10-10,0.7606490872210913
2023-10-11,0.8687089715536076
2023-10-12,0.6837606837606802
2023-10-13,0.636752136752135
2023-10-16,0.06727828746177344
2023-10-17,0.16408327299499625
2023-10-18,0.3781620342028722
2023-10-19,0.3939215344212229
2023-10-20,0.5280753318612168
2023-10-23,0.644538951198082
2023-10-24,0.6679081021318931
2023-10-25,0.4011942874493284
2023-10-26,0.6656366724443997
2023-10-27,0.4348834985855566
2023-10-30,0.47632311977715547
2023-10-31,0.36809815950919944
2023-11-01,0.44280442804427417
2023-11-02,0.0
2023-11-03,0.2028985507246393
2023-11-06,0.47647058823529753
2023-11-07,0.7310606060606102
2023-11-08,0.8150684931506893
2023-11-09,1.0
2023-11-10,0.8269230769230829
2023-11-13,0.6806722689075682
2023-11-14,0.16835016835017094
2023-11-15,0.015364981616715687
2023-11-16,0.007481105804941598
2023-11-17,0.4305853636431444
2023-11-20,0.4789005808256193
2023-11-21,0.7307473732405585
2023-11-22,0.9208201257657703
2023-11-23,0.9327856151134455
2023-11-24,0.21611549614508885
2023-11-27,0.2095103686902065
2023-11-28,0.2814569536423879
2023-11-29,0.36307692307692635
2023-11-30,0.22018348623853476
2023-12-01,0.8509316770186287
2023-12-04,0.8829268292682884
2023-12-05,0.882063882063877
2023-12-06,0.876288659793809
2023-12-07,1.0
2023-12-08,0.6145454545454527
2023-12-11,0.1810810810810792
2023-12-12,0.12000000000000093
2023-12-13,0.32377049180328
2023-12-14,0.22463513828740717
2023-12-15,0.22445188717008144
2023-12-18,0.4161925486645817
2023-12-19,0.4557299649163627
2023-12-20,0.12013251365586719
2023-12-21,0.22881757661947225
2023-12-22,0.467630560192309
2023-12-25,0.585438405447504
2023-12-26,0.5421548227361322
2023-12-27,0.9087837837837832
2023-12-28,0.8851851851851806
2023-12-29,0.7834101382488421
2024-01-02,0.1316872427983525
2024-01-03,0.5132275132275086
2024-01-04,0.5544794188861956
2024-01-05,0.621848739495798
2024-01-08,0.6004056795131856
2024-01-09,0.8505747126436763
2024-01-10,0.40483383685801044
2024-01-11,0.19420289855072717
2024-01-12,0.00714285714285782
2024-01-15,0.32692307692307676
2024-01-16,0.3673612821452414
2024-01-17,0.6468309661483196
2024-01-18,1.0
2024-01-19,0.8127704859879361
2024-01-22,0.15309221721991523
2024-01-23,0.09466988423428851
2024-01-24,0.005384769941730989
2024-01-25,0.0
2024-01-26,0.11128573013349517
2024-01-29,0.4820143884892044
2024-01-30,0.4437086092715239
2024-01-31,0.6870748299319734
2024-02-01,0.8500000000000105
2024-02-02,0.862595419847335
2024-02-05,0.43902439024390644
2024-02-06,0.4736842105263142
2024-02-07,0.22222222222222254
2024-02-08,0.2044198895027569
2024-02-19,0.0
2024-02-20,0.0
2024-02-21,0.016530820845201445
2024-02-22,0.027222407706514348
2024-02-23,0.09479281001290214
2024-02-26,0.6066099659731521
2024-02-27,1.0
2024-02-28,1.0
2024-02-29,1.0
2024-03-01,0.7878787878787858
2024-03-04,0.7602739726027418
2024-03-05,0.6391752577319666
2024-03-06,0.600000000000016
2024-03-07,0.44444444444446296
2024-03-08,0.8101265822784903
2024-03-11,0.45679012345678455
2024-03-12,0.5728155339805759
2024-03-13,0.39597315436241215
2024-03-14,0.4571428571428466
2024-03-15,0.6651982378854603
2024-03-18,0.6003788190206394
2024-03-19,0.42791794775506736
2024-03-20,0.5677709990770217
2024-03-21,0.5262464136104111
2024-03-22,0.09579311643535993
2024-03-25,0.18818987559247224
2024-03-26,0.31797051947824995
2024-03-27,0.3562852827775933
2024-03-28,0.46428873624048794
2024-03-29,1.0
2024-04-01,0.8305084745762767
2024-04-02,0.7669902912621481
2024-04-03,0.5384615384615538
2024-04-08,0.675675675675674
2024-04-09,0.7119999999999959
2024-04-10,0.8961038961038953
2024-04-11,0.9351351351351329
2024-04-12,1.0
2024-04-15,1.0
2024-04-16,1.0
2024-04-17,0.8236359712008374
2024-04-18,0.827041270166588
2024-04-19,0.9205581083114365
2024-04-22,0.7639346731274299
2024-04-23,0.6300330347678281
2024-04-24,0.7713076966857003
2024-04-25,0.6035616004484763
2024-04-26,0.25354609929078
2024-04-29,0.26190476190476214
2024-04-30,0.28205128205128255
2024-05-06,0.0
2024-05-07,0.03589743589743279
2024-05-08,0.06034482758620198
2024-05-09,0.06511627906976142
2024-05-10,0.06896551724137305
2024-05-13,0.5555555555555378
2024-05-14,0.40439678550882807
2024-05-15,0.37504600441040287
2024-05-16,0.5845072883006471
2024-05-17,0.5324878722390223
2024-05-20,0.2461313814417715
2024-05-21,0.5053290073145653
2024-05-22,0.719737840118797
2024-05-23,0.6524389547267008
2024-05-24,0.8193010701771025
2024-05-27,0.9504504504504535
2024-05-28,0.6415929203539754
2024-05-29,0.4308510638297827
2024-05-30,0.3732718894009121
2024-05-31,0.0
2024-06-03,0.3089005235602086
2024-06-04,0.8115501519756821
2024-06-05,0.7946428571428586
2024-06-06,0.8733766233766302
2024-06-07,0.8594249201277964
2024-06-11,0.5706521739130432
2024-06-12,0.006451612903222599
2024-06-13,0.08637873754152867
2024-06-14,0.0759493670886113
2024-06-17,0.07207207207207576
2024-06-18,0.33194506591402495
2024-06-19,0.6368759355463773
2024-06-20,0.448074967370591
2024-06-21,0.4160409817264358
2024-06-24,0.5047981218142737
2024-06-25,0.034788134557566894
2024-06-26,0.0344346507745722
2024-06-27,0.4616466053770486
2024-06-28,0.7917675544793997
2024-07-01,0.5799999999999926
2024-07-02,0.6336633663366312
2024-07-03,0.6808510638297922
2024-07-04,0.5384615384615448
2024-07-05,0.18571428571428306
2024-07-08,0.6804123711340127
2024-07-09,0.39735099337748
2024-07-10,0.5797101449275355
2024-07-11,0.6266094420600853
2024-07-12,0.7379912663755495
2024-07-15,0.5714285714285783
2024-07-16,0.8508287292817704
2024-07-17,0.5053763440860225
2024-07-18,0.31934554298304685
2024-07-19,0.2158759294985792
2024-07-22,0.5392958749438154
2024-07-23,0.41239827226403825
2024-07-24,0.6247607860549098
2024-07-25,0.7968985227419337
2024-07-26,0.9110392265784514
2024-07-29,0.5089480008852948
2024-07-30,0.6843835074982942
2024-07-31,0.6909722222222234
2024-08-01,0.7253086419753082
2024-08-02,0.5857740585774064
2024-08-05,0.9677419354838709
2024-08-06,0.9591836734693875
2024-08-07,0.905579399141635
2024-08-08,0.7231404958677703
2024-08-09,0.6205673758865293
2024-08-12,0.051369863013697795
2024-08-13,0.0
2024-08-14,0.1358024691357969
2024-08-15,0.2166666666666625
2024-08-16,0.2513893478428872
2024-08-19,0.7133690815478608
2024-08-20,0.9041530037976464
2024-08-21,0.5941475189894114
2024-08-22,0.7269261958923698
2024-08-23,0.7015777546793908
2024-08-26,0.759768842398617
2024-08-27,0.36834804857157605
2024-08-28,0.3857726715346532
2024-08-29,0.1020408163265266
2024-08-30,0.11971830985915484
2024-09-02,0.1909385113268657
2024-09-03,0.4106280193236734
2024-09-04,0.6090225563909795
2024-09-05,1.0
2024-09-06,1.0
2024-09-09,1.0
2024-09-10,1.0
2024-09-11,1.0
2024-09-12,1.0
2024-09-13,0.9874463360473776
2024-09-18,0.5626980383820809
2024-09-19,0.4637317976850393
2024-09-20,0.25828360511003967
2024-09-23,0.0
2024-09-24,0.0400434705689074
2024-09-25,0.12091503267973809
2024-09-26,0.4158878504672904
2024-09-27,0.7008086253369257
2024-09-30,1.0
2024-10-08,0.7435897435897422
2024-10-09,0.8120805369127505
2024-10-10,0.6417704011065
2024-10-11,0.620790629575403
2024-10-14,0.47977941176470723
2024-10-15,0.7879729549613533
2024-10-16,0.44310012480312166
2024-10-17,0.49248228972275915
2024-10-18,0.4017722969607718
2024-10-21,0.35126694532943487
2024-10-22,0.0
2024-10-23,0.12005980737447385
2024-10-24,0.14953599598467296
2024-10-25,0.20540053473565495
2024-10-28,0.5588235294117614
2024-10-29,1.0
2024-10-30,0.799163179916321
2024-10-31,0.7489711934156431
2024-11-01,0.743697478991604
2024-11-04,0.044176706827314484
2024-11-05,0.027450980392161067
2024-11-06,0.3079584775086515
2024-11-07,0.5382716049382725
2024-11-08,0.48617511520737255
2024-11-11,0.8244274809160278
2024-11-12,0.8307692307692284
2024-11-13,0.4837545126353784
2024-11-14,0.020661157024794142
2024-11-15,0.16907872608912358
2024-11-18,0.20777953658469375
2024-11-19,0.4561125926889509
2024-11-20,0.6574169682720211
2024-11-21,0.7984679868509439
2024-11-22,0.6166185640126483
2024-11-25,0.6282771267298987
2024-11-26,0.31499904220676256
2024-11-27,0.46453278849450524
2024-11-28,0.6802721088435469
2024-11-29,0.7352941176470572
2024-12-02,0.5277777777777731
2024-12-03,0.34080717488789497
2024-12-04,0.09216589861751484
2024-12-05,0.2024291497975666
2024-12-06,0.31092436974789495
2024-12-09,0.31223628691982913
2024-12-10,0.4624999999999978
2024-12-11,0.5781249999999893
2024-12-12,0.24742268041236684
2024-12-13,0.20412345689002842
2024-12-16,0.3261824807087802
2024-12-17,0.22585572493121095
2024-12-18,0.27272998820128286
2024-12-19,0.23955764286090378
2024-12-20,0.17510334866270386
2024-12-23,0.3189727081546544
2024-12-24,0.6511373613866206
2024-12-25,0.7356849783641695
2024-12-26,0.5912408759124013
2024-12-27,0.4630872483221407
2024-12-30,0.2865168539325826
2024-12-31,0.3453608247422708
