date,FCT_Cr_Atr_Dfive
2012-12-03,
2012-12-04,
2012-12-05,
2012-12-06,
2012-12-07,
2012-12-10,
2012-12-11,
2012-12-12,
2012-12-13,
2012-12-14,
2012-12-17,0.29150232533177056
2012-12-18,-0.35176619007569243
2012-12-19,0.16852726492056763
2012-12-20,-0.203346203346207
2012-12-21,-0.14031620553359905
2012-12-24,-0.20550985061701188
2012-12-25,0.17974071632607963
2012-12-26,-0.311449579831931
2012-12-27,0.15408511960236349
2012-12-28,0.027639027639028993
2012-12-31,0.11620234604104845
2013-01-04,0.3730134629011058
2013-01-07,0.4264663182346081
2013-01-08,0.12294190742466607
2013-01-09,0.050308073429461864
2013-01-10,0.05681818181818603
2013-01-11,-0.49372459956968784
2013-01-14,-0.02959933790954619
2013-01-15,-0.19953116381688002
2013-01-16,0.1721326437480963
2013-01-17,-0.09915526950925202
2013-01-18,0.0934372874769255
2013-01-21,-0.3131875783317063
2013-01-22,0.0089906232763396
2013-01-23,-0.3883687118348346
2013-01-24,0.0999389685688137
2013-01-25,-0.11076741788186664
2013-01-28,0.09509043927648245
2013-01-29,-0.14892101403729635
2013-01-30,0.08894450535932849
2013-01-31,-0.15729164448041363
2013-02-01,0.15274499519189116
2013-02-04,0.31181704537098587
2013-02-05,0.2567045155544825
2013-02-06,0.22533513764959834
2013-02-07,0.1090157824114457
2013-02-08,-0.0169559803706216
2013-02-18,-0.3881779700540586
2013-02-19,-0.10906264325434373
2013-02-20,-0.17007211538461967
2013-02-21,0.13633513821601959
2013-02-22,0.08610038610038866
2013-02-25,0.1534851076896095
2013-02-26,0.1051792443714334
2013-02-27,0.0429915935672527
2013-02-28,-0.2990366277079589
2013-03-01,-0.08596059113300579
2013-03-04,0.10430656280777476
2013-03-05,-0.10637486655481834
2013-03-06,0.036387264457441025
2013-03-07,0.08779496684964848
2013-03-08,0.06953656929497207
2013-03-11,-0.3559212126124686
2013-03-12,-0.006206644760870867
2013-03-13,0.22530864197530978
2013-03-14,0.185466867469881
2013-03-15,-0.026709364113030862
2013-03-18,0.26104017440049815
2013-03-19,0.03030303030303308
2013-03-20,-0.3611111111111142
2013-03-21,-0.23920454545454709
2013-03-22,-0.2790231199634042
2013-03-25,-0.22392344497607633
2013-03-26,0.08080808080808531
2013-03-27,-0.08515057113187798
2013-03-28,0.20097780126849407
2013-03-29,0.35695893752541535
2013-04-01,0.42710120068610496
2013-04-02,-0.09595959595960041
2013-04-03,0.257800143781453
2013-04-08,-0.013313110886413904
2013-04-09,-0.21490789661574183
2013-04-10,-0.3041065482796892
2013-04-11,0.015151515151514328
2013-04-12,-0.10841346153846013
2013-04-15,0.05143739605607531
2013-04-16,0.2684077424375067
2013-04-17,0.37170696499458794
2013-04-18,0.06542056074766575
2013-04-19,0.12143640350876878
2013-04-22,-0.22502509200401932
2013-04-23,-0.17665491578534934
2013-04-24,-0.4832870230267682
2013-04-25,-0.16812326345036502
2013-04-26,-0.050465017966601945
2013-05-02,0.0703481392557029
2013-05-03,-0.06474546835992649
2013-05-06,0.0165574335977918
2013-05-07,0.3299754299754264
2013-05-08,-0.1352074966532792
2013-05-09,-0.004248366013072092
2013-05-10,0.11738382099827957
2013-05-13,0.2484407484407488
2013-05-14,-0.4248035914702553
2013-05-15,0.19572649572649162
2013-05-16,0.28309692671395004
2013-05-17,-0.13058918482647497
2013-05-20,-0.18605800922874355
2013-05-21,0.1841080454055844
2013-05-22,-0.18665620094190982
2013-05-23,-0.47501611863314475
2013-05-24,-0.013932313093084112
2013-05-27,0.1765697976128738
2013-05-28,0.0036188972233151245
2013-05-29,0.18124873711860684
2013-05-30,0.31144008896303105
2013-05-31,0.19662233825569722
2013-06-03,-0.12298517085751398
2013-06-04,0.175158252277295
2013-06-05,0.0018731602890037918
2013-06-06,-0.15424311926605824
2013-06-07,-0.0825770308123307
2013-06-13,0.12878787878788178
2013-06-14,-0.2724971878515221
2013-06-17,-0.20774774774774674
2013-06-18,0.1922709923664121
2013-06-19,-0.14153153153152861
2013-06-20,-0.11380985426787309
2013-06-21,0.22390350595666028
2013-06-24,0.23131016863058398
2013-06-25,-0.22502057805962378
2013-06-26,0.2894344919336964
2013-06-27,-0.042823657627105216
2013-06-28,-0.23141033034246294
2013-07-01,-0.16219745879845243
2013-07-02,0.07234882233443264
2013-07-03,-0.4011321270688337
2013-07-04,0.015219370480829768
2013-07-05,0.12528797940099695
2013-07-08,0.01544869367663617
2013-07-09,-0.06501132455331363
2013-07-10,0.383189006024101
2013-07-11,0.3005050505050619
2013-07-12,-0.0689716312056684
2013-07-15,0.1571495109455114
2013-07-16,0.07203907203907901
2013-07-17,-0.13243295763700708
2013-07-18,-0.4468503937007918
2013-07-19,0.10735294117646696
2013-07-22,-0.17111901414276065
2013-07-23,0.05547697626905547
2013-07-24,-0.16705069124423372
2013-07-25,0.18573928258967323
2013-07-26,-0.04901960784313245
2013-07-29,-0.05628478420665004
2013-07-30,-0.15352801102895283
2013-07-31,0.12857142857142803
2013-08-01,-0.01787439613526405
2013-08-02,-0.16417910447761322
2013-08-05,0.005216693418945581
2013-08-06,0.19392405063290863
2013-08-07,0.21798941798941282
2013-08-08,0.09052396878482914
2013-08-09,0.2656283798399295
2013-08-12,0.30451127819548063
2013-08-13,-0.05802197802197594
2013-08-14,-0.2467144563918745
2013-08-15,-0.0952463267069878
2013-08-16,-0.031681833501852094
2013-08-19,-0.06693363844393946
2013-08-20,0.15109890109890378
2013-08-21,0.026617310065223276
2013-08-22,0.04204119850186531
2013-08-23,-0.044974053430718156
2013-08-26,-0.2836605890602991
2013-08-27,-0.3826007326007386
2013-08-28,0.4742247679241567
2013-08-29,0.14869146005510075
2013-08-30,-0.08193624557260519
2013-09-02,0.14565004887584831
2013-09-03,0.3163940385314494
2013-09-04,-0.6992106356460347
2013-09-05,-0.32975206611570307
2013-09-06,0.12307692307692439
2013-09-09,-0.03366135582630369
2013-09-10,-0.27891323976032484
2013-09-11,0.17644424540976605
2013-09-12,0.186616161616159
2013-09-13,-0.17552310702996032
2013-09-16,0.17969865186360656
2013-09-17,0.37474571345539043
2013-09-18,0.031227199766525167
2013-09-23,0.10239018087855324
2013-09-24,0.1095890410958924
2013-09-25,-0.221794871794875
2013-09-26,-0.2595208845208815
2013-09-27,0.1541897928793819
2013-09-30,-0.19154788697173622
2013-10-08,0.023255813953490627
2013-10-09,0.12878787878787934
2013-10-10,-0.05187747035573299
2013-10-11,-0.26682339112548054
2013-10-14,-0.010445468509987663
2013-10-15,-0.007630813953496586
2013-10-16,-0.030069930069937405
2013-10-17,0.24505928853754888
2013-10-18,0.14634146341463306
2013-10-21,0.20571428571428071
2013-10-22,-0.08705357142856496
2013-10-23,-0.015384615384606507
2013-10-24,-0.23892773892774355
2013-10-25,0.3000000000000061
2013-10-28,-0.1749450549450554
2013-10-29,0.11794019933555012
2013-10-30,-0.0666666666666718
2013-10-31,0.22065897770929915
2013-11-01,-0.5028273942364678
2013-11-04,-0.012345996668498518
2013-11-05,-0.10439200337085303
2013-11-06,0.15688064537306645
2013-11-07,-0.2569837640340914
2013-11-08,0.20282739423646481
2013-11-11,0.09954911612969408
2013-11-12,0.05788037546387382
2013-11-13,-0.262088978706394
2013-11-14,0.12002096436060448
2013-11-15,0.019230769230776087
2013-11-18,0.024345709068761268
2013-11-19,0.10714285714285718
2013-11-20,0.18800403225805495
2013-11-21,-0.028751123090758432
2013-11-22,-0.10256410256411244
2013-11-25,-0.07478559176671037
2013-11-26,-0.25529100529100657
2013-11-27,0.02734922861150687
2013-11-28,0.21428571428572693
2013-11-29,0.029761904761909784
2013-12-02,-0.05728987993140497
2013-12-03,0.10733182161753677
2013-12-04,-0.043478260869560574
2013-12-05,-0.27304964539008086
2013-12-06,0.1726190476190442
2013-12-09,0.054195102368538264
2013-12-10,0.06255545696539286
2013-12-11,-0.06382978723405103
2013-12-12,0.8109284332688655
2013-12-13,0.0809523809523836
2013-12-16,0.12127659574467854
2013-12-17,0.018664909969260783
2013-12-18,0.09295600082627832
2013-12-19,-0.9969982847341379
2013-12-20,0.11999999999999389
2013-12-23,-0.16060606060605687
2013-12-24,-0.09416748126425561
2013-12-25,0.004964695498675984
2013-12-26,0.3144308521667022
2013-12-27,-0.7286021505376226
2013-12-30,0.07878787878786872
2013-12-31,0.5001920122887833
2014-01-02,0.0029461279461277523
2014-01-03,0.013736263736259406
2014-01-06,0.6729699666295788
2014-01-07,0.13636363636364204
2014-01-08,-0.5645388076490405
2014-01-09,0.17724867724868204
2014-01-10,-0.04306722689074977
2014-01-13,-0.4051085568326928
2014-01-14,-0.24937304075235053
2014-01-15,0.0609673790776138
2014-01-16,-0.38600288600289073
2014-01-17,0.06832855093256487
2014-01-20,0.14074074074074425
2014-01-21,0.23275862068965705
2014-01-22,0.23896103896103926
2014-01-23,0.2999222999223014
2014-01-24,-0.03824833702882292
2014-01-27,0.022222222222218653
2014-01-28,-0.2393803098450784
2014-01-29,-0.15762463343108538
2014-01-30,-0.2541893801736339
2014-02-07,0.12141687141686766
2014-02-10,0.009273840769903133
2014-02-11,0.07091492421727935
2014-02-12,-0.08718567437134887
2014-02-13,0.06716072255674244
2014-02-14,-0.3673584298584253
2014-02-17,-0.031496062992124575
2014-02-18,0.1454768798806695
2014-02-19,0.0011364558811619088
2014-02-20,0.09179056237879483
2014-02-21,0.26576747720364324
2014-02-24,0.15306122448979206
2014-02-25,-0.16803987386837507
2014-02-26,0.033818286925521496
2014-02-27,-0.004120879120878815
2014-02-28,-0.0892821634519762
2014-03-03,-0.38835534213684825
2014-03-04,0.04027683231223277
2014-03-05,0.06699842213860754
2014-03-06,-0.12884615384615472
2014-03-07,0.25506230529595164
2014-03-10,0.6031102096010766
2014-03-11,0.23971126912302934
2014-03-12,0.056929371997864714
2014-03-13,0.08125000000000329
2014-03-14,-0.27839702760085144
2014-03-17,-0.5048023933238813
2014-03-18,-0.30058056742249095
2014-03-19,-0.2545157220827746
2014-03-20,0.14290681940086886
2014-03-21,0.04729090883053262
2014-03-24,0.14599697657866506
2014-03-25,0.0825393686420925
2014-03-26,0.33406390761509586
2014-03-27,-0.15400756566952914
2014-03-28,0.09969586236006424
2014-03-31,-0.12329638949452103
2014-04-01,-0.18626891236082804
2014-04-02,-0.2636738906088727
2014-04-03,-0.023912694591553624
2014-04-04,-0.15646853146854
2014-04-08,0.324162257495599
2014-04-09,0.22843976300197355
2014-04-10,-0.03797829811535283
2014-04-11,0.2315412186379896
2014-04-14,0.06067753001715802
2014-04-15,-0.354107312440649
2014-04-16,-0.05102040816326491
2014-04-17,0.11497763717681647
2014-04-18,-0.24595959595959466
2014-04-21,0.1408191440404949
2014-04-22,0.4703177257525043
2014-04-23,-0.0655737704918045
2014-04-24,0.011235955056185134
2014-04-25,-0.045853269537484254
2014-04-28,-0.20115914030427434
2014-04-29,-0.6056568489948596
2014-04-30,0.2446782481037521
2014-05-05,0.08860759493670836
2014-05-06,0.20705834353326016
2014-05-07,0.0579313250474031
2014-05-08,0.18174380551660163
2014-05-09,-0.3598273691782129
2014-05-12,-0.20625465376023244
2014-05-13,-0.14302325581396189
2014-05-14,0.0037327360955554494
2014-05-15,0.20496894409937577
2014-05-16,0.4549164399533616
2014-05-19,0.1809381980640294
2014-05-20,0.3476190476190522
2014-05-21,-0.000804764204088218
2014-05-22,-0.10714285714285292
2014-05-23,-0.3583056979198073
2014-05-26,0.02854559545337304
2014-05-27,-0.48453493546951754
2014-05-28,0.029842876726773798
2014-05-29,0.11363636363635936
2014-05-30,0.1861529658592426
2014-06-03,-0.07331821617536138
2014-06-04,0.12327952421410465
2014-06-05,0.007923222854589605
2014-06-06,-0.23744588744588532
2014-06-09,-0.13464951197870637
2014-06-10,-0.17582188930503218
2014-06-11,0.09030303030303184
2014-06-12,-0.0324044887151622
2014-06-13,0.17644110275689423
2014-06-16,0.10760869565217326
2014-06-17,0.22707081264698037
2014-06-18,0.04942028985506844
2014-06-19,-0.01731601731602159
2014-06-20,0.020285087719296158
2014-06-23,-0.16237864077669964
2014-06-24,-0.11232063334983032
2014-06-25,-0.164975845410626
2014-06-26,0.2376201034737655
2014-06-27,-0.08301767676767807
2014-06-30,0.07717455914405082
2014-07-01,0.0734810265409111
2014-07-02,0.11888888888889043
2014-07-03,-0.32382192753966976
2014-07-04,-0.099789099789103
2014-07-07,-0.10090702947846027
2014-07-08,-0.0448167239404313
2014-07-09,0.20943661971831193
2014-07-10,0.1619593998234818
2014-07-11,0.20426017661202067
2014-07-14,0.2069369728365501
2014-07-15,0.009461575913312422
2014-07-16,-0.41717056668302743
2014-07-17,-0.08370081411125761
2014-07-18,-0.13008435243619082
2014-07-21,0.2251617925955497
2014-07-22,-0.0049184814169513135
2014-07-23,0.21546979602131694
2014-07-24,0.0927917232021606
2014-07-25,0.09605911330049252
2014-07-28,-0.5404998494429403
2014-07-29,0.07184579439252221
2014-07-30,-0.03773584905660347
2014-07-31,-0.08395721925133083
2014-08-01,-0.1815569487983317
2014-08-04,0.2999719652368954
2014-08-05,-0.12632978723403865
2014-08-06,-0.068181818181819
2014-08-07,-0.04375896700143196
2014-08-08,0.23963317384370492
2014-08-11,-0.24516565246788682
2014-08-12,0.0356607731495346
2014-08-13,0.16963109354413894
2014-08-14,0.3231707317073079
2014-08-15,-0.13947368421052805
2014-08-18,0.2292220113851985
2014-08-19,0.13928012519561622
2014-08-20,-0.17417654808959054
2014-08-21,-0.31862745098038464
2014-08-22,-0.052631578947371874
2014-08-25,-0.05315249266862131
2014-08-26,-0.17852684144818698
2014-08-27,0.20525739320919986
2014-08-28,-0.016478931998333363
2014-08-29,0.15507955936353252
2014-09-01,0.34347507331378824
2014-09-02,0.09122525414659785
2014-09-03,-0.17128981040440835
2014-09-04,0.060912834591626636
2014-09-05,0.0012492792619587245
2014-09-09,-0.6601822211278046
2014-09-10,0.09706959706960124
2014-09-11,0.03875968992247781
2014-09-12,0.04380139152435114
2014-09-15,-0.05379847425302202
2014-09-16,0.33338089462795323
2014-09-17,-0.27542457542457666
2014-09-18,-0.06451612903225376
2014-09-19,0.08384043272481422
2014-09-22,-0.008012820512815384
2014-09-23,0.1862483311081417
2014-09-24,0.255385790679907
2014-09-25,0.35459246491011887
2014-09-26,-0.13895123444194904
2014-09-29,-0.10672290388548117
2014-09-30,-0.32166826462128506
2014-10-08,-0.07828394515700787
2014-10-09,-0.4959586888190367
2014-10-10,-0.010793337716416308
2014-10-13,0.10530704628029841
2014-10-14,0.17404921700223835
2014-10-15,-0.15648496240601806
2014-10-16,0.12340812613704413
2014-10-17,0.12494798168955737
2014-10-20,-0.10275080906148733
2014-10-21,-0.19166666666666482
2014-10-22,0.08198051948052276
2014-10-23,0.1098714870781049
2014-10-24,-0.22531835205993073
2014-10-27,0.020833333333336507
2014-10-28,0.04166666666666517
2014-10-29,0.03376623376623086
2014-10-30,0.009639776763063084
2014-10-31,0.23595238095238638
2014-11-03,0.17725409836065656
2014-11-04,0.2745098039215659
2014-11-05,0.05521885521885715
2014-11-06,-0.09656084656084588
2014-11-07,-0.12726039783002183
2014-11-10,-0.16738567730802664
2014-11-11,-0.35784313725490113
2014-11-12,0.07962962962963596
2014-11-13,0.044598436389478066
2014-11-14,0.06827771384733683
2014-11-17,0.25305641554867614
2014-11-18,0.41486311128050424
2014-11-19,-0.09860777898946853
2014-11-20,0.09862647429547526
2014-11-21,-0.00035344050368084703
2014-11-24,-0.2504248366013096
2014-11-25,-0.3113543393506789
2014-11-26,-0.13041843823900137
2014-11-27,-0.07104287331304457
2014-11-28,-0.04244958979935271
2014-12-01,0.11329113924051087
2014-12-02,0.06315789473684433
2014-12-03,0.13616907437131964
2014-12-04,-0.03591404180158762
2014-12-05,0.048214285714289665
2014-12-08,-0.21271642659683038
2014-12-09,-0.05405405405405402
2014-12-10,0.01904761904761993
2014-12-11,0.14654348518636268
2014-12-12,-0.06010452961672925
2014-12-15,0.22442528735632203
2014-12-16,0.054054054054051545
2014-12-17,-0.007973421926910106
2014-12-18,-0.2918269970755722
2014-12-19,-0.01615029663809745
2014-12-22,-0.06091549295774606
2014-12-23,-0.06944444444444142
2014-12-24,0.024817771607078792
2014-12-25,0.19670833992720235
2014-12-26,-0.01425398000740425
2014-12-29,0.3192488262910736
2014-12-30,0.11292270531400454
2014-12-31,-0.03886815920397678
2015-01-05,0.084075883874677
2015-01-06,0.21075782330023657
2015-01-07,-0.5634920634920598
2015-01-08,-0.01255042581801296
2015-01-09,-0.08083333333333574
2015-01-12,-0.08033000434216256
2015-01-13,-0.3002931996595096
2015-01-14,0.4711225855804221
2015-01-15,-0.1085977379641716
2015-01-16,0.05999999999999872
2015-01-19,-0.16875699888017806
2015-01-20,0.13213477495599762
2015-01-21,-0.4384947196192247
2015-01-22,0.07766990291261933
2015-01-23,0.061538461538464276
2015-01-26,0.16582761250953384
2015-01-27,-0.015973892133287627
2015-01-28,0.13955984970478158
2015-01-29,0.046153846153853414
2015-01-30,-0.20859728506787406
2015-02-02,-0.1496751624187933
2015-02-03,0.106600386633525
2015-02-04,0.11251646903820837
2015-02-05,-0.08063660477454107
2015-02-06,0.1113445378151248
2015-02-09,0.12068965517242072
2015-02-10,-0.17102396514161122
2015-02-11,0.006679035250461693
2015-02-12,-0.003978779840847081
2015-02-13,0.03571428571429546
2015-02-16,0.11999999999999722
2015-02-17,0.1283068783068777
2015-02-25,-0.2681210415200501
2015-02-26,0.3428093645484938
2015-02-27,0.08333333333331719
2015-03-02,0.2799999999999956
2015-03-03,-0.0027472527472536465
2015-03-04,0.32391782831987637
2015-03-05,-0.3995859213250533
2015-03-06,-0.051754385964901735
2015-03-09,-0.6142857142857091
2015-03-10,0.04495504495505043
2015-03-11,-0.16521404768008088
2015-03-12,0.08257986738999769
2015-03-13,-0.082860998650475
2015-03-16,0.1602316602316583
2015-03-17,-0.1350649350649371
2015-03-18,0.01788974078130786
2015-03-19,0.09078322784809749
2015-03-20,0.03678929765886307
2015-03-23,0.009936406995227229
2015-03-24,0.13406593406592593
2015-03-25,0.05887445887445596
2015-03-26,-0.09201388888888644
2015-03-27,0.07083078179220417
2015-03-30,0.3907843137254984
2015-03-31,0.1111957349581209
2015-04-01,0.013095238095240064
2015-04-02,0.16588888888888825
2015-04-03,-0.04939358372457327
2015-04-07,-0.525977011494258
2015-04-08,-0.24567140402414195
2015-04-09,-0.07288458828975644
2015-04-10,-0.34954009806365616
2015-04-13,0.2382916781736179
2015-04-14,0.18355186179365293
2015-04-15,-0.047209312618955813
2015-04-16,0.16951579396351635
2015-04-17,0.19754009806365846
2015-04-20,-0.34803986093581574
2015-04-21,0.12075848303393191
2015-04-22,0.07698412698412906
2015-04-23,-0.2621073961499516
2015-04-24,0.021739130434778275
2015-04-27,0.07088884470073181
2015-04-28,-0.20192307692307576
2015-04-29,0.14682539682539691
2015-04-30,0.10253292806484654
2015-05-04,0.010869565217393466
2015-05-05,0.03191489361702316
2015-05-06,0.055870445344130264
2015-05-07,-0.29109062980031036
2015-05-08,0.19010776457584386
2015-05-11,-0.021497584541060294
2015-05-12,-0.14285714285714446
2015-05-13,0.008232118758437003
2015-05-14,0.28892612763581227
2015-05-15,-0.1920869827846511
2015-05-18,-0.02301587301587993
2015-05-19,0.1669535283993154
2015-05-20,0.0834087481146248
2015-05-21,-0.18281718281719112
2015-05-22,-0.0826265389876928
2015-05-25,-0.08020050125312547
2015-05-26,0.10633839706652726
2015-05-27,-0.19879336349924226
2015-05-28,0.27181641887525093
2015-05-29,0.1058823529411786
2015-06-01,0.12869062901155026
2015-06-02,-0.048081841432230765
2015-06-03,0.29124860646599837
2015-06-04,-0.2713029136888442
2015-06-05,-0.029999999999999763
2015-06-08,-0.06751320090520432
2015-06-09,-0.28448060075093595
2015-06-10,-0.3763768115942022
2015-06-11,0.08236971329003577
2015-06-12,0.16333333333333178
2015-06-15,0.03092783505154316
2015-06-16,0.3638923654568207
2015-06-17,0.22599156118143274
2015-06-18,-0.15444915254237454
2015-06-19,-0.2202898550724564
2015-06-23,-0.09523809523808825
2015-06-24,-0.30211558307532904
2015-06-25,-0.012658227848101201
2015-06-26,0.13750000000000598
2015-06-29,-0.015084294587407843
2015-06-30,0.5043290043290001
2015-07-01,0.30164119977362014
2015-07-02,0.0138888888888886
2015-07-03,-6.914524788759499e-15
2015-07-06,0.3623147889292674
2015-07-07,-0.32213438735178507
2015-07-08,-0.10129032258064458
2015-07-09,0.9106394129979061
2015-07-10,0.049019607843140106
2015-07-13,-0.31167584176161406
2015-07-14,-0.18547868922680733
2015-07-15,-0.13103825136611819
2015-07-16,-1.4715871254162083
2015-07-17,-0.1788897377132653
2015-07-20,0.1260287348305216
2015-07-21,0.07074438970990188
2015-07-22,0.12818110850897518
2015-07-23,0.5335453100159041
2015-07-24,0.3490482120619073
2015-07-27,-0.007211135334561025
2015-07-28,0.09093567251462538
2015-07-29,-0.06704384724186443
2015-07-30,-0.056486486486489754
2015-07-31,-0.2944468993960815
2015-08-03,-0.14881107917429243
2015-08-04,-0.0631578947368451
2015-08-05,-0.04073192129339699
2015-08-06,0.13666666666666422
2015-08-07,0.0752688172043022
2015-08-10,0.08788737617206197
2015-08-11,0.06922598166799018
2015-08-12,0.20988678095187246
2015-08-13,-0.06310616089225168
2015-08-14,-0.0871275869911276
2015-08-17,0.038451792889870356
2015-08-18,-0.1337421107002449
2015-08-19,-0.18224237530659304
2015-08-20,0.008204200107932868
2015-08-21,0.12201130792135581
2015-08-24,0.11235955056179261
2015-08-25,0.13247729408079978
2015-08-26,0.03207941483803385
2015-08-27,0.0242713301536922
2015-08-28,0.07815975733064623
2015-08-31,-0.19636587078651374
2015-09-01,-0.10048149025179673
2015-09-02,-0.11833460656989679
2015-09-07,0.03943566207716968
2015-09-08,-0.23585049580473483
2015-09-09,-0.11093750000000036
2015-09-10,-0.014538498326157986
2015-09-11,0.17097209254071816
2015-09-14,-0.1917507678806516
2015-09-15,0.08333333333333237
2015-09-16,0.0952054794520582
2015-09-17,0.018073316283035577
2015-09-18,-0.1960567532706875
2015-09-21,0.13352044907779353
2015-09-22,0.0903211418376485
2015-09-23,-0.00972160848431946
2015-09-24,0.2531234382808543
2015-09-25,0.19066638637797328
2015-09-28,-0.07057471264368774
2015-09-29,0.03365958462639763
2015-09-30,0.05152911604524942
2015-10-08,-0.3425589836660583
2015-10-09,0.0033634643682997553
2015-10-12,0.12375586854460913
2015-10-13,-0.21608598962193803
2015-10-14,0.08874458874458535
2015-10-15,0.019829503335803675
2015-10-16,-0.20032649253731458
2015-10-19,-0.14314980793854498
2015-10-20,0.22961816305469201
2015-10-21,0.2278138528138596
2015-10-22,0.3040710013505742
2015-10-23,0.231534090909092
2015-10-26,0.05189393939393902
2015-10-27,-0.06612432206925054
2015-10-28,-0.47882916053019764
2015-10-29,-0.4054794520547982
2015-10-30,-0.05965909090909433
2015-11-02,0.005681818181820753
2015-11-03,-0.09345335515548245
2015-11-04,0.2900118303194184
2015-11-05,0.49411764705882427
2015-11-06,-0.0994318181818131
2015-11-09,0.002956393200294229
2015-11-10,0.07388414055080667
2015-11-11,-0.2610955617752859
2015-11-12,-0.19411764705882514
2015-11-13,0.13311688311687858
2015-11-16,0.03658536585365999
2015-11-17,0.07098765432098947
2015-11-18,0.17930849638166402
2015-11-19,-0.24893617021276532
2015-11-20,-0.06493506493505925
2015-11-23,0.0756097560975564
2015-11-24,0.06439393939393843
2015-11-25,0.07594385812207752
2015-11-26,0.2471504559270512
2015-11-27,-0.016260162601632055
2015-11-30,-0.12479338842974827
2015-12-01,-0.3341679506933759
2015-12-02,-0.09926869778055582
2015-12-03,-0.30446852061885
2015-12-04,0.1464666503766509
2015-12-07,0.06783172390075143
2015-12-08,0.18552525236151204
2015-12-09,-0.10602773547723285
2015-12-10,0.23292090157123277
2015-12-11,-0.19514155271009054
2015-12-14,-0.15414944658210936
2015-12-15,0.14154042560458888
2015-12-16,0.01419376134676184
2015-12-17,-0.041592039800994525
2015-12-18,0.0043290043290126826
2015-12-21,0.19175627240142978
2015-12-22,-0.23017723880597024
2015-12-23,0.09858522344486892
2015-12-24,-0.01733269138180414
2015-12-25,0.09393939393938738
2015-12-28,-0.16129032258064394
2015-12-29,0.1772715370515836
2015-12-30,-0.016393442622954432
2015-12-31,0.06451612903226137
2016-01-04,-0.002083333333330259
2016-01-05,0.03519061583577844
2016-01-06,-0.1988304093567203
2016-01-07,0.017857142857149663
2016-01-08,0.12563667232596876
2016-01-11,-0.03125000000000426
2016-01-12,0.10606060606060336
2016-01-13,0.03968253968253817
2016-01-14,0.012912087912082815
2016-01-15,-0.3519245875883653
2016-01-18,0.12962962962963198
2016-01-19,-0.0769995032290069
2016-01-20,0.12142857142856356
2016-01-21,-0.06251526251526024
2016-01-22,0.3415708343528221
2016-01-25,-0.20105820105819955
2016-01-26,-0.014375788146283739
2016-01-27,-0.03412698412697383
2016-01-28,0.04737103174602856
2016-01-29,-0.22446406052963175
2016-02-01,-0.061904761904764086
2016-02-02,0.030769230769232454
2016-02-03,-0.05433455433455658
2016-02-04,0.1043750000000008
2016-02-05,0.04120879120879107
2016-02-15,0.1518518518518503
2016-02-16,-0.03636363636363822
2016-02-17,0.35921625544266944
2016-02-18,-0.2199999999999939
2016-02-19,0.09920634920635091
2016-02-22,0.32476506357103824
2016-02-23,0.1474747474747523
2016-02-24,-0.45075471698113245
2016-02-25,0.23793103448274902
2016-02-26,-0.012987012987019063
2016-02-29,-0.535591274397244
2016-03-01,-0.09920634920635378
2016-03-02,0.09470588235294385
2016-03-03,-0.1989066442388499
2016-03-04,-0.15440115440115323
2016-03-07,0.5256410256410169
2016-03-08,0.5641821946169776
2016-03-09,0.19391480730222765
2016-03-10,0.19192799070847721
2016-03-11,0.1354750512645275
2016-03-14,-0.3690476190476121
2016-03-15,-0.8459282263630066
2016-03-16,-0.2818090954522723
2016-03-17,-0.23839039748130736
2016-03-18,0.08879142300194928
2016-03-21,-0.01387249114522162
2016-03-22,0.22636300897170286
2016-03-23,0.1595520421607372
2016-03-24,0.08989415687980253
2016-03-25,-0.26322751322751453
2016-03-28,-0.07541322314049237
2016-03-29,-0.027950310559004904
2016-03-30,-0.08764568764568802
2016-03-31,-0.15813181602655088
2016-04-01,0.1264637002341891
2016-04-05,0.15833333333333077
2016-04-06,0.07142857142856783
2016-04-07,0.1858491141003879
2016-04-08,0.21326583519442588
2016-04-11,0.11812697978872569
2016-04-12,0.1792805529374823
2016-04-13,0.22689293348015066
2016-04-14,-0.22399795712728054
2016-04-15,0.12312412619553412
2016-04-18,-0.05557969101192474
2016-04-19,-0.2346727098002262
2016-04-20,-0.2720057154350355
2016-04-21,0.3335253824979223
2016-04-22,-0.09109403254972877
2016-04-25,0.007100591715976497
2016-04-26,0.08385657633839937
2016-04-27,0.050403787245893616
2016-04-28,-0.4019892250310818
2016-04-29,-0.2071202531645549
2016-05-03,0.05544121430408926
2016-05-04,-0.25134023646911713
2016-05-05,-0.10206519883939197
2016-05-06,0.2918233082706722
2016-05-09,0.3028543307086573
2016-05-10,-0.3384253819036418
2016-05-11,0.2421740626075001
2016-05-12,0.13010752688171734
2016-05-13,-0.05328341013824736
2016-05-16,-0.26236925608179246
2016-05-17,0.25452311815948175
2016-05-18,0.02801358234295076
2016-05-19,-0.06318407960198383
2016-05-20,-0.1729528535980123
2016-05-23,0.2495572982544863
2016-05-24,-0.032146329606222226
2016-05-25,-0.19175627240143145
2016-05-26,0.07985074626864969
2016-05-27,0.08437118437118353
2016-05-30,-0.25654237288135306
2016-05-31,0.07878151260503909
2016-06-01,0.18611111111111095
2016-06-02,0.12054263565891536
2016-06-03,-0.011931041732366723
2016-06-06,0.04994594594594503
2016-06-07,-0.13571428571428282
2016-06-08,-0.12080152671755826
2016-06-13,-0.33854263565891124
2016-06-14,0.02948293428425839
2016-06-15,-0.060231660231656846
2016-06-16,0.21482334869431752
2016-06-17,0.1299136762502665
2016-06-20,0.13351724137930782
2016-06-21,0.017170329670330345
2016-06-22,0.1142857142857118
2016-06-23,-0.30705937353903956
2016-06-24,-0.13565854128528732
2016-06-27,0.3931784107946053
2016-06-28,-0.10678571428571466
2016-06-29,0.05217391304347711
2016-06-30,0.396191160618039
2016-07-01,0.1582130584192456
2016-07-04,-0.4611052907281315
2016-07-05,0.19409395973154542
2016-07-06,0.2128863279203807
2016-07-07,-0.2968122786304597
2016-07-08,-0.06626262626262625
2016-07-11,0.05386594923382961
2016-07-12,-0.07837967401726052
2016-07-13,-0.45225235919046003
2016-07-14,0.07532467532467484
2016-07-15,-0.11778499278499355
2016-07-18,0.20983401190103104
2016-07-19,-0.09682539682539563
2016-07-20,0.16352347917334792
2016-07-21,-0.09090909090909038
2016-07-22,0.07738095238095132
2016-07-25,-0.24625764284208174
2016-07-26,0.02539682539682446
2016-07-27,0.03848345386806831
2016-07-28,0.10192435301924281
2016-07-29,-0.05673758865247935
2016-08-01,0.25789965108850776
2016-08-02,0.09340659340659577
2016-08-03,-0.08148148148148035
2016-08-04,0.05521850412361387
2016-08-05,0.06272561260457603
2016-08-08,-0.3693609022556411
2016-08-09,-0.013247863247865935
2016-08-10,0.27943262411347763
2016-08-11,-0.10195944406470742
2016-08-12,0.025715098473345722
2016-08-15,0.1864467881829944
2016-08-16,0.05836098998199208
2016-08-17,-0.3224899446838494
2016-08-18,0.02594929211555391
2016-08-19,-0.05551264623496531
2016-08-22,0.04046958812362513
2016-08-23,-0.3335746651956665
2016-08-24,0.2328009103139585
2016-08-25,-0.0631999530143751
2016-08-26,0.09627329192546473
2016-08-29,0.07086354647330492
2016-08-30,0.2921189240207635
2016-08-31,-0.18088039128501174
2016-09-01,-0.00042020337843633876
2016-09-02,-0.007528703180873272
2016-09-05,-0.16232696110745137
2016-09-06,-0.04836268026451748
2016-09-07,0.08985475025937152
2016-09-08,0.06142590405060388
2016-09-09,-0.20073753407087006
2016-09-12,0.12526132404181242
2016-09-13,0.03399285278479863
2016-09-14,-0.12820512820512536
2016-09-19,0.015065415620456957
2016-09-20,0.2746913580246933
2016-09-21,-0.22282229965156702
2016-09-22,-0.054226242583408885
2016-09-23,0.09615384615384519
2016-09-26,0.022519024693275932
2016-09-27,-0.2997280497280535
2016-09-28,0.22520325203251967
2016-09-29,-0.10994112318840636
2016-09-30,0.39823008849557656
2016-10-10,-0.06911207613415958
2016-10-11,0.13486513486513763
2016-10-12,0.00666666666666621
2016-10-13,0.12339868012422639
2016-10-14,-0.6513165082486629
2016-10-17,0.10796108379537793
2016-10-18,0.02597402597402539
2016-10-19,-0.08860050890584892
2016-10-20,0.04030044778275081
2016-10-21,0.23827160493827185
2016-10-24,-0.24053936494127864
2016-10-25,0.044642857142855916
2016-10-26,-0.04456188425654693
2016-10-27,-0.010147991543338397
2016-10-28,0.12007797270955045
2016-10-31,0.20551378446115182
2016-11-01,0.1902056277056291
2016-11-02,0.1211787530805975
2016-11-03,-0.013242249080398616
2016-11-04,-0.13916146297948295
2016-11-07,0.12781954887217903
2016-11-08,0.043758480325644084
2016-11-09,0.06705497600916434
2016-11-10,0.045844129958140446
2016-11-11,0.09841443411700605
2016-11-14,-0.002711323763954804
2016-11-15,-0.4181418488950591
2016-11-16,-0.20948575034177874
2016-11-17,-0.16700473292765414
2016-11-18,-0.03553062178588212
2016-11-21,-0.4121638924455816
2016-11-22,0.1302756244616709
2016-11-23,0.015660520333415334
2016-11-24,0.25803921568627514
2016-11-25,-0.13674412793603197
2016-11-28,0.2925767163366666
2016-11-29,-0.05954808019028311
2016-11-30,0.16886883660973306
2016-12-01,-0.28053571428571417
2016-12-02,0.30065202170488203
2016-12-05,-0.051301024399818373
2016-12-06,0.08204725385528547
2016-12-07,0.006045363731374792
2016-12-08,0.24048656766709126
2016-12-09,-0.23162909788260558
2016-12-12,0.04870244402694746
2016-12-13,0.05205218181418801
2016-12-14,-0.1611065428192496
2016-12-15,-0.17437262208886034
2016-12-16,-0.02601250457147152
2016-12-19,-0.046695362399332134
2016-12-20,-0.18406604258008463
2016-12-21,0.09074333800841532
2016-12-22,0.09207867247317392
2016-12-23,0.044586911116269654
2016-12-26,-0.020307059195948086
2016-12-27,0.20245595472835354
2016-12-28,-0.13179452744670161
2016-12-29,-0.148295201638032
2016-12-30,0.09671631424602692
2017-01-03,-0.05020576131687149
2017-01-04,-0.12177724646343754
2017-01-05,-0.0162467984250175
2017-01-06,0.14397163120567458
2017-01-09,-0.17870556155785505
2017-01-10,0.15049900199600594
2017-01-11,-0.039252828203105355
2017-01-12,0.17477915456216583
2017-01-13,-0.016479400749063157
2017-01-16,0.30657042713717053
2017-01-17,-0.14805251881557902
2017-01-18,0.07244610551402883
2017-01-19,-0.09542491371936285
2017-01-20,-0.05238692750812801
2017-01-23,-0.3570514684501311
2017-01-24,0.020741922616670988
2017-01-25,-0.008085052202698341
2017-01-26,-0.00991703396421818
2017-02-03,0.28895765245810606
2017-02-06,0.06519988495829855
2017-02-07,-0.02239000260348392
2017-02-08,0.10273060273059968
2017-02-09,0.027708978328172058
2017-02-10,-0.193900848010439
2017-02-13,0.17170135691041932
2017-02-14,0.05032422202227478
2017-02-15,-0.06342780026990165
2017-02-16,0.15022624434389265
2017-02-17,-0.11808236808236758
2017-02-20,-0.07948497392613496
2017-02-21,0.09649642240315572
2017-02-22,-0.06596336656619721
2017-02-23,-0.1843330980945667
2017-02-24,-0.07124913374913414
2017-02-27,0.017314758518599017
2017-02-28,-0.09716859716859383
2017-03-01,0.006680544125478562
2017-03-02,-0.027992076730611083
2017-03-03,0.08686290703161872
2017-03-06,-0.1374840628984269
2017-03-07,-0.17218958088523467
2017-03-08,0.4258241758241773
2017-03-09,0.182837995337998
2017-03-10,0.01982339799283842
2017-03-13,0.2692307692307665
2017-03-14,0.234559643255296
2017-03-15,-0.5252100840336158
2017-03-16,-0.012929161234247186
2017-03-17,-0.007806447768311756
2017-03-20,-0.24427168576104477
2017-03-21,-0.01106612685560087
2017-03-22,0.17190096377534148
2017-03-23,-0.3134365020879387
2017-03-24,0.10037227949599244
2017-03-27,0.16185410334346345
2017-03-28,0.1467304625199357
2017-03-29,-0.17288135593220255
2017-03-30,0.2706457422176491
2017-03-31,-0.030118601747816894
2017-04-05,-0.049806949806949746
2017-04-06,-0.367003367003366
2017-04-07,0.19177489177488902
2017-04-10,-0.09619922314589556
2017-04-11,0.00554595217516788
2017-04-12,-0.1413331983884129
2017-04-13,0.3161984449036972
2017-04-14,-0.060762301079199575
2017-04-17,0.18993283372397485
2017-04-18,-0.17749880980238852
2017-04-19,0.3665470198047664
2017-04-20,-0.11070869119059372
2017-04-21,-0.04245537676534178
2017-04-24,-0.09490471511456927
2017-04-25,0.16728048027712628
2017-04-26,-0.3903761128944353
2017-04-27,-0.12644981992456628
2017-04-28,0.10727611940298537
2017-05-02,-0.1814950980392138
2017-05-03,-0.1089777896708572
2017-05-04,0.3698180421192353
2017-05-05,0.11805001330140977
2017-05-08,-0.13308823529411884
2017-05-09,0.10409530900967723
2017-05-10,0.1587399087399073
2017-05-11,-0.19633725250229592
2017-05-12,-0.035160575858250664
2017-05-15,0.19558823529411892
2017-05-16,0.041189471569217886
2017-05-17,-0.084415584415584
2017-05-18,-0.26431511976047944
2017-05-19,0.3429837051099478
2017-05-22,-0.21778350515464046
2017-05-23,-0.055645743145740945
2017-05-24,0.029585798816568944
2017-05-25,0.26311063218390945
2017-05-26,-0.5822977235586929
2017-05-31,0.6079350203061551
2017-06-01,0.0847727272727265
2017-06-02,-0.053509243792646155
2017-06-05,0.020283975659228938
2017-06-06,0.25322403800970966
2017-06-07,-0.8311892510005723
2017-06-08,-0.031206896551723203
2017-06-09,-0.04410376590827732
2017-06-12,-0.1585086589380301
2017-06-13,-0.03163781216485293
2017-06-14,0.4100548298661518
2017-06-15,-0.11535560344827649
2017-06-16,0.22454895001479053
2017-06-19,0.1621206300422623
2017-06-20,0.012412177985948146
2017-06-21,-0.27048768225238884
2017-06-22,0.40513392857142627
2017-06-23,-0.2866587254318076
2017-06-26,-0.1628677994198108
2017-06-27,0.15246523388116123
2017-06-28,0.2315886984715139
2017-06-29,-0.1767057569296336
2017-06-30,0.15662705252653839
2017-07-03,0.09088138176276425
2017-07-04,-0.11731485794130962
2017-07-05,0.06906489629972815
2017-07-06,-0.41174939257202503
2017-07-07,-0.034620147525979306
2017-07-10,0.18328926493918302
2017-07-11,0.1342661230541123
2017-07-12,-0.11801016702977532
2017-07-13,0.31555856755599887
2017-07-14,0.008130081300812523
2017-07-17,-0.1520296643247461
2017-07-18,-0.28202154101076893
2017-07-19,0.19930661254862383
2017-07-20,0.03182515337423258
2017-07-21,0.005347593582889256
2017-07-24,-0.03850050658560927
2017-07-25,0.09746062359369631
2017-07-26,-0.3711937377690836
2017-07-27,-0.2063356164383524
2017-07-28,0.04265240641710706
2017-07-31,0.04949650803962386
2017-08-01,0.036253160427372144
2017-08-02,0.15819548872180753
2017-08-03,0.1741386467413835
2017-08-04,-0.025941176470585407
2017-08-07,0.03465319347575882
2017-08-08,0.007462686567165169
2017-08-09,0.03472968134622116
2017-08-10,0.0017646252518030113
2017-08-11,0.01498371329038474
2017-08-14,-0.1391635861459628
2017-08-15,0.11986959911176347
2017-08-16,-0.18427804154324984
2017-08-17,0.060130926005449774
2017-08-18,-0.18639318617044348
2017-08-21,0.15031191938776317
2017-08-22,-0.22701245625462213
2017-08-23,0.22906715718951215
2017-08-24,-0.15936276066476138
2017-08-25,0.2213506493506472
2017-08-28,-0.1582545288823029
2017-08-29,0.10714285714286154
2017-08-30,-0.1293770491803328
2017-08-31,0.15412070084361024
2017-09-01,-0.07999999999999848
2017-09-04,0.2750361097737086
2017-09-05,-0.01360544217687452
2017-09-06,0.13323911814584538
2017-09-07,-0.1574693422519528
2017-09-08,0.05627586206896307
2017-09-11,-0.40916808149405554
2017-09-12,0.047503747261619815
2017-09-13,-0.15782928208026764
2017-09-14,0.16872710622710524
2017-09-15,0.1305859265489228
2017-09-18,0.3547186932849366
2017-09-19,-0.05828854898719106
2017-09-20,0.06946721311474928
2017-09-21,-0.1931509945750441
2017-09-22,-0.41662402638012574
2017-09-25,-0.05763998734578113
2017-09-26,0.15259537210757343
2017-09-27,0.02765151515151687
2017-09-28,0.08747402229359513
2017-09-29,0.24528103475472063
2017-10-09,-0.11070792824865831
2017-10-10,0.13536076326773924
2017-10-11,-0.0090165458263633
2017-10-12,0.06234073534765223
2017-10-13,0.015602590290756033
2017-10-16,-0.036132894847795846
2017-10-17,-0.5684439402533581
2017-10-18,-0.041222688623395225
2017-10-19,-0.13669623059866884
2017-10-20,0.21450237509299913
2017-10-23,0.19344632768361153
2017-10-24,0.3263066202090599
2017-10-25,0.11900380321432866
2017-10-26,0.05601173020527836
2017-10-27,-0.3766966100583554
2017-10-30,-0.29692307692307307
2017-10-31,-0.0027369826435253465
2017-11-01,0.08122153076281086
2017-11-02,0.03368046736093502
2017-11-03,0.029697847682117653
2017-11-06,0.229554655870445
2017-11-07,-0.03535825545171422
2017-11-08,-0.38547659772974013
2017-11-09,0.19864772338239958
2017-11-10,0.298564189189191
2017-11-13,-0.13596491228070307
2017-11-14,0.02493112947658583
2017-11-15,0.24492914698526777
2017-11-16,-0.2625217391304302
2017-11-17,-0.18918918918919153
2017-11-20,0.43926553672316654
2017-11-21,0.08548553719008328
2017-11-22,-0.007447306791566372
2017-11-23,0.00543820224719091
2017-11-24,-0.04142011834319045
2017-11-27,-0.485561833019462
2017-11-28,-0.17176418439716573
2017-11-29,-0.014841557334630794
2017-11-30,0.24650975472376313
2017-12-01,0.10152144266991701
2017-12-04,0.3460593029812944
2017-12-05,0.09940839197060415
2017-12-06,-0.022005733305765416
2017-12-07,-0.10047057003628183
2017-12-08,-0.09679857203315012
2017-12-11,-0.4211915781135718
2017-12-12,-0.06331037523810966
2017-12-13,0.1447044334975416
2017-12-14,-0.2010329424902289
2017-12-15,0.0056413470853101146
2017-12-18,0.3073260073260131
2017-12-19,0.13493942347862156
2017-12-20,-0.25797872340425654
2017-12-21,-0.029413769597819633
2017-12-22,0.07360909211047588
2017-12-25,-0.15018315018315403
2017-12-26,-0.25016611295680724
2017-12-27,0.18382618103137022
2017-12-28,0.0543241638630539
2017-12-29,-0.06886898096304621
2018-01-02,0.0296010296010278
2018-01-03,0.2672346002621202
2018-01-04,-0.0012606807676100104
2018-01-05,0.1121412242824475
2018-01-08,0.30875853756528754
2018-01-09,-0.08912483912483897
2018-01-10,-0.17009174311926362
2018-01-11,-0.02831018111482941
2018-01-12,-0.08010717410323814
2018-01-15,-0.5963113612302888
2018-01-16,0.22416413373860844
2018-01-17,0.040952380952379824
2018-01-18,-0.0504028093369078
2018-01-19,0.04861111111110981
2018-01-22,0.5338686131386864
2018-01-23,-0.1252179979072272
2018-01-24,0.06863439590712438
2018-01-25,0.12361440256860756
2018-01-26,0.04316546762590319
2018-01-29,-0.3372413793103461
2018-01-30,-0.03867827868852057
2018-01-31,0.04057715756672237
2018-02-01,-0.2749393167959248
2018-02-02,0.0669262754933648
2018-02-05,0.05939013964092591
2018-02-06,0.06441885964911977
2018-02-07,-0.20223289994346844
2018-02-08,0.5202569530622679
2018-02-09,-0.13907725036564483
2018-02-12,0.12501541877389719
2018-02-13,-0.05950190160716323
2018-02-14,0.1266675056632293
2018-02-22,-0.5268561849549502
2018-02-23,0.25022444529947685
2018-02-26,-0.09614968635085289
2018-02-27,0.02703266882371317
2018-02-28,-0.02975005529750492
2018-03-01,0.14858882125069064
2018-03-02,-0.5252389380531002
2018-03-05,0.10944527736132093
2018-03-06,0.07875516036837209
2018-03-07,0.025151515151515917
2018-03-08,0.06816450875856912
2018-03-09,0.37130769230769456
2018-03-12,-0.05343274308792131
2018-03-13,-0.09014557670772912
2018-03-14,0.0170270270270275
2018-03-15,-0.06479068959527406
2018-03-16,-0.012762237762238636
2018-03-19,-0.03564771668219395
2018-03-20,0.1567505720823798
2018-03-21,0.049896049896052924
2018-03-22,0.4279448621553877
2018-03-23,0.1351981351981369
2018-03-26,-0.004310344827587419
2018-03-27,-0.12606797038161816
2018-03-28,-0.13344481605351566
2018-03-29,-0.6601382488479239
2018-03-30,-0.24634736332849766
2018-04-02,0.1595977011494238
2018-04-03,-0.027622626180565782
2018-04-04,0.05652173913043596
2018-04-09,0.3387096774193503
2018-04-10,-0.14339622641509175
2018-04-11,-0.3008302308265097
2018-04-12,-0.07979594117250507
2018-04-13,0.015307965458251693
2018-04-16,-0.05346486134512751
2018-04-17,0.1688281028468182
2018-04-18,0.17303148868814752
2018-04-19,0.14008879216303102
2018-04-20,-0.0867365368868248
2018-04-23,-0.12373294085267372
2018-04-24,0.07418264984135174
2018-04-25,-0.03948648122933364
2018-04-26,-0.1317738791423003
2018-04-27,0.16445182724252727
2018-05-02,0.1695990180032761
2018-05-03,-0.053010752688173325
2018-05-04,0.0004165364990055924
2018-05-07,0.1875203472599043
2018-05-08,-0.16849495392716235
2018-05-09,0.04841511072513954
2018-05-10,-0.026697247706419742
2018-05-11,-0.08455988455987735
2018-05-14,-0.06086861153762186
2018-05-15,0.11670881151527304
2018-05-16,-0.22115578904829225
2018-05-17,-0.018858307849135357
2018-05-18,0.30476190476189907
2018-05-21,0.17396745932415913
2018-05-22,-0.08188751990613233
2018-05-23,0.07501258600436164
2018-05-24,0.22222222222222474
2018-05-25,-0.3278195488721808
2018-05-28,-0.1110547667342793
2018-05-29,0.048524422252100616
2018-05-30,-0.04422669491525436
2018-05-31,-0.20903954802259844
2018-06-01,0.2251646816155521
2018-06-04,-0.3286985539488344
2018-06-05,-0.007874015748033147
2018-06-06,0.1623355263157929
2018-06-07,0.09091657067631545
2018-06-08,-0.15290068829892742
2018-06-11,0.12602783048703564
2018-06-12,0.10989010989011125
2018-06-13,-0.03470557582074245
2018-06-14,-0.2089210478109459
2018-06-15,0.37016229712859
2018-06-19,0.2616892911010537
2018-06-20,-0.13951973951974414
2018-06-21,-0.11820724057138567
2018-06-22,0.23414785029383645
2018-06-25,-0.543614375160816
2018-06-26,-0.23305407463823163
2018-06-27,-0.05639187574670816
2018-06-28,0.10399640772339415
2018-06-29,0.08532041728763615
2018-07-02,0.2682233198622905
2018-07-03,-0.07173547543433476
2018-07-04,0.15268817204300753
2018-07-05,-0.06654411764705848
2018-07-06,-0.2988758553274725
2018-07-09,-0.1267156862745063
2018-07-10,0.3701214784181866
2018-07-11,-0.11161048689138517
2018-07-12,0.17242647058824093
2018-07-13,0.07792927613346814
2018-07-16,0.04354395604396066
2018-07-17,-0.29963785230671824
2018-07-18,-0.005056179775278585
2018-07-19,-0.33854489164087265
2018-07-20,-0.020111543011655124
2018-07-23,0.18681318681317954
2018-07-24,0.22108477011495337
2018-07-25,0.022602739726021906
2018-07-26,0.2114529280948862
2018-07-27,0.13752276867030233
2018-07-30,-0.19548872180451132
2018-07-31,-0.22395833333334403
2018-08-01,0.16376089663761018
2018-08-02,-0.054084507042250235
2018-08-03,0.38888888888888185
2018-08-06,0.07186234817814302
2018-08-07,0.17767295597484734
2018-08-08,-0.16222570532915262
2018-08-09,0.1532182475383199
2018-08-10,-0.6456458305730715
2018-08-13,0.18118692824692506
2018-08-14,0.10263732792012613
2018-08-15,0.07912438587630555
2018-08-16,0.2405232490603183
2018-08-17,0.2062265117567754
2018-08-20,-0.21041769747769593
2018-08-21,-0.3636436172283041
2018-08-22,-0.04720171085018147
2018-08-23,-0.7151872797311711
2018-08-24,0.013842798900163628
2018-08-27,-0.1751851851851859
2018-08-28,0.17803030303030082
2018-08-29,-0.11842015662240418
2018-08-30,0.3234710995882188
2018-08-31,-0.01886792452830174
2018-09-03,0.474658869395712
2018-09-04,-0.03177179962894135
2018-09-05,0.6227762172284665
2018-09-06,0.12762985595810677
2018-09-07,0.10759493670885685
2018-09-10,-0.37518796992481424
2018-09-11,0.12040816326530687
2018-09-12,-0.6979166666666702
2018-09-13,-0.06867615143477464
2018-09-14,-0.29937575862666843
2018-09-17,0.11961259079903556
2018-09-18,-0.2475409836065559
2018-09-19,0.27403846153846345
2018-09-20,-0.10947459620025958
2018-09-21,0.23061577337412428
2018-09-25,-0.07128148265484367
2018-09-26,0.10870603215024413
2018-09-27,-0.2178515928515941
2018-09-28,0.15826301708169904
2018-10-08,0.2872520050654255
2018-10-09,0.1111536693733801
2018-10-10,0.05410212702883076
2018-10-11,0.1388319283056135
2018-10-12,-0.15185699409926362
2018-10-15,-0.45616825733475
2018-10-16,-0.1859200245135683
2018-10-17,0.005785456006426831
2018-10-18,0.013099759708548538
2018-10-19,0.2134026835519304
2018-10-22,0.040795586527296215
2018-10-23,0.07293384643577461
2018-10-24,-0.061868958109554555
2018-10-25,-0.09508664180740567
2018-10-26,-0.2692441657958845
2018-10-29,0.035952380952384094
2018-10-30,0.09555371444352141
2018-10-31,0.06748299319726668
2018-11-01,0.07446808510636757
2018-11-02,0.4236453201970433
2018-11-05,-0.007272727272730949
2018-11-06,-0.0025745873087992185
2018-11-07,-0.016462585034003312
2018-11-08,0.28282828282829314
2018-11-09,-0.4274465691788555
2018-11-12,0.28078954684459084
2018-11-13,-0.008650658905324488
2018-11-14,-0.010204081632653886
2018-11-15,-0.5562095777923133
2018-11-16,0.21103921415764146
2018-11-19,-0.28499830105334045
2018-11-20,-0.17382565324201607
2018-11-21,0.2386363636363606
2018-11-22,0.44769322156953006
2018-11-23,-0.14743193069307145
2018-11-26,0.14108600125548387
2018-11-27,0.25469712325563176
2018-11-28,-0.3365384615384616
2018-11-29,-0.321598748310929
2018-11-30,0.20539772727272493
2018-12-03,-0.019819573537448877
2018-12-04,-0.25575524433491753
2018-12-05,0.02772665930560822
2018-12-06,0.1661547462337329
2018-12-07,-0.15505050505050594
2018-12-10,-0.32311827956989275
2018-12-11,0.2986021611975809
2018-12-12,0.11461988304094117
2018-12-13,0.10201726214371298
2018-12-14,-0.01638661314311347
2018-12-17,0.319592827646506
2018-12-18,-0.2128693352420534
2018-12-19,-0.08178652582924902
2018-12-20,-0.1521351866720181
2018-12-21,-0.041857114455448284
2018-12-24,0.041191486078982605
2018-12-25,0.033285478238837846
2018-12-26,0.03734208138480131
2018-12-27,0.10733695652173834
2018-12-28,0.12642554578038354
2019-01-02,-0.22033123929183118
2019-01-03,0.06630824372760513
2019-01-04,0.05263157894736632
2019-01-07,-0.20608695652173942
2019-01-08,-0.1093695576454263
2019-01-09,0.08917655519597742
2019-01-10,-0.222222222222219
2019-01-11,-0.037246963562755156
2019-01-14,0.06939393939393809
2019-01-15,0.11735261401558023
2019-01-16,0.12934472934472493
2019-01-17,0.2089201877934221
2019-01-18,-0.001871101871101526
2019-01-21,0.43393939393940273
2019-01-22,-0.087222048230506
2019-01-23,-0.15291375291375192
2019-01-24,-0.07451158564288879
2019-01-25,-0.05795795795795361
2019-01-28,-0.5477519379845044
2019-01-29,0.03883495145631249
2019-01-30,0.27187366623985787
2019-01-31,0.09039759939984543
2019-02-01,0.08840048840048584
2019-02-11,0.14283965728274345
2019-02-12,0.10869565217390847
2019-02-13,-0.2798950566141882
2019-02-14,-0.06866585067318871
2019-02-15,0.009235445405656448
2019-02-18,-0.018926103136631067
2019-02-19,0.050878815911201955
2019-02-20,0.04110451520057265
2019-02-21,0.1331678252234332
2019-02-22,-0.1540318254961518
2019-02-25,0.08788822807514504
2019-02-26,-0.3217366302472763
2019-02-27,-0.015487816908352256
2019-02-28,0.14702141191435258
2019-03-01,0.1362385662229456
2019-03-04,0.0908219506350382
2019-03-05,0.13943488943489124
2019-03-06,0.05076269067266483
2019-03-07,-0.5465859982713872
2019-03-08,-0.06731312370551136
2019-03-11,-0.26007326007326614
2019-03-12,-0.02790563866513187
2019-03-13,0.058914728682177155
2019-03-14,0.2394230769230662
2019-03-15,0.08386294556506271
2019-03-18,0.1442138108804842
2019-03-19,0.19697437480703314
2019-03-20,-0.13049645390071915
2019-03-21,0.014772727272736218
2019-03-22,-0.11008758683176059
2019-03-25,-0.16049382716050214
2019-03-26,-0.33474726051608017
2019-03-27,0.0995440729483357
2019-03-28,-0.011755485893418498
2019-03-29,0.07599667774085812
2019-04-01,0.2534113060428949
2019-04-02,0.15665976535542725
2019-04-03,-0.019320843091340606
2019-04-04,0.16351501668520405
2019-04-08,-0.03214285714286144
2019-04-09,-0.07627765064837008
2019-04-10,0.1585065951262986
2019-04-11,0.18360655737705892
2019-04-12,-0.11115953305827883
2019-04-15,-0.02802710049621316
2019-04-16,-0.03186279109042128
2019-04-17,-0.22433346451687236
2019-04-18,-0.38115201847494196
2019-04-19,0.11069870356519174
2019-04-22,0.23218623250345954
2019-04-23,-0.00776101402829229
2019-04-24,0.14058365382477045
2019-04-25,0.11929634837184483
2019-04-26,-0.16153846153845988
2019-04-29,-0.3035097813578924
2019-04-30,-0.040643753409704
2019-05-06,0.25428654460912575
2019-05-07,0.061855670103090336
2019-05-08,-0.10244963369963217
2019-05-09,0.2341182913472024
2019-05-10,0.019023986765917142
2019-05-13,-0.45285285285285665
2019-05-14,0.03947368421052757
2019-05-15,0.41389767932489036
2019-05-16,-0.1897888584039036
2019-05-17,0.1599176389842107
2019-05-20,0.09895178197065205
2019-05-21,0.03052631578947216
2019-05-22,-0.2878268070507499
2019-05-23,0.1825144778628752
2019-05-24,-0.17003245582401438
2019-05-27,0.2070462514610133
2019-05-28,-0.06230769230769378
2019-05-29,-0.15859313690518534
2019-05-30,-0.08568461138999026
2019-05-31,0.015587167070216772
2019-06-03,-0.22383697328895047
2019-06-04,-0.027494287890325854
2019-06-05,0.1881409514997298
2019-06-06,-0.03742392587883145
2019-06-10,0.08678571428571759
2019-06-11,0.36584732560151995
2019-06-12,0.18038592180385876
2019-06-13,0.030112445206785278
2019-06-14,-0.07991936918242529
2019-06-17,-0.060000000000002336
2019-06-18,-0.5227159880834145
2019-06-19,-0.34007112109301585
2019-06-20,-0.008647798742138522
2019-06-21,0.0398203592814412
2019-06-24,-0.06315789473684409
2019-06-25,0.10666765227676568
2019-06-26,0.3461538461538388
2019-06-27,-0.16254578754578952
2019-06-28,0.19999999999999366
2019-07-01,0.15011441647597196
2019-07-02,0.23359550561797113
2019-07-03,-0.16666666666666177
2019-07-04,0.12087912087912248
2019-07-05,-0.15900900900900555
2019-07-08,-0.19604743083003548
2019-07-09,-0.06918367346938623
2019-07-10,0.019607843137259842
2019-07-11,-0.04807692307692265
2019-07-12,-0.12230412230412288
2019-07-15,0.27188160676532536
2019-07-16,-0.0708163265306137
2019-07-17,-0.24641196684860334
2019-07-18,0.19474358974359207
2019-07-19,0.23596429410383263
2019-07-22,-0.1733170134638906
2019-07-23,-0.033829787234040155
2019-07-24,0.2836223055295282
2019-07-25,-0.16817204301075375
2019-07-26,-0.13761819575773526
2019-07-29,0.044617224880379315
2019-07-30,0.06382978723404117
2019-07-31,-0.07879620379621206
2019-08-01,-0.05714630904917929
2019-08-02,0.02077191101581123
2019-08-05,-0.00939955106621277
2019-08-06,-0.036144578313254384
2019-08-07,0.12197802197803295
2019-08-08,0.1127425944841739
2019-08-09,-0.009782900026801284
2019-08-12,0.13119939991516372
2019-08-13,0.12680465220107645
2019-08-14,-0.13142588514097417
2019-08-15,0.034682943016052716
2019-08-16,0.06656900176029475
2019-08-19,-0.3859792535150788
2019-08-20,-0.1711198440027672
2019-08-21,0.018925885140970176
2019-08-22,-0.1826979027398777
2019-08-23,0.09826616307487444
2019-08-26,0.41758849557522226
2019-08-27,0.1330913490623159
2019-08-28,0.052499999999998784
2019-08-29,0.1716163583252261
2019-08-30,-0.19740259740260035
2019-09-02,-0.25480769230769235
2019-09-03,-0.09386869234943299
2019-09-04,0.0782795698924721
2019-09-05,-0.1057692307692363
2019-09-06,-0.026262626262626584
2019-09-09,0.0892857142857137
2019-09-10,0.03048442523002065
2019-09-11,-0.34654043945768725
2019-09-12,0.6677952329360796
2019-09-16,0.13298199385156018
2019-09-17,-0.030242484787943297
2019-09-18,0.0607526881720395
2019-09-19,0.2917529330572767
2019-09-20,-0.8958377128442296
2019-09-23,-0.062483191393992665
2019-09-24,0.2790977961432577
2019-09-25,-0.07459016393442314
2019-09-26,0.028944911297853662
2019-09-27,0.29919632606199703
2019-09-30,0.07045965429036441
2019-10-08,-0.4835992907801452
2019-10-09,0.04260818195244079
2019-10-10,-0.06588830222354225
2019-10-11,-0.08342175066312833
2019-10-14,-0.14271918327929928
2019-10-15,0.18276595744680982
2019-10-16,0.04383765208508077
2019-10-17,-0.1527622647993822
2019-10-18,0.6159003831417602
2019-10-21,0.1897116644823056
2019-10-22,0.100967741935482
2019-10-23,-0.03775928456092935
2019-10-24,0.07915476870359672
2019-10-25,-0.771604938271604
2019-10-28,-0.24100112485939434
2019-10-29,-0.08914956011730178
2019-10-30,-0.13520749665327644
2019-10-31,0.08872549019607914
2019-11-01,0.16604938271605105
2019-11-04,0.1549108992954853
2019-11-05,-0.13645735707591006
2019-11-06,0.17208672086720184
2019-11-07,-0.11063218390805032
2019-11-08,-0.13518518518518677
2019-11-11,0.2062200956937849
2019-11-12,0.20402189130711182
2019-11-13,0.1625538020086172
2019-11-14,0.12665782493369132
2019-11-15,0.17609427609427808
2019-11-18,-0.34653878231860324
2019-11-19,-0.0493827160493864
2019-11-20,-0.515196078431378
2019-11-21,0.2364253393665181
2019-11-22,0.06590909090908477
2019-11-25,0.10851336687382275
2019-11-26,-0.0652173913043458
2019-11-27,0.5125968992248171
2019-11-28,-0.5798319327731147
2019-11-29,-0.08348484848484017
2019-12-02,-0.1262336131978123
2019-12-03,0.0810904071773721
2019-12-04,-0.47093023255815336
2019-12-05,0.5565476190476268
2019-12-06,0.02666666666666302
2019-12-09,0.4812485964518257
2019-12-10,0.1834848701937687
2019-12-11,0.23128267298286345
2019-12-12,-0.3307557790774965
2019-12-13,0.013096323305983811
2019-12-16,-0.5274901526747178
2019-12-17,-0.3750335617424668
2019-12-18,0.36297962209911344
2019-12-19,-0.025443407914376846
2019-12-20,-0.053096323305981866
2019-12-23,0.19711674648163902
2019-12-24,0.23047019622362042
2019-12-25,-0.6040025548222323
2019-12-26,0.1029097133076605
2019-12-27,0.21241379310344632
2019-12-30,-0.07271241830065135
2019-12-31,0.05458047945205681
2020-01-02,0.3442473019937813
2020-01-03,0.13830029619502238
2020-01-06,-0.2510654784967087
2020-01-07,0.03443328550932538
2020-01-08,-0.27187500000000164
2020-01-09,-0.23376077359680564
2020-01-10,-0.3663704716336179
2020-01-13,0.12309612983770504
2020-01-14,0.024390243902439226
2020-01-15,0.5667553191489338
2020-01-16,0.2401628222523758
2020-01-17,0.15497076023391027
2020-01-20,-0.044444444444440234
2020-01-21,0.08823529411764737
2020-01-22,-0.5258769407705584
2020-01-23,0.06293706293706364
2020-02-03,0.5755555555555687
2020-02-04,0.09649122807016978
2020-02-05,0.031764705882353875
2020-02-06,0.37876447876448116
2020-02-07,-0.22202797202797303
2020-02-10,-0.7090243902439123
2020-02-11,-0.14160401002506143
2020-02-12,-0.2381102362204749
2020-02-13,-0.471428571428572
2020-02-14,0.022727272727272478
2020-02-17,0.28426248548199895
2020-02-18,-0.05271330500163637
2020-02-19,0.1301584289915562
2020-02-20,0.14285714285714302
2020-02-21,0.14801864801864897
2020-02-24,-0.09523809523809207
2020-02-25,0.24898887765420025
2020-02-26,-0.02214920287209121
2020-02-27,-0.04081632653061022
2020-02-28,0.012378426171528678
2020-03-02,0.2577319587628782
2020-03-03,-0.07739229889439908
2020-03-04,0.02536818567352774
2020-03-05,0.09720730397421971
2020-03-06,-0.1836448188119692
2020-03-09,-0.38887949974648656
2020-03-10,-0.1775440767089368
2020-03-11,-0.02579349136199114
2020-03-12,0.0895056790913438
2020-03-13,0.24692011185851553
2020-03-16,0.08913073426091458
2020-03-17,0.06868586560741347
2020-03-18,0.09234449760765291
2020-03-19,0.19443947791882843
2020-03-20,-0.2709330535702582
2020-03-23,0.11500950745261762
2020-03-24,0.07590404582885718
2020-03-25,-0.042602495543671924
2020-03-26,-0.4261402674277236
2020-03-27,0.04047642581793154
2020-03-30,-0.12023679521811419
2020-03-31,-0.10693202900994903
2020-04-01,-0.07559644241017544
2020-04-02,0.34809293849041084
2020-04-03,0.4201929514298801
2020-04-07,0.05771056527073678
2020-04-08,0.1156821093342374
2020-04-09,-0.0006562809013716045
2020-04-10,-0.28976133298899553
2020-04-13,-0.4167346332646106
2020-04-14,0.10491814460206488
2020-04-15,0.08261750119107902
2020-04-16,0.11825531114871293
2020-04-17,0.20218748387762403
2020-04-20,-0.05334717176958958
2020-04-21,-0.20069267225665224
2020-04-22,-0.2358108510511594
2020-04-23,-0.07543792729086528
2020-04-24,-0.269953051643193
2020-04-27,0.026265590608953338
2020-04-28,-0.011706868501095966
2020-04-29,0.13668479424484528
2020-04-30,-0.12578034682081096
2020-05-06,0.2575757575757592
2020-05-07,0.10086206896551392
2020-05-08,0.11327508797475778
2020-05-11,0.006942148760338801
2020-05-12,0.08923076923077135
2020-05-13,-0.019480519480520334
2020-05-14,-0.010185185185183212
2020-05-15,0.06403180820129499
2020-05-18,-0.08729729729730115
2020-05-19,0.10878341516639195
2020-05-20,-0.22932330827067732
2020-05-21,-0.05387731481481541
2020-05-22,-0.0721618895021035
2020-05-25,0.3295553618134265
2020-05-26,-0.1283286498059657
2020-05-27,0.15127222028581216
2020-05-28,0.025729166666665772
2020-05-29,-0.062184135354870745
2020-06-01,-0.5965437788018448
2020-06-02,0.15448113207547004
2020-06-03,0.016056478820447945
2020-06-04,0.013333333333333957
2020-06-05,0.02601667087648335
2020-06-08,0.304670329670331
2020-06-09,-0.08474919093851269
2020-06-10,-0.018957771787967148
2020-06-11,0.15384615384615455
2020-06-12,0.08637071651090575
2020-06-15,0.00961538461538746
2020-06-16,-0.16902377494075085
2020-06-17,0.018783068783075396
2020-06-18,-0.3373323923782633
2020-06-19,-0.20440074906367192
2020-06-22,-0.0789473684210591
2020-06-23,0.12103487064116718
2020-06-24,0.22603485838779663
2020-06-29,0.1715814766273426
2020-06-30,0.15811560850142273
2020-07-01,0.13847117794486982
2020-07-02,0.1296950240770473
2020-07-03,-0.4189675870348158
2020-07-06,0.12440476190476908
2020-07-07,0.15649113307161128
2020-07-08,-0.07875457875458344
2020-07-09,-0.07171183079973309
2020-07-10,0.17414965986394662
2020-07-13,0.2817307692307686
2020-07-14,-0.15474622239441957
2020-07-15,0.046441653584513354
2020-07-16,-0.06914686404363261
2020-07-17,0.3198686371100192
2020-07-20,-0.6152834008097194
2020-07-21,0.13485554520037163
2020-07-22,0.21396558623449086
2020-07-23,0.3477919713756644
2020-07-24,-0.38643178410794804
2020-07-27,0.323013415892674
2020-07-28,-0.24829277676252726
2020-07-29,-0.2648918856079967
2020-07-30,-0.5590690177869035
2020-07-31,0.04905992949471043
2020-08-03,-0.07404227473056083
2020-08-04,0.3232564525763472
2020-08-05,-0.03431799201862588
2020-08-06,0.37237441687963135
2020-08-07,0.06399568765078979
2020-08-10,-0.044379414932959375
2020-08-11,-0.2570851278097497
2020-08-12,0.29612864513362636
2020-08-13,-0.05842520819358035
2020-08-14,-0.07973181851849875
2020-08-17,0.016460905349794025
2020-08-18,-0.031819292872650055
2020-08-19,-0.4991246498599442
2020-08-20,-0.1922902967679082
2020-08-21,0.47133458646616716
2020-08-24,0.047999999999999786
2020-08-25,0.17216232522756586
2020-08-26,0.30240872210953507
2020-08-27,0.20220091595004938
2020-08-28,-0.48412698412698546
2020-08-31,-0.06760784313725415
2020-09-01,-0.17020356234096784
2020-09-02,-0.0449380292060392
2020-09-03,-0.015704824976347544
2020-09-04,-0.025525525525525027
2020-09-07,0.015931372549018278
2020-09-08,-0.014157441574415258
2020-09-09,0.12355871886121092
2020-09-10,-0.08928571428571369
2020-09-11,-0.007479804527775094
2020-09-14,0.03201655155989747
2020-09-15,0.24678211349042523
2020-09-16,-0.23111111111111055
2020-09-17,-0.08149350649350574
2020-09-18,0.1569369539849237
2020-09-21,-0.012340080971662545
2020-09-22,-0.2086614173228356
2020-09-23,0.2012750455373402
2020-09-24,0.1286739576213237
2020-09-25,-0.14245014245014276
2020-09-28,-0.10399999999999825
2020-09-29,-0.10536676336510332
2020-09-30,-0.09016393442622986
2020-10-09,-0.04580682475419262
2020-10-12,0.1957671957671966
2020-10-13,0.12101886792452668
2020-10-14,0.17670031242489737
2020-10-15,-0.09734513274336336
2020-10-16,0.020965309200604753
2020-10-19,-0.181099062287181
2020-10-20,-0.06986097318768392
2020-10-21,-0.04289243206826959
2020-10-22,0.12496944213562809
2020-10-23,0.00980392156862668
2020-10-26,-0.010486532524218252
2020-10-27,0.019501064800728607
2020-10-28,0.016811314689810602
2020-10-29,-0.0919517947723802
2020-10-30,0.15625000000000058
2020-11-02,0.09691950014530405
2020-11-03,0.006814724672953668
2020-11-04,-0.05907384230287715
2020-11-05,0.03623759773966492
2020-11-06,-0.13312861271676535
2020-11-09,-0.1061230722247672
2020-11-10,-0.014013561511138991
2020-11-11,0.19784557741201567
2020-11-12,0.072045931596496
2020-11-13,-0.21259507149376078
2020-11-16,0.1700051361068302
2020-11-17,0.0007303534910895783
2020-11-18,-0.1690443319527517
2020-11-19,0.11229395604395329
2020-11-20,0.23271692745377018
2020-11-23,-0.0028261893546846495
2020-11-24,0.019047619047619306
2020-11-25,-0.00431789006885509
2020-11-26,-0.2843288177339888
2020-11-27,-0.03194380821499698
2020-11-30,-0.19422815295105278
2020-12-01,-0.026488095238096636
2020-12-02,0.09967587590677623
2020-12-03,0.11000652857736329
2020-12-04,0.08686007417420422
2020-12-07,0.32960893854748696
2020-12-08,0.12257420091324285
2020-12-09,0.021082467269536068
2020-12-10,0.079374971148964
2020-12-11,-0.0587399475237325
2020-12-14,-0.13727927032325815
2020-12-15,-0.06108026059074475
2020-12-16,-0.11355026410226278
2020-12-17,-0.07765809999669554
2020-12-18,-0.05297888371261618
2020-12-21,-0.15834936528118937
2020-12-22,-0.011725421803978536
2020-12-23,0.0105909639881511
2020-12-24,0.08988482976906499
2020-12-25,-0.04465985604829684
2020-12-28,0.11580131208997217
2020-12-29,-0.07078332688088756
2020-12-30,-0.12144385026737921
2020-12-31,-0.14132602193419752
2021-01-04,0.1309464508094682
2021-01-05,-0.1961787365177184
2021-01-06,0.08726480836236915
2021-01-07,0.1661693662972426
2021-01-08,0.1051797877395838
2021-01-11,-0.03669123669123766
2021-01-12,0.11775976418570167
2021-01-13,-0.030495495495496128
2021-01-14,0.05586967353393769
2021-01-15,-0.10734202530671834
2021-01-18,-0.040460814797099384
2021-01-19,-0.027439613526569435
2021-01-20,-0.11350924384099605
2021-01-21,-0.11628184333556038
2021-01-22,0.0918167712338937
2021-01-25,0.004424778761061002
2021-01-26,0.2066072489601915
2021-01-27,0.1136776365327532
2021-01-28,-0.04782285997031217
2021-01-29,-0.0871845566630983
2021-02-01,-0.02150537634408355
2021-02-02,-0.14438502673797052
2021-02-03,0.0008216082982437159
2021-02-04,0.23835303088067233
2021-02-05,0.11696982565409222
2021-02-08,-0.09903033794163026
2021-02-09,-0.10152284263959237
2021-02-10,0.03405351710436552
2021-02-18,-0.22371703492516218
2021-02-19,-0.04008249884664333
2021-02-22,0.37196428571428863
2021-02-23,0.13348631295922864
2021-02-24,-0.008574571271435377
2021-02-25,0.2614993468930784
2021-02-26,0.056296449215524985
2021-03-01,-0.20460582895365687
2021-03-02,0.0031802996484165263
2021-03-03,0.06470556101824407
2021-03-04,-0.3312942029861582
2021-03-05,0.025993989828939204
2021-03-08,-0.02315410342166237
2021-03-09,0.028440045060850183
2021-03-10,-0.16361379495437575
2021-03-11,0.3540672607071012
2021-03-12,-0.19147018030513005
2021-03-15,-0.04213829604533792
2021-03-16,-0.09046553545900887
2021-03-17,0.21158119144847665
2021-03-18,-0.43705018239179827
2021-03-19,0.13442886356996625
2021-03-22,-0.04070194064105283
2021-03-23,-0.06431324812335165
2021-03-24,-0.22323118392628538
2021-03-25,0.2125603864734298
2021-03-26,0.14740071036487173
2021-03-29,-0.026542688081148708
2021-03-30,0.1189727463312363
2021-03-31,-0.04879360329187275
2021-04-01,0.05426356589147296
2021-04-02,-0.41215170278638014
2021-04-06,0.304761904761904
2021-04-07,-0.07408928894576236
2021-04-08,0.14552452468860222
2021-04-09,0.059951049351883036
2021-04-12,0.290356457644596
2021-04-13,-0.35439089232863963
2021-04-14,0.030501234488142227
2021-04-15,0.02703056051708606
2021-04-16,-0.27575307678181704
2021-04-19,-0.11287399677033921
2021-04-20,0.1063577660346444
2021-04-21,0.09541226672959333
2021-04-22,-0.011918642311182504
2021-04-23,0.16600274725274558
2021-04-26,0.09045871559633327
2021-04-27,0.10163507989594758
2021-04-28,-0.10350637251986888
2021-04-29,-0.03633969716918869
2021-04-30,0.10619145199063408
2021-05-06,0.12236162361623518
2021-05-07,-0.0694749694749671
2021-05-10,0.400486660951131
2021-05-11,0.3489092188599585
2021-05-12,0.01925879220961174
2021-05-13,-0.03679430137720496
2021-05-14,0.17558883768561062
2021-05-17,-0.3674602716395077
2021-05-18,-0.48494058055718015
2021-05-19,-0.06683962846906354
2021-05-20,-0.17253889207833858
2021-05-21,-0.30587109325969564
2021-05-24,-0.015065543245664987
2021-05-25,0.1176914696866058
2021-05-26,-0.23432872407543653
2021-05-27,-0.026829168168073077
2021-05-28,0.16894032172218984
2021-05-31,-0.059066023825286654
2021-06-01,0.016286555338523755
2021-06-02,0.24327028353532018
2021-06-03,0.01813854990757282
2021-06-04,-0.07638551485116395
2021-06-07,0.03974640233471002
2021-06-08,0.040692204746319335
2021-06-09,-0.17640059451704307
2021-06-10,0.07431020674782624
2021-06-11,-0.013502074380011463
2021-06-15,-0.03964068825910914
2021-06-16,-0.05769348220779842
2021-06-17,0.14385781782222018
2021-06-18,-0.05662270219232354
2021-06-21,-0.004576659038901469
2021-06-22,0.06768162393162351
2021-06-23,-0.04611583077569559
2021-06-24,0.061716791979948026
2021-06-25,0.051488197057819915
2021-06-28,0.06596491228070138
2021-06-29,-0.11330409356725074
2021-06-30,0.06925207756232953
2021-07-01,-0.1307762750070434
2021-07-02,-0.03790375741595384
2021-07-05,-0.03208333333333307
2021-07-06,0.17422058330539603
2021-07-07,0.03592814371257118
2021-07-08,-0.08602113759961644
2021-07-09,-0.027897337796907132
2021-07-12,0.11185344827586303
2021-07-13,-0.051075970985954636
2021-07-14,0.032607681832599614
2021-07-15,0.20890139705758284
2021-07-16,0.10562091503267876
2021-07-19,0.015757311217805492
2021-07-20,-0.02175071662129263
2021-07-21,-0.09848974259586335
2021-07-22,-0.11467213285042471
2021-07-23,-0.05818770226537276
2021-07-26,-0.06487181877562348
2021-07-27,0.226759568659952
2021-07-28,0.009645768416385085
2021-07-29,-0.010973722477080713
2021-07-30,0.001780548264186682
2021-08-02,-0.1462384294706006
2021-08-03,-0.3816362601859393
2021-08-04,0.09387763092313593
2021-08-05,0.15164073478762952
2021-08-06,-0.001461326724437717
2021-08-09,0.07719254114435388
2021-08-10,0.25513060694441353
2021-08-11,-0.14209196622887404
2021-08-12,-0.02503646653830413
2021-08-13,0.0045351473922910475
2021-08-16,0.02295610727206656
2021-08-17,-0.22585833743236516
2021-08-18,0.15611372481595692
2021-08-19,-0.17255264984957225
2021-08-20,-0.01456310679611643
2021-08-23,0.09323384526224548
2021-08-24,0.14828086016395403
2021-08-25,-0.10986295579796256
2021-08-26,0.1170241498626633
2021-08-27,0.005791176971554585
2021-08-30,-0.17520380138628883
2021-08-31,0.05891975005725166
2021-09-01,-0.022773330122995344
2021-09-02,-0.17551682640649827
2021-09-03,0.2847282139775684
2021-09-06,0.11404938318394794
2021-09-07,-0.1327548284070026
2021-09-08,0.21539902734592997
2021-09-09,0.20295502371865848
2021-09-10,-0.4621264969189637
2021-09-13,0.13342010608668597
2021-09-14,0.11272551721989844
2021-09-15,-0.2646600321229487
2021-09-16,-0.11527848444446137
2021-09-17,0.4031123615262877
2021-09-22,-0.21603027175782263
2021-09-23,0.060468768877612954
2021-09-24,0.1458358404822889
2021-09-27,0.14712510191739964
2021-09-28,-0.2838877554548911
2021-09-29,-0.019117299976400152
2021-09-30,-0.22240403095943034
2021-10-08,-0.009938470587892233
2021-10-11,-0.16571752169474216
2021-10-12,0.0874297780167194
2021-10-13,0.3710189519164679
2021-10-14,0.1151187826810692
2021-10-15,-0.11701031448574166
2021-10-18,0.08885636958711043
2021-10-19,0.088983284299144
2021-10-20,-0.5126034063260343
2021-10-21,0.14861931060750325
2021-10-22,0.16939843641047192
2021-10-25,-0.03188629128733279
2021-10-26,-0.23294099700529236
2021-10-27,0.256676986584107
2021-10-28,-0.2640295730020624
2021-10-29,-0.1356461086637301
2021-11-01,-0.04143565800992206
2021-11-02,0.24457445881518225
2021-11-03,-0.018793735083833935
2021-11-04,0.07624595898787498
2021-11-05,-0.021143250688705033
2021-11-08,0.0521739130434785
2021-11-09,-0.302758765755708
2021-11-10,-0.05256715954624984
2021-11-11,0.13554189128879318
2021-11-12,0.0628099173553718
2021-11-15,0.056338028169013656
2021-11-16,0.19118165784832547
2021-11-17,-0.017265777488614582
2021-11-18,-0.28579003181336105
2021-11-19,-0.024213075060533072
2021-11-22,-0.19529584454618445
2021-11-23,-0.01816934266502163
2021-11-24,0.07435278630978531
2021-11-25,0.1979187601884721
2021-11-26,-0.028711716025817173
2021-11-29,0.2683695810830533
2021-11-30,0.026874699807877774
2021-12-01,-0.05720275976922586
2021-12-02,0.056928337793637554
2021-12-03,0.0824088205703791
2021-12-06,-0.20101081005194554
2021-12-07,0.004907080119966014
2021-12-08,0.008032489814802202
2021-12-09,-0.13002699055330666
2021-12-10,0.06922509671096877
2021-12-13,0.12917284262909845
2021-12-14,-0.12141967992036531
2021-12-15,-0.03672384612816502
2021-12-16,0.06482199342301222
2021-12-17,-0.25530253278840465
2021-12-20,0.004315453531297295
2021-12-21,0.20871288098649388
2021-12-22,0.0071005917346503925
2021-12-23,-0.05235926235563003
2021-12-24,0.2724470651299923
2021-12-27,-0.22855591748099935
2021-12-28,-0.20551141506587509
2021-12-29,-0.029986388021457436
2021-12-30,0.09375572239516497
2021-12-31,-0.2135980194388405
2022-01-04,0.07083333333333237
2022-01-05,0.06743219762786025
2022-01-06,0.3308949790507581
2022-01-07,-0.04345621570030872
2022-01-10,0.09774436090225633
2022-01-11,0.25055031446540993
2022-01-12,0.08320532514080911
2022-01-13,-0.257376784587619
2022-01-14,0.2173959218351726
2022-01-17,0.012755102040814072
2022-01-18,-0.18998146475927982
2022-01-19,-0.0320568610385841
2022-01-20,-0.060134580147849274
2022-01-21,-0.29222205198917206
2022-01-24,0.02548019207683204
2022-01-25,0.10325315218244481
2022-01-26,-0.06328649292545921
2022-01-27,0.17129890630285316
2022-01-28,0.021038251366119545
2022-02-07,0.0565015479876162
2022-02-08,-0.15933482240139452
2022-02-09,0.15883541745610635
2022-02-10,0.08651698601152086
2022-02-11,0.38134920634920816
2022-02-14,-0.033634010510628386
2022-02-15,0.1657843560933451
2022-02-16,-0.16218487394957887
2022-02-17,-0.28575165678409603
2022-02-18,-0.5953009408891783
2022-02-21,-0.20659463487332388
2022-02-22,-0.11760366987309082
2022-02-23,-0.014506855373728693
2022-02-24,-0.0014823857690965392
2022-02-25,0.5521870286576175
2022-02-28,0.09298038775357477
2022-03-01,0.08171968449336939
2022-03-02,0.14813134925480814
2022-03-03,0.08085106382978723
2022-03-04,-0.4977385338584671
2022-03-07,0.1290141477655513
2022-03-08,0.10357776282796186
2022-03-09,-0.10604279453467444
2022-03-10,0.20902454252917751
2022-03-11,0.2189550355820296
2022-03-14,-0.0034690243752694416
2022-03-15,-0.3131616481072993
2022-03-16,0.04046067549826959
2022-03-17,-0.39272239607969694
2022-03-18,-0.05504741587189677
2022-03-21,-0.2100890817438961
2022-03-22,0.13186379564802786
2022-03-23,-0.1495057589203506
2022-03-24,0.19129220049880388
2022-03-25,0.3066250317953922
2022-03-28,0.07583088408280889
2022-03-29,0.07332736344706964
2022-03-30,0.3017778161548143
2022-03-31,0.08127886190972682
2022-04-01,-0.3987966326673175
2022-04-06,0.17968179007140253
2022-04-07,-0.0218462197472692
2022-04-08,-0.3328949387343557
2022-04-11,-0.14314385696641724
2022-04-12,0.16872697322459423
2022-04-13,-0.22055940237758587
2022-04-14,-0.07251593983228231
2022-04-15,0.2055398256141178
2022-04-18,0.11662189224832627
2022-04-19,-0.08273968759706254
2022-04-20,0.09868913281882637
2022-04-21,0.05335135382782892
2022-04-22,-0.05327033991900876
2022-04-25,0.2535804351650939
2022-04-26,0.10497142463678258
2022-04-27,-0.044566828696520636
2022-04-28,0.09438247156716648
2022-04-29,0.018082422203532202
2022-05-05,-0.5173842161298916
2022-05-06,-0.13601357525127228
2022-05-09,0.07808013242795594
2022-05-10,0.0228564538909386
2022-05-11,-0.04679788903152179
2022-05-12,0.19821926562863243
2022-05-13,0.024360547428032543
2022-05-16,-0.01376046516711223
2022-05-17,-0.3354699962417038
2022-05-18,0.003118099536531891
2022-05-19,0.052314922405555395
2022-05-20,0.09565162110616657
2022-05-23,-0.004387678045987555
2022-05-24,0.2290173937261082
2022-05-25,-0.02193474900333584
2022-05-26,-0.13749381931200094
2022-05-27,-0.11553109646951441
2022-05-30,0.038047808764941134
2022-05-31,-0.022984626921636088
2022-06-01,0.13350466400152264
2022-06-02,0.06294704072934923
2022-06-06,0.17647185494638146
2022-06-07,-0.1606382978723409
2022-06-08,0.05254044201412882
2022-06-09,0.051734987414597075
2022-06-10,0.060766907659924256
2022-06-13,-0.21013084112149416
2022-06-14,0.32685451408855665
2022-06-15,-0.05941874889243695
2022-06-16,-0.3167687649626776
2022-06-17,0.026103464641669558
2022-06-20,0.16533333333333172
2022-06-21,-0.22887444406431778
2022-06-22,0.11139601139601221
2022-06-23,0.29274572617586
2022-06-24,-0.08906481939633729
2022-06-27,-0.07185185185185161
2022-06-28,-0.15337950800095512
2022-06-29,-0.08094519859225555
2022-06-30,-0.1913173015535205
2022-07-01,0.06706299541093046
2022-07-04,0.11899698741803885
2022-07-05,0.07473338802296851
2022-07-06,-0.05715646582519777
2022-07-07,0.08108108108108078
2022-07-08,0.010843731431966284
2022-07-11,-0.12486871280195941
2022-07-12,0.19130434782609057
2022-07-13,0.0708133971291859
2022-07-14,0.040178571428570765
2022-07-15,-0.0482290718342224
2022-07-18,-0.01039236479321276
2022-07-19,0.021621621621620055
2022-07-20,-0.05834246075209763
2022-07-21,0.03931933652122079
2022-07-22,-0.02200818444954354
2022-07-25,0.05887899423782045
2022-07-26,-0.2863275039745638
2022-07-27,-0.011482549917983614
2022-07-28,-0.23791374953394906
2022-07-29,0.2642954856361112
2022-08-01,0.028535193405200065
2022-08-02,0.2692513368983971
2022-08-03,0.11748681388744114
2022-08-04,0.11980580297411766
2022-08-05,-0.3338294353886119
2022-08-08,-0.061600188812839
2022-08-09,-0.21600427243638026
2022-08-10,0.04904675522296402
2022-08-11,0.2551562279207583
2022-08-12,0.1041603426831057
2022-08-15,0.0229146974731071
2022-08-16,0.09334287586193915
2022-08-17,-0.1554807825262004
2022-08-18,-0.3280846508491808
2022-08-19,-0.04303271529041755
2022-08-22,-0.05467006950808907
2022-08-23,0.05585179108559009
2022-08-24,-0.11395504864139491
2022-08-25,0.0792803970223345
2022-08-26,-0.012265512265512125
2022-08-29,-0.06515837104072503
2022-08-30,0.060948361469711256
2022-08-31,0.35813826891671285
2022-09-01,0.022307815759908443
2022-09-02,0.10078168620882283
2022-09-05,0.13953619909502532
2022-09-06,-0.17310281517747722
2022-09-07,-0.37444708572804286
2022-09-08,-0.026413387607417058
2022-09-09,-0.06409405518157033
2022-09-13,-0.091346153846155
2022-09-14,0.11523493118177187
2022-09-15,0.25582159161822293
2022-09-16,0.018291347207009086
2022-09-19,0.006597985877995425
2022-09-20,0.03905876731963533
2022-09-21,-0.1484112632394718
2022-09-22,-0.04241412877207675
2022-09-23,-0.0023358741086779884
2022-09-26,0.01226993865030948
2022-09-27,0.03946687370600424
2022-09-28,0.10759493670886136
2022-09-29,0.01867129830655577
2022-09-30,0.03322867608581897
2022-10-10,0.09493670886075715
2022-10-11,0.0022880539499041015
2022-10-12,0.03389830508474608
2022-10-13,-0.08308241329318831
2022-10-14,0.020699040252112375
2022-10-17,-0.08412589804994919
2022-10-18,-0.08194491669500172
2022-10-19,0.022919876733437518
2022-10-20,-0.12330336682530765
2022-10-21,-0.08383401848143193
2022-10-24,-0.03730087703597507
2022-10-25,0.1268507402961186
2022-10-26,-0.15872900984366312
2022-10-27,0.22317547471974158
2022-10-28,0.010840781198279359
2022-10-31,0.17717499773201512
2022-11-01,-0.10969387755101914
2022-11-02,0.19507852988883345
2022-11-03,-0.12346872985170976
2022-11-04,0.23590225563910044
2022-11-07,-0.24521229469092898
2022-11-08,0.047161172161169954
2022-11-09,-0.1368835488578887
2022-11-10,0.11974025974026137
2022-11-11,-0.2921732522796383
2022-11-14,0.06511559847819674
2022-11-15,0.012687312687316633
2022-11-16,-0.0039032006245135753
2022-11-17,0.06321428571428495
2022-11-18,0.07926116436754864
2022-11-21,-0.05997371015445277
2022-11-22,-0.061126603457894904
2022-11-23,0.11813186813186874
2022-11-24,-0.32911676646706706
2022-11-25,0.16463166463165912
2022-11-28,0.21196612002162502
2022-11-29,0.019956279528947848
2022-11-30,-0.05874811463046682
2022-12-01,0.19743071995544115
2022-12-02,-0.3215585527724203
2022-12-05,-0.24845477103541466
2022-12-06,0.07098850574712398
2022-12-07,0.011136057476426374
2022-12-08,0.0016487330787883399
2022-12-09,0.32896596017983476
2022-12-12,0.28449703449703145
2022-12-13,-0.022259286950203173
2022-12-14,-0.10172537079765669
2022-12-15,0.1712726467812436
2022-12-16,0.009023742091116782
2022-12-19,-0.22976915368219458
2022-12-20,-0.029996032198731714
2022-12-21,0.095918624532892
2022-12-22,-0.30058407284420485
2022-12-23,-0.37510561343614823
2022-12-26,0.028722002635044513
2022-12-27,0.21311607864261004
2022-12-28,0.07714682060232048
2022-12-29,0.11227936150536776
2022-12-30,0.19120264429188844
2023-01-03,0.14094640991192758
2023-01-04,-0.34787421240847227
2023-01-05,-0.1411158376963354
2023-01-06,0.01503385886474913
2023-01-09,0.01932367149758523
2023-01-10,-0.15286999357463987
2023-01-11,0.15050770578836303
2023-01-12,-0.009943181818181025
2023-01-13,0.09694515767989827
2023-01-16,0.0491803278688535
2023-01-17,-0.055027173913043036
2023-01-18,0.08207299858842264
2023-01-19,0.13703208556149354
2023-01-20,-0.21132052964332668
2023-01-30,0.45081967213114726
2023-01-31,0.1834490740740724
2023-02-01,-0.11425690663439997
2023-02-02,-0.05908714317993178
2023-02-03,0.1468419255718701
2023-02-06,-0.8255813953488369
2023-02-07,-0.05436964057653762
2023-02-08,-0.08559053806429964
2023-02-09,-0.18328892272554434
2023-02-10,-0.0121245828698575
2023-02-13,0.28784554629223086
2023-02-14,-0.07199201519688278
2023-02-15,0.11317674496084827
2023-02-16,0.22380599777860338
2023-02-17,-0.12258064516128853
2023-02-20,0.03773584905660523
2023-02-21,-0.03342670401493836
2023-02-22,0.008728448275865497
2023-02-23,-0.1077976817702857
2023-02-24,0.12903225806451413
2023-02-27,-0.06250000000000018
2023-02-28,-0.05595238095238364
2023-03-01,-0.005916262135921016
2023-03-02,0.026923076923075537
2023-03-03,-0.17931688804554122
2023-03-06,0.338362068965519
2023-03-07,0.23175675675675972
2023-03-08,0.03161357618550521
2023-03-09,0.122405372405374
2023-03-10,0.30533220482437984
2023-03-13,-0.24480616834440044
2023-03-14,-0.04189731900575378
2023-03-15,-0.09879357841739783
2023-03-16,0.21389856755710213
2023-03-17,-0.15364375166533745
2023-03-20,-0.0771388499298745
2023-03-21,-0.08684011407950648
2023-03-22,0.07757176688037515
2023-03-23,-0.5387480475789972
2023-03-24,-0.01728785747773088
2023-03-27,0.0012111544369603766
2023-03-28,0.17287553091463387
2023-03-29,0.015402456067319166
2023-03-30,0.1645320197044352
2023-03-31,0.06720368239355573
2023-04-03,0.05061892130857851
2023-04-04,-0.1570853307766085
2023-04-06,-0.011981909179216318
2023-04-07,0.022935127521761106
2023-04-10,-0.06622116398552683
2023-04-11,0.1261394185046643
2023-04-12,-0.008778872530720596
2023-04-13,-0.061772415520884055
2023-04-14,0.19329863871200487
2023-04-17,0.11461688591066141
2023-04-18,-0.22521987827478185
2023-04-19,0.07085170166237635
2023-04-20,0.3542891019692764
2023-04-21,0.05596285434994905
2023-04-24,-0.008545896234600503
2023-04-25,0.15263252470799807
2023-04-26,-0.011225864391559915
2023-04-27,-0.3952456566411369
2023-04-28,-0.3360215053763425
2023-05-04,-0.192254607453113
2023-05-05,-0.06268902188313787
2023-05-08,0.06384691281092485
2023-05-09,0.06363159680454136
2023-05-10,0.013372805226622889
2023-05-11,0.06239833430932311
2023-05-12,-0.06646311066799492
2023-05-15,-0.012785351294667402
2023-05-16,-0.05402074560953116
2023-05-17,0.16271304694508054
2023-05-18,0.016804276489892297
2023-05-19,0.2067350704540357
2023-05-22,-0.03557312252964465
2023-05-23,0.15934065934065955
2023-05-24,-0.0345298749421022
2023-05-25,0.0013656501354887204
2023-05-26,-0.15154488587580772
2023-05-29,-0.24585921325051677
2023-05-30,-0.07854955989284478
2023-05-31,-0.09438897330149906
2023-06-01,0.049163576242579665
2023-06-02,0.19226893420441976
2023-06-05,0.36959406713505005
2023-06-06,-0.0870367264799584
2023-06-07,0.09507733375206245
2023-06-08,-0.07056298615063467
2023-06-09,-0.42528419618202895
2023-06-12,-0.3770896579639741
2023-06-13,0.15917602996254454
2023-06-14,0.15660801963993407
2023-06-15,0.1244047619047618
2023-06-16,0.3792569659442715
2023-06-19,0.42250112792748423
2023-06-20,-0.1710045662100435
2023-06-21,-0.27698371448371406
2023-06-26,-0.15904761904761922
2023-06-27,-0.17834153729647922
2023-06-28,-0.48809628283081563
2023-06-29,0.08246289954338022
2023-06-30,0.14621951794726856
2023-07-03,-0.0016666666666661084
2023-07-04,-0.03431849115302195
2023-07-05,0.3166481687014413
2023-07-06,-0.00044138418079430614
2023-07-07,-0.024393146120900173
2023-07-10,0.14722222222222286
2023-07-11,0.22097745413807424
2023-07-12,-0.04572192513368851
2023-07-13,0.12437117870134135
2023-07-14,0.022170686456404482
2023-07-17,-0.0019097222222245747
2023-07-18,-0.26763359933436615
2023-07-19,0.008729554963864766
2023-07-20,-0.0020547945205478396
2023-07-21,-0.08967407858665993
2023-07-24,0.04296875000000183
2023-07-25,0.2084389806633375
2023-07-26,0.14841330217899282
2023-07-27,-0.14483568075117484
2023-07-28,0.09984858317110173
2023-07-31,-0.14899553571428611
2023-08-01,0.04750337381916246
2023-08-02,-0.26370851370851445
2023-08-03,-0.014444622279128641
2023-08-04,-0.1470605943319147
2023-08-07,0.04551820728291196
2023-08-08,-0.27646695094236506
2023-08-09,0.1169992319131905
2023-08-10,0.022371984278302996
2023-08-11,0.22169790779767895
2023-08-14,-0.009469255442122345
2023-08-15,0.14019730660820495
2023-08-16,0.0632175702548309
2023-08-17,0.03545077756061895
2023-08-18,-0.12221914052975999
2023-08-21,0.2673233264385513
2023-08-22,0.09604105571847557
2023-08-23,-0.0798873622159401
2023-08-24,0.006589239647328712
2023-08-25,-0.07682397003745345
2023-08-28,-0.36221386649055687
2023-08-29,-0.1702550206021014
2023-08-30,0.2935402918486859
2023-08-31,0.023900559608569325
2023-09-01,0.23899914310197068
2023-09-04,0.10114928051890788
2023-09-05,0.08227848101265828
2023-09-06,-0.41376298750188284
2023-09-07,-0.05826173880153611
2023-09-08,-0.22818998279662756
2023-09-11,-0.039025839025838824
2023-09-12,-0.00837988826815606
2023-09-13,0.1957930992065936
2023-09-14,-0.06415676264922474
2023-09-15,0.03273620741194405
2023-09-18,-0.10874403815580308
2023-09-19,0.015229203336647719
2023-09-20,-0.18043499089776838
2023-09-21,0.11902726902727007
2023-09-22,0.007337781114202253
2023-09-25,0.2614772224679347
2023-09-26,-0.040406362048356195
2023-09-27,0.04272959183673587
2023-09-28,-0.016090463843273492
2023-10-09,-0.08738923155655054
2023-10-10,0.026638023630505103
2023-10-11,0.07982039217559392
2023-10-12,0.04910714285714132
2023-10-13,-0.029701549021910113
2023-10-16,0.1443009545199324
2023-10-17,-0.39273002130144996
2023-10-18,-0.07751334519573044
2023-10-19,0.15745007680491546
2023-10-20,-0.00871080139373042
2023-10-23,0.0026907249129481114
2023-10-24,0.17859756990191802
2023-10-25,0.005826271186442817
2023-10-26,-0.2466840312562592
2023-10-27,-0.11525585844093454
2023-10-30,-0.11980394876774444
2023-10-31,0.1220717246698158
2023-11-01,0.04854511609679603
2023-11-02,0.11304347826086833
2023-11-03,0.18394815553339744
2023-11-06,0.035870936730156615
2023-11-07,0.05685379479493046
2023-11-08,-0.058297266680223836
2023-11-09,0.09374999999999949
2023-11-10,0.13874092009685085
2023-11-13,0.16628672475871897
2023-11-14,-0.12946234002932006
2023-11-15,-0.0009252036355053977
2023-11-16,-0.17240168539325734
2023-11-17,-0.37409988385597803
2023-11-20,-0.19776340183819047
2023-11-21,0.11933477452876873
2023-11-22,0.2836738985664727
2023-11-23,0.10978009006251764
2023-11-24,0.26565424144807426
2023-11-27,0.07078520352035007
2023-11-28,-0.08418267528741201
2023-11-29,-0.26127144567096716
2023-11-30,0.01401048421962903
2023-12-01,0.17566601893060824
2023-12-04,0.24557748538011925
2023-12-05,0.012239414161697906
2023-12-06,0.02355552505135183
2023-12-07,0.10553019903293934
2023-12-08,-0.3254815899444088
2023-12-11,-0.37482001291728034
2023-12-12,-0.10973592461505087
2023-12-13,0.004129119071647825
2023-12-14,-0.3874506971172311
2023-12-15,-0.051434713141689736
2023-12-18,0.07149025996346527
2023-12-19,0.03659664679633142
2023-12-20,-0.18444055944055843
2023-12-21,0.6112108329396972
2023-12-22,0.1343913861425774
2023-12-25,0.03516585787409551
2023-12-26,0.09364548494983391
2023-12-27,0.18000868558193267
2023-12-28,-0.5573945234288371
2023-12-29,-0.128041662925385
2024-01-02,-0.02156041569722485
2024-01-03,0.23619641228337054
2024-01-04,0.12118790934257717
2024-01-05,0.27359029968454274
2024-01-08,0.2542399132657005
2024-01-09,0.0676190476190486
2024-01-10,-0.26920677361854145
2024-01-11,-0.1958022904338215
2024-01-12,-0.09835695876288678
2024-01-15,-0.27859933762512346
2024-01-16,-0.03197604790419239
2024-01-17,-0.21109625668449103
2024-01-18,0.06881963946009743
2024-01-19,-0.16080736707980905
2024-01-22,0.3486837486837483
2024-01-23,-0.047283211355066954
2024-01-24,0.23724648055356828
2024-01-25,-0.060363172081146124
2024-01-26,0.20453932584269352
2024-01-29,-0.2471042471042478
2024-01-30,0.12300427917957757
2024-01-31,-0.17439322893627227
2024-02-01,0.22039687703318134
2024-02-02,-0.0545185185185154
2024-02-05,-0.12005536533838386
2024-02-06,0.007366091190792359
2024-02-07,0.17672929584906993
2024-02-08,-0.290777230432404
2024-02-19,0.14124579124579123
2024-02-20,0.23191505614544383
2024-02-21,-0.08983770287140955
2024-02-22,-0.0799942985651404
2024-02-23,0.04793274358491868
2024-02-26,-0.2085641825985164
2024-02-27,-0.18425804489555467
2024-02-28,0.13914543992783737
2024-02-29,0.020332453449384516
2024-03-01,0.12644474832811903
2024-03-04,0.12203600489386539
2024-03-05,0.11638682165774894
2024-03-06,-0.3316257447192623
2024-03-07,0.1670241560696581
2024-03-08,-0.07582938388625662
2024-03-11,0.06623992936762108
2024-03-12,-0.03522433048653281
2024-03-13,0.22930644406303535
2024-03-14,-0.21522768670309603
2024-03-15,0.1042654028436022
2024-03-18,-0.03635972923605811
2024-03-19,0.034520588020186135
2024-03-20,0.010471881060116674
2024-03-21,0.06222222222222216
2024-03-22,-0.04011509817196908
2024-03-25,-0.19251607676338073
2024-03-26,-0.04748441351312336
2024-03-27,0.01233766233766212
2024-03-28,-0.05240174672489082
2024-03-29,-0.06336405529954064
2024-04-01,0.07904341668028483
2024-04-02,0.04514499710076961
2024-04-03,-0.16027508829760667
2024-04-08,0.11023983423697147
2024-04-09,0.07343855190232398
2024-04-10,0.02824686985675608
2024-04-11,0.016538466878327454
2024-04-12,0.16599812174084805
2024-04-15,-0.003382641967525628
2024-04-16,-0.16785451001660148
2024-04-17,-0.0075914728422844455
2024-04-18,0.07230535422025142
2024-04-19,-0.04663212435233334
2024-04-22,-0.06945544554455381
2024-04-23,0.16775100688734915
2024-04-24,0.14324282228337043
2024-04-25,-0.12498805542284187
2024-04-26,0.02678571428571705
2024-04-29,-0.0023913043478285736
2024-04-30,0.051659853555545095
2024-05-06,-0.03182743501409212
2024-05-07,-0.022240181024727516
2024-05-08,-0.06584821428571597
2024-05-09,-0.047649346058676184
2024-05-10,-0.14951904578684228
2024-05-13,-0.30486090559337264
2024-05-14,0.1189153728405849
2024-05-15,0.028073489010989244
2024-05-16,0.09837398373983712
2024-05-17,0.10056100981767516
2024-05-20,0.2201834862385331
2024-05-21,-0.06033182503770663
2024-05-22,0.056674290176828866
2024-05-23,0.034627831715210625
2024-05-24,0.03797653958944042
2024-05-27,0.029288702928870508
2024-05-28,-0.059036898061287604
2024-05-29,0.1722634387608995
2024-05-30,-0.0012944983818778816
2024-05-31,-0.19820574162679389
2024-06-03,0.078118704478536
2024-06-04,0.1056366750958469
2024-06-05,-0.3635183382018824
2024-06-06,-0.14074074074074117
2024-06-07,0.10784210526315884
2024-06-11,-0.14355198572065886
2024-06-12,-0.18602285395763643
2024-06-13,0.2316940221670416
2024-06-14,-0.0008157937673344412
2024-06-17,0.10399999999999876
2024-06-18,-0.033119490950816385
2024-06-19,0.15707364341085317
2024-06-20,-0.18114702634826518
2024-06-21,0.12488986784140826
2024-06-24,-0.07619047619047559
2024-06-25,-0.0005033725963969476
2024-06-26,-0.02790697674418635
2024-06-27,0.09502262443438753
2024-06-28,-0.029999999999998868
2024-07-01,-0.146358543417367
2024-07-02,0.14239314018448723
2024-07-03,0.02083333333333347
2024-07-04,-0.0561224489795899
2024-07-05,0.034054054054055954
2024-07-08,0.1892156862745088
2024-07-09,-0.11589492909325147
2024-07-10,0.0645938023450579
2024-07-11,0.06538170823885038
2024-07-12,-0.23295313662286482
2024-07-15,-0.16163873370577295
2024-07-16,0.03709639126305704
2024-07-17,-0.20343955803863956
2024-07-18,-0.002217005738132491
2024-07-19,0.2488291524988794
2024-07-22,0.12765180560120065
2024-07-23,0.02516018127832486
2024-07-24,0.09316770186335355
2024-07-25,0.024804880236835233
2024-07-26,0.004144004144004065
2024-07-29,0.07076853729997477
2024-07-30,-0.09190400843881924
2024-07-31,0.18214809128341142
2024-08-01,0.03125966235854205
2024-08-02,-0.06494165398274922
2024-08-05,-0.2120455609299413
2024-08-06,0.17443950930626057
2024-08-07,-0.26790244912753036
2024-08-08,-0.1770964334222031
2024-08-09,-0.03837218617319998
2024-08-12,0.1447418633811264
2024-08-13,-0.03175540077912738
2024-08-14,0.19212081747144913
2024-08-15,0.13409013981826193
2024-08-16,-0.010123205493561258
2024-08-19,-0.08277397967964795
2024-08-20,-0.16207513416815753
2024-08-21,-0.18260935575937665
2024-08-22,0.24055543656126177
2024-08-23,0.009059941272405173
2024-08-26,0.0830877346997267
2024-08-27,0.11240819482025462
2024-08-28,0.10108761662894107
2024-08-29,-0.4379958405516575
2024-08-30,0.11413536563237105
2024-09-02,0.25083448434622585
2024-09-03,0.009942415942372398
2024-09-04,0.05416666666666723
2024-09-05,0.20105531649759542
2024-09-06,-0.11085936235636686
2024-09-09,-0.493642024028763
2024-09-10,-0.07004291845493571
2024-09-11,-0.09062500000000236
2024-09-12,0.09520350389915617
2024-09-13,0.1043217130173647
2024-09-18,0.1973805964837341
2024-09-19,0.13049773755656102
2024-09-20,0.040607710926696676
2024-09-23,-0.164373464373464
2024-09-24,0.009285400589747805
2024-09-25,0.16036303217622794
2024-09-26,-0.09049773755655985
2024-09-27,0.08581602033051385
2024-09-30,0.18196248196248127
2024-10-08,0.19554281844784688
2024-10-09,-0.21457525019746695
2024-10-10,0.02558139534883602
2024-10-11,-0.15572503511208408
2024-10-14,-0.16563415010016874
2024-10-15,-0.42712290502793304
2024-10-16,0.08364866414401936
2024-10-17,0.21510628373425733
2024-10-18,0.14659104596419045
2024-10-21,-0.0798481453821263
2024-10-22,-0.003681055155874774
2024-10-23,-0.01483403344040795
2024-10-24,-0.38914706283659484
2024-10-25,-0.17293667193387685
2024-10-28,0.348104793756966
2024-10-29,0.2305524001851138
2024-10-30,0.08625808907499008
2024-10-31,0.009845522367361692
2024-11-01,0.07199032062915994
2024-11-04,-0.27432105061838297
2024-11-05,-0.10314794077392009
2024-11-06,-0.23164344468692155
2024-11-07,0.14583407799263626
2024-11-08,0.1383945124212085
2024-11-11,0.022370103015263005
2024-11-12,-0.06638574191765584
2024-11-13,0.14331027165623914
2024-11-14,0.04597127275520525
2024-11-15,-0.18898664059954384
2024-11-18,-0.11761426978818279
2024-11-19,0.041829004329003154
2024-11-20,-0.11272902453806494
2024-11-21,-0.14142678347935048
2024-11-22,0.10296513522319854
2024-11-25,0.05230978260869616
2024-11-26,0.06278248587570678
2024-11-27,0.12028141678796704
2024-11-28,-0.01616031027795467
2024-11-29,-0.1672273896695017
2024-12-02,0.24124556737588543
2024-12-03,-0.09011988424969072
2024-12-04,0.08757309941520366
2024-12-05,0.3319405145752423
2024-12-06,0.09594493490947084
2024-12-09,-0.3154048313352771
2024-12-10,0.2288593544618104
2024-12-11,-0.1919484592309776
2024-12-12,-0.4332591958939243
2024-12-13,0.024635901035269633
2024-12-16,0.2824554650211034
2024-12-17,-0.2690491368083045
2024-12-18,0.14336967246580268
2024-12-19,0.3356103607823876
2024-12-20,0.06077458007875704
2024-12-23,-0.22441203875804783
2024-12-24,0.10758016723300366
2024-12-25,-0.003593795854164257
2024-12-26,-0.21322940840143725
2024-12-27,-0.13729518177921574
2024-12-30,0.08090750436300212
2024-12-31,-0.021246680206219403
