date,FCT_Demark_Atr_Dfive
2012-12-03,
2012-12-04,
2012-12-05,
2012-12-06,
2012-12-07,
2012-12-10,
2012-12-11,
2012-12-12,
2012-12-13,
2012-12-14,0.5342594943596077
2012-12-17,0.8428571428571413
2012-12-18,0.4935064935064945
2012-12-19,0.6410256410256431
2012-12-20,0.46341463414634015
2012-12-21,0.3417721518987309
2012-12-24,0.15584415584415603
2012-12-25,0.25999999999999734
2012-12-26,0.015873015873013506
2012-12-27,0.0980392156862738
2012-12-28,0.10869565217391275
2012-12-31,0.1764705882352838
2013-01-04,0.582089552238806
2013-01-07,0.9552238805970147
2013-01-08,0.9659090909090908
2013-01-09,1.0
2013-01-10,1.0
2013-01-11,0.7558139534883725
2013-01-14,0.7666666666666673
2013-01-15,0.6197183098591537
2013-01-16,0.740384615384613
2013-01-17,0.6565656565656536
2013-01-18,0.7926829268292638
2013-01-21,0.433734939759035
2013-01-22,0.4444444444444455
2013-01-23,0.0
2013-01-24,0.11904761904762047
2013-01-25,0.10000000000000128
2013-01-28,0.13157894736842182
2013-01-29,0.10638297872340437
2013-01-30,0.14333895446880263
2013-01-31,0.0
2013-02-01,0.04098360655738413
2013-02-04,0.37975778546713324
2013-02-05,0.6378035902851212
2013-02-06,0.8551165146909904
2013-02-07,1.0
2013-02-08,1.0
2013-02-18,0.6195508586525731
2013-02-19,0.47499999999999243
2013-02-20,0.12499999999997961
2013-02-21,0.4166666666666588
2013-02-22,0.5333333333333292
2013-02-25,0.7872340425531875
2013-02-26,0.8771929824561351
2013-02-27,0.9615384615384586
2013-02-28,0.5438596491228
2013-03-01,0.42222222222221045
2013-03-04,0.5666666666666618
2013-03-05,0.41176470588235975
2013-03-06,0.47169811320755617
2013-03-07,0.6578947368421232
2013-03-08,0.7346938775510371
2013-03-11,0.24242424242424798
2013-03-12,0.24242424242424274
2013-03-13,0.46808510638297796
2013-03-14,0.6132075471698104
2013-03-15,0.6019417475728148
2013-03-18,0.9459459459459397
2013-03-19,0.9999999999999968
2013-03-20,0.6333333333333303
2013-03-21,0.2931034482758623
2013-03-22,0.09411764705882365
2013-03-25,0.0
2013-03-26,0.07476635514018948
2013-03-27,0.07547169811321035
2013-03-28,0.16842105263157825
2013-03-29,0.39436619718310156
2013-04-01,0.7200000000000004
2013-04-02,0.6666666666666644
2013-04-03,0.9642857142857119
2013-04-08,0.966101694915252
2013-04-09,0.749999999999995
2013-04-10,0.45238095238094655
2013-04-11,0.4749999999999925
2013-04-12,0.28947368421052133
2013-04-15,0.37209302325581783
2013-04-16,0.7454545454545465
2013-04-17,0.9387755102040823
2013-04-18,0.9464285714285742
2013-04-19,1.0
2013-04-22,0.8230769230769216
2013-04-23,0.7830188679245268
2013-04-24,0.34408602150537554
2013-04-25,0.1836734693877542
2013-04-26,0.058823529411766155
2013-05-02,0.07575757575757784
2013-05-03,0.05333333333333417
2013-05-06,0.06557377049180417
2013-05-07,0.4722222222222202
2013-05-08,0.348837209302324
2013-05-09,0.3488372093023239
2013-05-10,0.4523809523809518
2013-05-13,0.7027027027027032
2013-05-14,0.2894736842105285
2013-05-15,0.47826086956521574
2013-05-16,0.6831683168316837
2013-05-17,0.5754716981132062
2013-05-20,0.439252336448595
2013-05-21,0.6103896103896055
2013-05-22,0.44444444444444503
2013-05-23,0.0
2013-05-24,0.0
2013-05-27,0.12698412698412823
2013-05-28,0.12903225806451651
2013-05-29,0.2909090909090856
2013-05-30,0.7222222222222139
2013-05-31,0.9749999999999928
2013-06-03,0.8378378378378305
2013-06-04,0.9122807017543855
2013-06-05,0.9180327868852457
2013-06-06,0.7540983606557399
2013-06-07,0.7115384615384613
2013-06-13,0.8360655737704932
2013-06-14,0.517241379310346
2013-06-17,0.2769230769230789
2013-06-18,0.48611111111111344
2013-06-19,0.3647058823529453
2013-06-20,0.22972972972973063
2013-06-21,0.45028119775042
2013-06-24,0.7010627209524726
2013-06-25,0.46045363472331385
2013-06-26,0.7524782750219453
2013-06-27,0.6778114421274323
2013-06-28,0.47530874770901793
2013-07-01,0.32401206721025305
2013-07-02,0.3841196726938549
2013-07-03,0.0
2013-07-04,0.0
2013-07-05,0.02173913043477451
2013-07-08,0.023809523809514888
2013-07-09,0.021276595744672774
2013-07-10,0.45161290322578745
2013-07-11,0.7599999999999926
2013-07-12,0.660714285714285
2013-07-15,0.7692307692307707
2013-07-16,0.8474576271186536
2013-07-17,0.8163265306122545
2013-07-18,0.3200000000000047
2013-07-19,0.4375000000000024
2013-07-22,0.19512195121949966
2013-07-23,0.27906976744185097
2013-07-24,0.16363636363636339
2013-07-25,0.2903225806451573
2013-07-26,0.15384615384616568
2013-07-29,0.1333333333333476
2013-07-30,6.910256635371454e-15
2013-07-31,1.1517094392285682e-14
2013-08-01,1.0993590101727307e-14
2013-08-02,0.0
2013-08-05,0.0
2013-08-06,0.1666666666666681
2013-08-07,0.44117647058823867
2013-08-08,0.5277777777777749
2013-08-09,0.8125000000000048
2013-08-12,1.0
2013-08-13,1.0
2013-08-14,0.8749999999999927
2013-08-15,0.7741935483871014
2013-08-16,0.7666666666666725
2013-08-19,0.7407407407407439
2013-08-20,0.8372093023255855
2013-08-21,0.8780487804878135
2013-08-22,0.9487179487179486
2013-08-23,0.9444444444444433
2013-08-26,0.5116279069767458
2013-08-27,0.08510638297870883
2013-08-28,0.5060240963855386
2013-08-29,0.5940594059405939
2013-08-30,0.5377358490566057
2013-09-02,0.6477272727272682
2013-09-03,0.8874999999999978
2013-09-04,0.4285714285714295
2013-09-05,0.18181818181818432
2013-09-06,0.26666666666666994
2013-09-09,0.25641025641026016
2013-09-10,0.07500000000000176
2013-09-11,0.12000000000000323
2013-09-12,0.2187500000000006
2013-09-13,0.029411764705878328
2013-09-16,0.25641025641025855
2013-09-17,0.6578947368421064
2013-09-18,0.6944444444444453
2013-09-23,0.7555555555555563
2013-09-24,0.9189189189189231
2013-09-25,0.6944444444444479
2013-09-26,0.3846153846153881
2013-09-27,0.606060606060611
2013-09-30,0.33333333333334386
2013-10-08,0.3750000000000148
2013-10-09,0.5714285714285919
2013-10-10,0.48484848484849785
2013-10-11,0.17142857142858087
2013-10-14,0.17647058823530187
2013-10-15,0.15151515151514514
2013-10-16,0.06666666666664298
2013-10-17,0.37931034482756715
2013-10-18,0.6470588235293906
2013-10-21,0.9999999999999883
2013-10-22,0.7599999999999892
2013-10-23,0.749999999999995
2013-10-24,0.391304347826078
2013-10-25,0.6818181818181778
2013-10-28,0.524999999999996
2013-10-29,0.6578947368420983
2013-10-30,0.5681818181818102
2013-10-31,0.7604528026291754
2013-11-01,0.31658230481210653
2013-11-04,0.3163081506114
2013-11-05,0.22520028377140677
2013-11-06,0.3604699521730251
2013-11-07,0.1348094801170304
2013-11-08,0.23762587732682036
2013-11-11,0.3614721623688077
2013-11-12,0.443142601508243
2013-11-13,0.08695652173914781
2013-11-14,0.14285714285717907
2013-11-15,0.20000000000005377
2013-11-18,0.2500000000000112
2013-11-19,0.4545454545454695
2013-11-20,0.9166666666666918
2013-11-21,0.7857142857142599
2013-11-22,0.5555555555555229
2013-11-25,0.43749999999998407
2013-11-26,0.055555555555536186
2013-11-27,0.10526315789473593
2013-11-28,0.41666666666667657
2013-11-29,0.45454545454547046
2013-12-02,0.3999999999999999
2013-12-03,0.5263157894736803
2013-12-04,0.4705882352941226
2013-12-05,1.6674740865764858e-14
2013-12-06,0.3124999999999934
2013-12-09,0.3846153846153904
2013-12-10,0.5
2013-12-11,0.39999999999998725
2013-12-12,0.9024390243902424
2013-12-13,0.9215686274509793
2013-12-16,0.9491525423728787
2013-12-17,0.951612903225804
2013-12-18,1.0
2013-12-19,0.5
2013-12-20,0.5633802816901379
2013-12-23,0.45588235294117546
2013-12-24,0.391304347826085
2013-12-25,0.391304347826085
2013-12-26,0.725000000000005
2013-12-27,0.09259259259259375
2013-12-30,0.12244897959183165
2013-12-31,0.4492753623188417
2014-01-02,0.4492753623188417
2014-01-03,0.4571428571428556
2014-01-06,1.0
2014-01-07,1.0
2014-01-08,0.7540983606557363
2014-01-09,0.8170731707317079
2014-01-10,0.8000000000000048
2014-01-13,0.5394736842105301
2014-01-14,0.34285714285714763
2014-01-15,0.39344262295082355
2014-01-16,0.0
2014-01-17,0.08620689655172262
2014-01-20,0.1282051282051315
2014-01-21,0.4250000000000029
2014-01-22,0.6730769230769239
2014-01-23,1.0
2014-01-24,1.0
2014-01-27,1.0
2014-01-28,0.7358490566037753
2014-01-29,0.6315789473684228
2014-01-30,0.2307692307692295
2014-02-07,0.42307692307691697
2014-02-10,0.4339622641509365
2014-02-11,0.5348837209302234
2014-02-12,0.4166666666666581
2014-02-13,0.5128205128205086
2014-02-14,0.08333333333333048
2014-02-17,0.0
2014-02-18,0.19999999999999993
2014-02-19,0.20833333333333454
2014-02-20,0.2954545454545454
2014-02-21,0.7391304347826098
2014-02-24,0.8421052631578952
2014-02-25,0.6470588235294066
2014-02-26,0.7096774193548324
2014-02-27,0.7096774193548324
2014-02-28,0.5624999999999943
2014-03-03,0.07317073170731617
2014-03-04,0.08333333333333286
2014-03-05,0.1666666666666657
2014-03-06,0.07317073170731617
2014-03-07,0.3529411764705909
2014-03-10,0.8474576271186434
2014-03-11,0.9058823529411746
2014-03-12,0.9166666666666649
2014-03-13,0.96703296703297
2014-03-14,0.8390804597701158
2014-03-17,0.5466666666666674
2014-03-18,0.24439243222157453
2014-03-19,0.0
2014-03-20,0.17174431153880762
2014-03-21,0.19506122396864217
2014-03-24,0.30278833269085964
2014-03-25,0.401861520998852
2014-03-26,0.9299875533428149
2014-03-27,0.7690414845265179
2014-03-28,0.8889170098704566
2014-03-31,0.6078431372548911
2014-04-01,0.4166666666666643
2014-04-02,0.1639344262295124
2014-04-03,0.1612903225806507
2014-04-04,0.0
2014-04-08,0.28333333333333705
2014-04-09,0.5116279069767441
2014-04-10,0.4680851063829893
2014-04-11,0.6551724137931105
2014-04-14,0.7169811320754856
2014-04-15,0.4117647058823617
2014-04-16,0.3478260869565308
2014-04-17,0.47058823529411453
2014-04-18,0.0
2014-04-21,0.3124999999999952
2014-04-22,0.851063829787226
2014-04-23,0.7272727272727187
2014-04-24,0.7407407407407387
2014-04-25,0.6557377049180262
2014-04-28,0.50847457627118
2014-04-29,0.0
2014-04-30,0.2033898305084769
2014-05-05,0.2878787878787878
2014-05-06,0.4426229508196758
2014-05-07,0.4909090909090979
2014-05-08,0.7105263157894858
2014-05-09,0.36585365853659313
2014-05-12,0.19047619047620123
2014-05-13,0.0
2014-05-14,0.0
2014-05-15,0.18181818181818052
2014-05-16,0.6571428571428595
2014-05-19,0.8749999999999941
2014-05-20,0.9814814814814817
2014-05-21,0.9636363636363641
2014-05-22,0.9591836734693885
2014-05-23,0.7317073170731713
2014-05-26,0.7555555555555569
2014-05-27,0.2250000000000054
2014-05-28,0.256410256410261
2014-05-29,0.40816326530611924
2014-05-30,0.599999999999998
2014-06-03,0.5348837209302277
2014-06-04,0.7666666666666645
2014-06-05,0.7741935483870929
2014-06-06,0.41176470588234765
2014-06-09,0.14814814814813415
2014-06-10,0.05128205128204476
2014-06-11,0.11764705882352547
2014-06-12,0.0606060606060643
2014-06-13,0.25000000000001293
2014-06-16,0.4444444444444561
2014-06-17,0.9473684210526454
2014-06-18,0.9583333333333437
2014-06-19,0.8846153846153813
2014-06-20,0.8965517241379274
2014-06-23,0.6249999999999919
2014-06-24,0.46666666666665335
2014-06-25,0.22580645161289897
2014-06-26,0.5333333333333282
2014-06-27,0.4358974358974302
2014-06-30,0.5483870967741923
2014-07-01,0.6666666666666707
2014-07-02,0.9200000000000065
2014-07-03,0.2999999999999988
2014-07-04,0.20689655172413612
2014-07-07,0.16216216216216067
2014-07-08,0.08571428571428732
2014-07-09,0.3469387755102036
2014-07-10,0.5121951219512223
2014-07-11,0.7479968657584201
2014-07-14,0.9752045561938932
2014-07-15,0.9877326884808171
2014-07-16,0.527384280096651
2014-07-17,0.43856491480681925
2014-07-18,0.266402636607858
2014-07-21,0.502983450294602
2014-07-22,0.4979011107396354
2014-07-23,0.8034183593953037
2014-07-24,0.8999999999999989
2014-07-25,0.977272727272725
2014-07-28,0.3777777777777696
2014-07-29,0.45999999999999225
2014-07-30,0.41304347826086096
2014-07-31,0.3023255813953479
2014-08-01,0.12499999999999595
2014-08-04,0.4642857142857093
2014-08-05,0.25000000000000316
2014-08-06,0.20588235294117901
2014-08-07,0.18918918918919272
2014-08-08,0.4705882352941274
2014-08-11,0.21951219512195586
2014-08-12,0.24324324324324753
2014-08-13,0.42105263157895306
2014-08-14,0.6862745098039195
2014-08-15,0.5909090909090874
2014-08-18,0.8888888888888904
2014-08-19,0.9555555555555563
2014-08-20,0.7826086956521742
2014-08-21,0.5000000000000017
2014-08-22,0.43589743589743246
2014-08-25,0.35294117647058415
2014-08-26,0.0344827586206852
2014-08-27,0.37499999999999906
2014-08-28,0.36363636363636026
2014-08-29,0.5757575757575824
2014-09-01,0.7846153846153896
2014-09-02,0.870967741935485
2014-09-03,0.7678571428571455
2014-09-04,0.8431372549019626
2014-09-05,0.8518518518518522
2014-09-09,0.21311475409835504
2014-09-10,0.30434782608695693
2014-09-11,0.32812499999999895
2014-09-12,0.3650793650793632
2014-09-15,0.28571428571428087
2014-09-16,0.9999999999999871
2014-09-17,0.3199999999999906
2014-09-18,0.2580645161290282
2014-09-19,0.394736842105262
2014-09-22,0.37837837837838567
2014-09-23,0.5818181818181849
2014-09-24,0.8800000000000032
2014-09-25,1.0
2014-09-26,0.9240506329113946
2014-09-29,0.7802197802197831
2014-09-30,0.5813953488372098
2014-10-08,0.5324675324675345
2014-10-09,0.044776119402987494
2014-10-10,0.045454545454547725
2014-10-13,0.0925925925925902
2014-10-14,0.26666666666666566
2014-10-15,0.15789473684210095
2014-10-16,0.2432432432432314
2014-10-17,0.41025641025639925
2014-10-20,0.3111111111111068
2014-10-21,0.14285714285714318
2014-10-22,0.18421052631579077
2014-10-23,0.28125000000000916
2014-10-24,0.055555555555560056
2014-10-27,0.06250000000000547
2014-10-28,0.0769230769230831
2014-10-29,0.08695652173913658
2014-10-30,0.08695652173913175
2014-10-31,0.4117647058823596
2014-11-03,0.7000000000000025
2014-11-04,0.9642857142857116
2014-11-05,1.0
2014-11-06,0.848484848484853
2014-11-07,0.741935483870968
2014-11-10,0.5714285714285695
2014-11-11,0.11111111111111165
2014-11-12,0.22580645161291207
2014-11-13,0.25925925925926646
2014-11-14,0.3461538461538547
2014-11-17,0.6351275494293038
2014-11-18,0.977215189873416
2014-11-19,0.9741794812944663
2014-11-20,1.0
2014-11-21,1.0
2014-11-24,0.8550523035833469
2014-11-25,0.5216592938819709
2014-11-26,0.3313573305628572
2014-11-27,0.15689296447561782
2014-11-28,0.04347826086956378
2014-12-01,0.26086956521739535
2014-12-02,0.3529411764705979
2014-12-03,0.8888888888888729
2014-12-04,0.7000000000000048
2014-12-05,0.8333333333333492
2014-12-08,0.2500000000000091
2014-12-09,0.208333333333338
2014-12-10,0.2400000000000073
2014-12-11,0.468750000000004
2014-12-12,0.3870967741935469
2014-12-15,0.7499999999999958
2014-12-16,0.8999999999999847
2014-12-17,0.8999999999999848
2014-12-18,0.34615384615384426
2014-12-19,0.33333333333333576
2014-12-22,0.1818181818181861
2014-12-23,0.14814814814815294
2014-12-24,0.17857142857142963
2014-12-25,0.46666666666667056
2014-12-26,0.4375000000000037
2014-12-29,0.763157894736844
2014-12-30,0.8918918918918923
2014-12-31,0.8857142857142868
2015-01-05,0.9090909090909103
2015-01-06,1.0
2015-01-07,0.5396825396825364
2015-01-08,0.5322580645161297
2015-01-09,0.469696969696969
2015-01-12,0.3965517241379305
2015-01-13,0.10909090909091167
2015-01-14,0.5652173913043512
2015-01-15,0.45098039215686314
2015-01-16,0.5111111111111096
2015-01-19,0.3636363636363651
2015-01-20,0.4761904761904771
2015-01-21,0.0
2015-01-22,0.0
2015-01-23,0.11764705882352844
2015-01-26,0.26086956521738547
2015-01-27,0.24999999999999462
2015-01-28,0.4999999999999956
2015-01-29,0.600000000000011
2015-01-30,0.2380952380952472
2015-02-02,0.1153846153846236
2015-02-03,0.2500000000000036
2015-02-04,0.3703703703703729
2015-02-05,0.2692307692307657
2015-02-06,0.3888888888888811
2015-02-09,0.6363636363636348
2015-02-10,0.2500000000000133
2015-02-11,0.2500000000000068
2015-02-12,0.25000000000000877
2015-02-13,0.30000000000004096
2015-02-16,0.5625000000000132
2015-02-17,0.8461538461538531
2015-02-25,0.36363636363638163
2015-02-26,0.6470588235294226
2015-02-27,0.6923076923076947
2015-03-02,0.7966101694915272
2015-03-03,0.8000000000000014
2015-03-04,1.0
2015-03-05,0.8181818181818123
2015-03-06,0.8113207547169773
2015-03-09,0.3541666666666664
2015-03-10,0.3921568627451032
2015-03-11,0.20454545454546427
2015-03-12,0.257142857142871
2015-03-13,0.16666666666667468
2015-03-16,0.31578947368422183
2015-03-17,0.0
2015-03-18,0.0
2015-03-19,0.26315789473683937
2015-03-20,0.3124999999999979
2015-03-23,0.3333333333333265
2015-03-24,0.6249999999999807
2015-03-25,0.7499999999999789
2015-03-26,0.5833333333333036
2015-03-27,0.7333333333333144
2015-03-30,0.9736842105263162
2015-03-31,0.9807692307692313
2015-04-01,0.9818181818181824
2015-04-02,1.0
2015-04-03,1.0
2015-04-07,0.6285714285714284
2015-04-08,0.43216139228157646
2015-04-09,0.3549252894283522
2015-04-10,0.017003147309430512
2015-04-13,0.26998831342815743
2015-04-14,0.4070848584290476
2015-04-15,0.37511145570846927
2015-04-16,0.51799894123875
2015-04-17,0.7557443521915403
2015-04-20,0.3792934249264008
2015-04-21,0.531914893617023
2015-04-22,0.6410256410256463
2015-04-23,0.3076923076923097
2015-04-24,0.34146341463414137
2015-04-27,0.42424242424241426
2015-04-28,0.0714285714285632
2015-04-29,0.342857142857135
2015-04-30,0.4999999999999958
2015-05-04,0.5199999999999998
2015-05-05,0.5909090909090956
2015-05-06,0.7647058823529516
2015-05-07,0.1304347826086946
2015-05-08,0.4705882352941091
2015-05-11,0.43749999999999467
2015-05-12,0.311111111111107
2015-05-13,0.31818181818181535
2015-05-14,0.6216216216216256
2015-05-15,0.3846153846154016
2015-05-18,0.34615384615385325
2015-05-19,0.7333333333333438
2015-05-20,0.8499999999999943
2015-05-21,0.47058823529410126
2015-05-22,0.3333333333333195
2015-05-25,0.2666666666666632
2015-05-26,0.40540540540540115
2015-05-27,0.21951219512195294
2015-05-28,0.4693877551020472
2015-05-29,0.5750000000000092
2015-06-01,0.7222222222222267
2015-06-02,0.705882352941178
2015-06-03,1.0
2015-06-04,0.78125
2015-06-05,0.7142857142857143
2015-06-08,0.6285714285714286
2015-06-09,0.31914893617021434
2015-06-10,0.0
2015-06-11,0.0238095238095237
2015-06-12,0.19148936170212685
2015-06-15,0.2045454545454527
2015-06-16,0.5555555555555527
2015-06-17,0.9999999999999903
2015-06-18,0.6451612903225723
2015-06-19,0.4137931034482759
2015-06-23,0.3428571428571468
2015-06-24,0.031250000000000576
2015-06-25,0.0
2015-06-26,1.0136579987456542e-14
2015-06-29,1.0670084197322356e-14
2015-06-30,0.5806451612903307
2015-07-01,0.8484848484848465
2015-07-02,0.8529411764705862
2015-07-03,0.8529411764705802
2015-07-06,0.9999999999999958
2015-07-07,0.9999999999999947
2015-07-08,0.999999999999994
2015-07-09,0.9999999999999984
2015-07-10,1.0
2015-07-13,0.9172932330827057
2015-07-14,0.7862068965517248
2015-07-15,0.7105263157894752
2015-07-16,0.06802721088435375
2015-07-17,0.0
2015-07-20,0.03546099290780181
2015-07-21,0.04065040650406531
2015-07-22,0.07894736842105167
2015-07-23,0.40909090909091084
2015-07-24,0.8928571428571429
2015-07-27,0.8965517241379317
2015-07-28,0.9696969696969788
2015-07-29,0.9333333333333466
2015-07-30,0.7777777777777829
2015-07-31,0.4444444444444532
2015-08-03,0.21428571428571772
2015-08-04,0.0
2015-08-05,0.0
2015-08-06,0.2173913043478173
2015-08-07,0.31249999999998807
2015-08-10,0.5798037808087868
2015-08-11,0.7349833987322627
2015-08-12,1.0
2015-08-13,1.0
2015-08-14,0.6978944878164292
2015-08-17,0.7312898926843074
2015-08-18,0.5496693303940632
2015-08-19,0.20853282264073117
2015-08-20,0.23261811429749574
2015-08-21,0.49999999999998196
2015-08-24,0.6923076923076814
2015-08-25,0.9259259259259219
2015-08-26,1.0
2015-08-27,1.0
2015-08-28,1.0
2015-08-31,0.8333333333333376
2015-09-01,0.6666666666666715
2015-09-02,0.4358974358974487
2015-09-07,0.48837209302326484
2015-09-08,0.18181818181818338
2015-09-09,0.14814814814814922
2015-09-10,0.14814814814814972
2015-09-11,0.2826086956521751
2015-09-14,0.1041666666666669
2015-09-15,0.13513513513513514
2015-09-16,0.19230769230769365
2015-09-17,0.20833333333333504
2015-09-18,0.0
2015-09-21,0.05263157894738305
2015-09-22,0.21052631578949196
2015-09-23,0.21052631578948666
2015-09-24,0.5666666666666608
2015-09-25,0.8399999999999943
2015-09-28,0.7142857142856998
2015-09-29,0.7419354838709511
2015-09-30,0.821428571428562
2015-10-08,0.4166666666666578
2015-10-09,0.4166666666666578
2015-10-12,0.6000000000000033
2015-10-13,0.31034482758621573
2015-10-14,0.424242424242428
2015-10-15,0.4516129032258093
2015-10-16,0.2777777777777801
2015-10-19,0.14285714285713935
2015-10-20,0.33333333333332593
2015-10-21,0.5238095238095227
2015-10-22,0.7400000000000009
2015-10-23,0.9183673469387753
2015-10-26,0.957446808510636
2015-10-27,0.9555555555555534
2015-10-28,0.5777777777777774
2015-10-29,0.23913043478260917
2015-10-30,0.12499999999999613
2015-11-02,0.12820512820512495
2015-11-03,0.04999999999999598
2015-11-04,0.299999999999995
2015-11-05,0.8529411764705905
2015-11-06,0.7105263157894798
2015-11-09,0.7105263157894779
2015-11-10,0.8000000000000044
2015-11-11,0.5250000000000054
2015-11-12,0.2962962962963003
2015-11-13,0.5
2015-11-16,0.5555555555555582
2015-11-17,0.6363636363636409
2015-11-18,1.0
2015-11-19,0.5483870967741938
2015-11-20,0.4615384615384713
2015-11-23,0.5625000000000019
2015-11-24,0.6315789473684218
2015-11-25,0.6956521739130451
2015-11-26,1.0
2015-11-27,0.955555555555549
2015-11-30,0.8749999999999953
2015-12-01,0.44897959183673264
2015-12-02,0.30636997421450046
2015-12-03,0.019317799787950538
2015-12-04,0.1956401338089063
2015-12-07,0.2591062136516731
2015-12-08,0.4224804819792578
2015-12-09,0.3232417326502072
2015-12-10,0.6439117161303178
2015-12-11,0.2933382407066594
2015-12-14,0.08666994589277172
2015-12-15,0.3437499999999949
2015-12-16,0.3666666666666663
2015-12-17,0.3103448275862056
2015-12-18,0.32142857142857684
2015-12-21,0.5600000000000082
2015-12-22,0.22727272727272763
2015-12-23,0.3529411764705934
2015-12-24,0.3333333333333335
2015-12-25,0.4999999999999889
2015-12-28,0.1874999999999954
2015-12-29,0.533333333333323
2015-12-30,0.4999999999999809
2015-12-31,0.6428571428571295
2016-01-04,0.642857142857134
2016-01-05,0.7499999999999925
2016-01-06,0.28571428571429686
2016-01-07,0.33333333333335713
2016-01-08,0.545454545454552
2016-01-11,0.5
2016-01-12,0.666666666666664
2016-01-13,0.7368421052631529
2016-01-14,0.7499999999999916
2016-01-15,0.24999999999999434
2016-01-18,0.41935483870967744
2016-01-19,0.3214285714285749
2016-01-20,0.4615384615384583
2016-01-21,0.3846153846153819
2016-01-22,0.863636363636369
2016-01-25,0.6000000000000002
2016-01-26,0.5714285714285642
2016-01-27,0.5263157894736903
2016-01-28,0.6111111111111117
2016-01-29,0.14285714285715045
2016-02-01,0.11764705882353456
2016-02-02,0.13333333333333994
2016-02-03,0.06249999999999305
2016-02-04,0.28571428571428564
2016-02-05,0.3333333333333332
2016-02-15,0.6363636363636392
2016-02-16,0.5384615384615342
2016-02-17,0.8571428571428552
2016-02-18,0.6206896551724189
2016-02-19,0.7096774193548451
2016-02-22,0.8301886792452885
2016-02-23,0.885245901639351
2016-02-24,0.6491228070175515
2016-02-25,0.7903225806451615
2016-02-26,0.7936507936507923
2016-02-29,0.4499999999999987
2016-03-01,0.35294117647058015
2016-03-02,0.43902439024389767
2016-03-03,0.17647058823528713
2016-03-04,0.02702702702702391
2016-03-07,0.5999999999999975
2016-03-08,0.8260869565217395
2016-03-09,0.8839285714285701
2016-03-10,0.9379844961240293
2016-03-11,1.0
2016-03-14,0.9369369369369385
2016-03-15,0.46788990825688237
2016-03-16,0.27184466019417686
2016-03-17,0.06382978723404392
2016-03-18,0.12871287128713
2016-03-21,0.13000000000000067
2016-03-22,0.24074074074074034
2016-03-23,0.4146341463414604
2016-03-24,0.5666666666666598
2016-03-25,0.1212121212121196
2016-03-28,0.10256410256410259
2016-03-29,0.10000000000000035
2016-03-30,0.0
2016-03-31,0.0
2016-04-01,0.0
2016-04-05,0.07692307692307361
2016-04-06,0.09999999999999447
2016-04-07,0.4248897344979592
2016-04-08,0.9285069235400094
2016-04-11,0.9999999999999915
2016-04-12,0.9999999999999951
2016-04-13,1.0
2016-04-14,0.8216529215651861
2016-04-15,0.8570665166643218
2016-04-18,0.8539655172413778
2016-04-19,0.7695350080171012
2016-04-20,0.5454545454545429
2016-04-21,0.8593749999999994
2016-04-22,0.8421052631578942
2016-04-25,0.8499999999999996
2016-04-26,0.9117647058823523
2016-04-27,1.0
2016-04-28,0.5161290322580667
2016-04-29,0.28767123287671437
2016-05-03,0.34177215189873533
2016-05-04,0.16494845360824917
2016-05-05,0.1388888888888894
2016-05-06,0.3225806451612896
2016-05-09,0.554347826086955
2016-05-10,0.32432432432432196
2016-05-11,0.47727272727272635
2016-05-12,0.5749999999999975
2016-05-13,0.5466666666666644
2016-05-16,0.2985074626865662
2016-05-17,0.6388888888888901
2016-05-18,0.6749999999999982
2016-05-19,0.575000000000007
2016-05-20,0.30952380952381314
2016-05-23,0.659574468085113
2016-05-24,0.6222222222222291
2016-05-25,0.36000000000000265
2016-05-26,0.4615384615384579
2016-05-27,0.5853658536585334
2016-05-30,0.1666666666666602
2016-05-31,0.325581395348829
2016-06-01,0.6216216216216169
2016-06-02,0.7358490566037716
2016-06-03,0.7090909090909062
2016-06-06,0.7799999999999959
2016-06-07,0.6078431372549
2016-06-08,0.45833333333332954
2016-06-13,0.0
2016-06-14,0.02222222222222107
2016-06-15,0.020408163265305222
2016-06-16,0.2777777777777816
2016-06-17,0.4210526315789509
2016-06-20,0.6000000000000019
2016-06-21,0.6190476190476215
2016-06-22,0.8666666666666627
2016-06-23,0.3529411764705834
2016-06-24,0.09999999999999924
2016-06-27,0.6101694915254219
2016-06-28,0.4999999999999986
2016-06-29,0.5416666666666643
2016-06-30,0.8192771084337334
2016-07-01,0.8936170212765954
2016-07-04,0.6538461538461529
2016-07-05,0.8
2016-07-06,0.8617886178861794
2016-07-07,0.7264150943396249
2016-07-08,0.7040816326530641
2016-07-11,0.7582417582417623
2016-07-12,0.7283950617283985
2016-07-13,0.19999999999999915
2016-07-14,0.2727272727272715
2016-07-15,0.14084507042253278
2016-07-18,0.40697674418604196
2016-07-19,0.3111111111111083
2016-07-20,0.4999999999999982
2016-07-21,0.38461538461538314
2016-07-22,0.48076923076922823
2016-07-25,0.0
2016-07-26,0.0
2016-07-27,0.06249999999999626
2016-07-28,0.24999999999999226
2016-07-29,0.1874999999999972
2016-08-01,0.6904761904761936
2016-08-02,0.8260869565217449
2016-08-03,0.6545454545454608
2016-08-04,0.7031250000000057
2016-08-05,0.8070175438596512
2016-08-08,0.34328358208955434
2016-08-09,0.31249999999999817
2016-08-10,0.6024096385542177
2016-08-11,0.506849315068494
2016-08-12,0.53443936054772
2016-08-15,0.8972971957701766
2016-08-16,0.9180185312902932
2016-08-17,0.47392941932489513
2016-08-18,0.5201513194316267
2016-08-19,0.4179551879185671
2016-08-22,0.4928917494783698
2016-08-23,0.09152069674136008
2016-08-24,0.34251108524190615
2016-08-25,0.29166666666666236
2016-08-26,0.3974358974358928
2016-08-29,0.46590909090908933
2016-08-30,0.8644067796610183
2016-08-31,0.6603773584905697
2016-09-01,0.6481481481481494
2016-09-02,0.648148148148153
2016-09-05,0.4081632653061246
2016-09-06,0.2926829268292801
2016-09-07,0.4722222222222258
2016-09-08,0.642857142857144
2016-09-09,0.19999999999999915
2016-09-12,0.43589743589743485
2016-09-13,0.49999999999999806
2016-09-14,0.31481481481481743
2016-09-19,0.33928571428571636
2016-09-20,0.7222222222222261
2016-09-21,0.4225352112676102
2016-09-22,0.35384615384615603
2016-09-23,0.4600000000000012
2016-09-26,0.4905660377358509
2016-09-27,0.10714285714285686
2016-09-28,0.3684210526315746
2016-09-29,0.26923076923076683
2016-09-30,0.6082474226804092
2016-10-10,0.5578947368421016
2016-10-11,0.6973684210526299
2016-10-12,0.7088607594936689
2016-10-13,0.8769230769230771
2016-10-14,0.19672131147541128
2016-10-17,0.32835820895522694
2016-10-18,0.34920634920635185
2016-10-19,0.20370370370371005
2016-10-20,0.27118644067796815
2016-10-21,0.8000000000000175
2016-10-24,0.19354838709677424
2016-10-25,0.3055555555555555
2016-10-26,0.26829268292682334
2016-10-27,0.23076923076922884
2016-10-28,0.42857142857142483
2016-10-31,0.7941176470588139
2016-11-01,0.8833333333333278
2016-11-02,1.0
2016-11-03,1.0
2016-11-04,0.8947368421052604
2016-11-07,0.9259259259259235
2016-11-08,0.9433962264150924
2016-11-09,0.9534883720930214
2016-11-10,0.9586206896551707
2016-11-11,1.0
2016-11-14,1.0
2016-11-15,0.7065217391304346
2016-11-16,0.5449438202247208
2016-11-17,0.40957446808510733
2016-11-18,0.3693181818181819
2016-11-21,0.04278074866310187
2016-11-22,0.059259259259259636
2016-11-23,0.06557377049180337
2016-11-24,0.3225806451612902
2016-11-25,0.22695035460992893
2016-11-28,0.5119047619047605
2016-11-29,0.44329896907216276
2016-11-30,0.6153846153846138
2016-12-01,0.3232323232323217
2016-12-02,0.6249999999999976
2016-12-05,0.5859302325581379
2016-12-06,0.6984900512724027
2016-12-07,0.7147955006585283
2016-12-08,1.0
2016-12-09,0.8424939327400948
2016-12-12,0.8678220558427355
2016-12-13,0.8888426718864716
2016-12-14,0.7015979557682984
2016-12-15,0.4332860184528025
2016-12-16,0.3975903614457793
2016-12-19,0.2857142857142849
2016-12-20,0.012195121951220194
2016-12-21,0.13333333333333425
2016-12-22,0.27941176470588314
2016-12-23,0.3454545454545482
2016-12-26,0.3103448275862091
2016-12-27,0.8085106382978742
2016-12-28,0.46774193548387133
2016-12-29,0.25316455696202367
2016-12-30,0.4000000000000004
2017-01-03,0.35643564356435764
2017-01-04,0.17977528089887956
2017-01-05,0.18390804597701405
2017-01-06,0.32835820895522727
2017-01-09,0.08571428571428563
2017-01-10,0.28985507246376596
2017-01-11,0.26666666666666405
2017-01-12,0.484375000000001
2017-01-13,0.4590163934426249
2017-01-16,0.8227848101265824
2017-01-17,0.6455696202531657
2017-01-18,0.7727272727272733
2017-01-19,0.6557377049180287
2017-01-20,0.5692307692307654
2017-01-23,0.0
2017-01-24,0.0
2017-01-25,0.0
2017-01-26,0.0
2017-02-03,0.45679012345679004
2017-02-06,0.5441176470588247
2017-02-07,0.5138888888888956
2017-02-08,0.6071428571428612
2017-02-09,0.6375000000000028
2017-02-10,0.452830188679245
2017-02-13,0.7500000000000036
2017-02-14,0.8863636363636366
2017-02-15,0.8571428571428596
2017-02-16,0.950000000000002
2017-02-17,0.7460317460317493
2017-02-20,0.6734693877551045
2017-02-21,0.7936507936507928
2017-02-22,0.6716417910447727
2017-02-23,0.3599999999999906
2017-02-24,0.28124999999999173
2017-02-27,0.3134328358208923
2017-02-28,0.0754716981132097
2017-03-01,0.08000000000000244
2017-03-02,0.07547169811320922
2017-03-03,0.12121212121212362
2017-03-06,0.0
2017-03-07,0.0
2017-03-08,0.40740740740740755
2017-03-09,0.5446428571428591
2017-03-10,0.5596330275229392
2017-03-13,0.7435897435897453
2017-03-14,0.9600000000000025
2017-03-15,0.626506024096386
2017-03-16,0.6265060240963851
2017-03-17,0.6117647058823494
2017-03-20,0.3421052631578942
2017-03-21,0.3150684931506837
2017-03-22,0.5660377358490568
2017-03-23,0.17105263157894757
2017-03-24,0.28750000000000175
2017-03-27,0.4594594594594597
2017-03-28,0.5918367346938773
2017-03-29,0.4358974358974363
2017-03-30,0.6976744186046527
2017-03-31,0.6867469879518079
2017-04-05,0.6578947368421058
2017-04-06,0.24691358024691304
2017-04-07,0.453124999999997
2017-04-10,0.32258064516128615
2017-04-11,0.32258064516129004
2017-04-12,0.20641702270252127
2017-04-13,0.5675704299936447
2017-04-14,0.4896475228001015
2017-04-17,0.7137650686851709
2017-04-18,0.48896839594513913
2017-04-19,0.767086004596589
2017-04-20,0.7300764000841108
2017-04-21,0.6667520163871461
2017-04-24,0.6151400901899898
2017-04-25,0.8695652173913047
2017-04-26,0.3499999999999965
2017-04-27,0.22666666666666413
2017-04-28,0.35526315789473506
2017-05-02,0.1931818181818179
2017-05-03,0.10869565217391416
2017-05-04,0.44086021505376766
2017-05-05,0.5657894736842155
2017-05-08,0.42307692307692646
2017-05-09,0.5500000000000003
2017-05-10,0.7419354838709646
2017-05-11,0.5555555555555503
2017-05-12,0.47368421052631043
2017-05-15,0.8297872340425498
2017-05-16,0.913043478260869
2017-05-17,0.8787878787878779
2017-05-18,0.32876712328766905
2017-05-19,0.6120689655172386
2017-05-22,0.44247787610619005
2017-05-23,0.401709401709399
2017-05-24,0.4262295081967194
2017-05-25,0.6951219512195118
2017-05-26,0.1219512195121985
2017-05-31,0.5909090909090936
2017-06-01,0.6492537313432856
2017-06-02,0.6119402985074637
2017-06-05,0.6258992805755405
2017-06-06,0.9255319148936147
2017-06-07,0.2043010752688171
2017-06-08,0.13953488372093184
2017-06-09,0.13186813186813345
2017-06-12,0.020833333333334224
2017-06-13,0.0202020202020211
2017-06-14,0.3023255813953493
2017-06-15,0.20370370370370355
2017-06-16,0.4677419354838713
2017-06-19,0.66666666666667
2017-06-20,0.6792452830188705
2017-06-21,0.37878787878788184
2017-06-22,0.6781609195402301
2017-06-23,0.4659090909090895
2017-06-26,0.35789473684210305
2017-06-27,0.4571428571428539
2017-06-28,0.6249999999999962
2017-06-29,0.535211267605631
2017-06-30,0.7500000000000006
2017-07-03,0.9333333333333363
2017-07-04,0.9062500000000057
2017-07-05,0.931818181818186
2017-07-06,0.3157894736842158
2017-07-07,0.27397260273973023
2017-07-10,0.4444444444444458
2017-07-11,0.5412844036697246
2017-07-12,0.4505494505494497
2017-07-13,0.9787234042553202
2017-07-14,1.0
2017-07-17,1.0
2017-07-18,0.24999999999999473
2017-07-19,0.6065573770491836
2017-07-20,0.641791044776122
2017-07-21,0.6470588235294159
2017-07-24,0.5915492957746565
2017-07-25,0.763636363636366
2017-07-26,0.22222222222222332
2017-07-27,0.015625000000004517
2017-07-28,0.08695652173912484
2017-07-31,0.13432835820894296
2017-08-01,0.14999999999998703
2017-08-02,0.28124999999998396
2017-08-03,0.8666666666666637
2017-08-04,0.833333333333331
2017-08-07,0.8823529411764756
2017-08-08,0.9375000000000131
2017-08-09,1.0
2017-08-10,1.0
2017-08-11,1.0
2017-08-14,0.5256374687886225
2017-08-15,0.7107351584127992
2017-08-16,0.4195763633538771
2017-08-17,0.4814317838998338
2017-08-18,0.3307053315209193
2017-08-21,0.4474735884145126
2017-08-22,0.25500413091313284
2017-08-23,0.4492753623188422
2017-08-24,0.27692307692307955
2017-08-25,0.5294117647058808
2017-08-28,0.3333333333333374
2017-08-29,0.4615384615384728
2017-08-30,0.24324324324324845
2017-08-31,0.5000000000000068
2017-09-01,0.3333333333333472
2017-09-04,0.804878048780489
2017-09-05,0.7674418604651134
2017-09-06,0.9361702127659569
2017-09-07,0.7083333333333304
2017-09-08,0.7592592592592543
2017-09-11,0.27692307692307283
2017-09-12,0.32835820895522355
2017-09-13,0.16666666666666827
2017-09-14,0.333333333333335
2017-09-15,0.45679012345679465
2017-09-18,0.848484848484854
2017-09-19,0.7878787878787848
2017-09-20,0.8965517241379167
2017-09-21,0.6612903225806364
2017-09-22,0.25675675675675425
2017-09-25,0.12698412698411815
2017-09-26,0.3108108108108061
2017-09-27,0.33783783783783417
2017-09-28,0.4166666666666622
2017-09-29,0.9629629629629607
2017-10-09,0.7500000000000114
2017-10-10,0.8604651162790763
2017-10-11,0.857142857142863
2017-10-12,0.9000000000000061
2017-10-13,0.9056603773584965
2017-10-16,0.7868852459016429
2017-10-17,0.18181818181818005
2017-10-18,0.16250000000000153
2017-10-19,0.05000000000000162
2017-10-20,0.24000000000000096
2017-10-23,0.38235294117646923
2017-10-24,0.7636363636363663
2017-10-25,0.8571428571428574
2017-10-26,0.9310344827586213
2017-10-27,0.5454545454545456
2017-10-30,0.23809523809524136
2017-10-31,0.2258064516129057
2017-11-01,0.2941176470588211
2017-11-02,0.32307692307692143
2017-11-03,0.36206896551723855
2017-11-06,0.6585365853658502
2017-11-07,0.6097560975609703
2017-11-08,0.14285714285714618
2017-11-09,0.3731343283582085
2017-11-10,0.6216216216216237
2017-11-13,0.5063291139240511
2017-11-14,0.5256410256410277
2017-11-15,0.7999999999999974
2017-11-16,0.5813953488372094
2017-11-17,0.18181818181817228
2017-11-20,0.8679245283018872
2017-11-21,0.895522388059702
2017-11-22,0.8955223880597025
2017-11-23,0.869565217391306
2017-11-24,0.7894736842105357
2017-11-27,0.3272727272727341
2017-11-28,0.058823529411765704
2017-11-29,0.006194081211291007
2017-11-30,0.39843616475816057
2017-12-01,0.5237859675158657
2017-12-04,0.8657720389399637
2017-12-05,1.0
2017-12-06,0.9488024687028737
2017-12-07,0.9443491518963162
2017-12-08,0.8300613020873623
2017-12-11,0.29714305720887524
2017-12-12,0.23456790123456506
2017-12-13,0.4020618556701023
2017-12-14,0.20618556701031057
2017-12-15,0.2127659574468124
2017-12-18,0.5373134328358337
2017-12-19,0.6842105263157979
2017-12-20,0.3950617283950684
2017-12-21,0.3809523809523859
2017-12-22,0.4470588235294136
2017-12-25,0.28947368421052305
2017-12-26,0.07317073170731625
2017-12-27,0.19047619047618605
2017-12-28,0.2352941176470553
2017-12-29,0.12499999999999598
2018-01-02,0.1395348837209253
2018-01-03,0.5454545454545374
2018-01-04,0.5454545454545444
2018-01-05,0.814814814814806
2018-01-08,0.9672131147540952
2018-01-09,0.7662337662337637
2018-01-10,0.6351351351351353
2018-01-11,0.6197183098591508
2018-01-12,0.5405405405405355
2018-01-15,0.03749999999999329
2018-01-16,0.19178082191780726
2018-01-17,0.21212121212121066
2018-01-18,0.16666666666667262
2018-01-19,0.1864406779661079
2018-01-22,0.8684210526315808
2018-01-23,0.7857142857142787
2018-01-24,0.8749999999999943
2018-01-25,0.9756097560975505
2018-01-26,0.9787234042553138
2018-01-29,0.5714285714285673
2018-01-30,0.5106382978723432
2018-01-31,0.557692307692307
2018-02-01,0.2656250000000012
2018-02-02,0.3285714285714272
2018-02-05,0.3833333333333343
2018-02-06,0.44642857142857
2018-02-07,0.2413793103448274
2018-02-08,0.7101449275362339
2018-02-09,0.6065573770491799
2018-02-12,0.7301587301587275
2018-02-13,0.6567164179104465
2018-02-14,0.8214285714285701
2018-02-22,0.2340425531914927
2018-02-23,0.5294117647058851
2018-02-26,0.42857142857143393
2018-02-27,0.45762711864407274
2018-02-28,0.423728813559322
2018-03-01,0.6578947368421013
2018-03-02,0.0
2018-03-05,0.12962962962963112
2018-03-06,0.22413793103448418
2018-03-07,0.2456140350877203
2018-03-08,0.3090909090909099
2018-03-09,1.0
2018-03-12,1.0
2018-03-13,0.8235294117646947
2018-03-14,0.8421052631578853
2018-03-15,0.6499999999999926
2018-03-16,0.6315789473684107
2018-03-19,0.529411764705886
2018-03-20,0.8275862068965602
2018-03-21,0.8611111111111199
2018-03-22,0.9885057471264396
2018-03-23,0.9915254237288157
2018-03-26,0.9750000000000018
2018-03-27,0.9716981132075493
2018-03-28,0.8532110091743119
2018-03-29,0.339285714285719
2018-03-30,0.011904761904767226
2018-04-02,0.22330097087378956
2018-04-03,0.2075471698113201
2018-04-04,0.23655913978494617
2018-04-09,0.7234042553191401
2018-04-10,0.45945945945945726
2018-04-11,0.1617260411439995
2018-04-12,0.14501282224321413
2018-04-13,0.16194953299053394
2018-04-16,0.04924905694359876
2018-04-17,0.08739346590909416
2018-04-18,0.262791174260553
2018-04-19,0.7368772613415151
2018-04-20,0.41004215316895454
2018-04-23,0.2111892729258229
2018-04-24,0.3448275862068947
2018-04-25,0.2758620689655122
2018-04-26,0.11764705882352687
2018-04-27,0.3529411764705872
2018-05-02,0.6206896551724166
2018-05-03,0.538461538461539
2018-05-04,0.5384615384615284
2018-05-07,0.884615384615366
2018-05-08,0.5769230769230668
2018-05-09,0.6451612903225681
2018-05-10,0.588235294117641
2018-05-11,0.46511627906977215
2018-05-14,0.37837837837837734
2018-05-15,0.5454545454545524
2018-05-16,0.21212121212121562
2018-05-17,0.20588235294117863
2018-05-18,0.5999999999999965
2018-05-21,0.7241379310344821
2018-05-22,0.6440677966101643
2018-05-23,0.7307692307692224
2018-05-24,0.8636363636363581
2018-05-25,0.6060606060606001
2018-05-28,0.5357142857142801
2018-05-29,0.596153846153844
2018-05-30,0.5344827586206886
2018-05-31,0.27272727272727676
2018-06-01,0.6052631578947482
2018-06-04,0.2142857142857259
2018-06-05,0.2000000000000091
2018-06-06,0.35849056603774665
2018-06-07,0.45283018867924935
2018-06-08,0.27083333333332865
2018-06-11,0.4333333333333288
2018-06-12,0.5749999999999977
2018-06-13,0.5405405405405351
2018-06-14,0.3061224489795954
2018-06-15,0.6056338028169077
2018-06-19,0.7820512820512874
2018-06-20,0.7083333333333337
2018-06-21,0.6052631578947365
2018-06-22,0.8088235294117571
2018-06-25,0.385714285714281
2018-06-26,0.14999999999999383
2018-06-27,0.14062499999999578
2018-06-28,0.20689655172413357
2018-06-29,0.26984126984127454
2018-07-02,0.5675675675675707
2018-07-03,0.46666666666666895
2018-07-04,0.627906976744187
2018-07-05,0.558139534883721
2018-07-06,0.23809523809523062
2018-07-09,0.13333333333333297
2018-07-10,0.48888888888887916
2018-07-11,0.37209302325580373
2018-07-12,0.5384615384615348
2018-07-13,0.6222222222222208
2018-07-16,0.6666666666666722
2018-07-17,0.3636363636363728
2018-07-18,0.3636363636363745
2018-07-19,0.0
2018-07-20,0.0
2018-07-23,0.2051282051282043
2018-07-24,0.4146341463414752
2018-07-25,0.43589743589744334
2018-07-26,0.7200000000000096
2018-07-27,0.9166666666666595
2018-07-30,0.699999999999991
2018-07-31,0.2941176470588106
2018-08-01,0.5833333333333205
2018-08-02,0.4999999999999937
2018-08-03,0.7592592592592542
2018-08-06,0.8269230769230772
2018-08-07,0.9464285714285757
2018-08-08,0.8800000000000032
2018-08-09,0.949827458277879
2018-08-10,0.46689299401912493
2018-08-13,0.6026254398797999
2018-08-14,0.6669511114056804
2018-08-15,0.7178144359036777
2018-08-16,0.8063410638848197
2018-08-17,1.0
2018-08-20,0.9765810575988025
2018-08-21,0.6332529673590536
2018-08-22,0.6067415730337102
2018-08-23,0.020618556701030084
2018-08-24,0.03061224489796155
2018-08-27,0.02586206896551919
2018-08-28,0.04761904761904869
2018-08-29,0.0322580645161297
2018-08-30,0.08333333333333345
2018-08-31,0.029411764705882276
2018-09-03,0.6388888888888784
2018-09-04,0.5945945945945859
2018-09-05,0.9342105263157825
2018-09-06,0.9767441860465114
2018-09-07,0.9805825242718443
2018-09-10,0.8229166666666641
2018-09-11,0.8636363636363614
2018-09-12,0.4893617021276577
2018-09-13,0.42857142857142455
2018-09-14,0.19999999999999937
2018-09-17,0.2738095238095256
2018-09-18,0.08139534883721264
2018-09-19,0.258064516129037
2018-09-20,0.18840579710145325
2018-09-21,0.3777777777777905
2018-09-25,0.2888888888888967
2018-09-26,0.41935483870968254
2018-09-27,0.11428571428572361
2018-09-28,0.3225806451612869
2018-10-08,0.6315789473684137
2018-10-09,0.7258064516129022
2018-10-10,0.7833333333333331
2018-10-11,1.0
2018-10-12,0.7924528301886882
2018-10-15,0.30769230769232125
2018-10-16,0.07142857142857181
2018-10-17,0.07142857142856848
2018-10-18,0.09302325581394796
2018-10-19,0.37777777777776317
2018-10-22,0.43589743589742375
2018-10-23,0.5483870967741882
2018-10-24,0.45454545454545453
2018-10-25,0.34210526315789946
2018-10-26,0.0
2018-10-29,0.0
2018-10-30,0.12903225806451962
2018-10-31,0.20689655172412624
2018-11-01,0.27272727272724606
2018-11-02,0.8749999999999863
2018-11-05,0.8235294117646874
2018-11-06,0.82857142857141
2018-11-07,0.8235294117646907
2018-11-08,0.9032258064516134
2018-11-09,0.5862068965517228
2018-11-12,0.7631578947368393
2018-11-13,0.7662337662337644
2018-11-14,0.7631578947368401
2018-11-15,0.34883720930232526
2018-11-16,0.4933333333333364
2018-11-19,0.22413793103449325
2018-11-20,0.10769230769231514
2018-11-21,0.325581395348842
2018-11-22,0.7014925373134386
2018-11-23,0.5714285714285752
2018-11-26,0.6805555555555538
2018-11-27,0.8666666666666667
2018-11-28,0.6470588235294066
2018-11-29,0.3676470588235238
2018-11-30,0.5416666666666597
2018-12-03,0.5285714285714235
2018-12-04,0.29577464788731866
2018-12-05,0.3230769230769187
2018-12-06,0.4791666666666663
2018-12-07,0.24324324324324567
2018-12-10,0.03448275862069558
2018-12-11,0.27777777777777896
2018-12-12,0.3800000000000057
2018-12-13,0.4777910210568129
2018-12-14,0.464844806926676
2018-12-17,0.8786518236053894
2018-12-18,0.6894004871533104
2018-12-19,0.5601456157011763
2018-12-20,0.24805180550983116
2018-12-21,0.2134895144530594
2018-12-24,0.2928486495668414
2018-12-25,0.33721271393641866
2018-12-26,0.3999999999999938
2018-12-27,0.6249999999999916
2018-12-28,0.9499999999999776
2019-01-02,0.4399999999999958
2019-01-03,0.5517241379310387
2019-01-04,0.61764705882353
2019-01-07,0.3500000000000025
2019-01-08,0.23809523809523647
2019-01-09,0.3125000000000004
2019-01-10,0.125
2019-01-11,0.027777777777773703
2019-01-14,0.03703703703703164
2019-01-15,0.16666666666667002
2019-01-16,0.37037037037037274
2019-01-17,0.7647058823529339
2019-01-18,0.7647058823529339
2019-01-21,1.0
2019-01-22,0.9047619047619061
2019-01-23,0.7619047619047645
2019-01-24,0.6904761904761941
2019-01-25,0.6222222222222298
2019-01-28,0.0
2019-01-29,5.740266178673246e-15
2019-01-30,0.4054054054054037
2019-01-31,0.5128205128205068
2019-02-01,0.6153846153846072
2019-02-11,0.8888888888888878
2019-02-12,0.9189189189189177
2019-02-13,0.6551724137931014
2019-02-14,0.5600000000000043
2019-02-15,0.5769230769230789
2019-02-18,0.5357142857142834
2019-02-19,0.6060606060606146
2019-02-20,0.6896551724137944
2019-02-21,0.8048780487804836
2019-02-22,0.5833333333333369
2019-02-25,0.6808510638297915
2019-02-26,0.3399999999999978
2019-02-27,0.3333333333333333
2019-02-28,0.4516129032258079
2019-03-01,0.5925925925925909
2019-03-04,0.6615384615384624
2019-03-05,0.8600000000000043
2019-03-06,0.9361702127659582
2019-03-07,0.3389830508474603
2019-03-08,0.2758620689655234
2019-03-11,0.01818181818181527
2019-03-12,0.017857142857139994
2019-03-13,0.08333333333334052
2019-03-14,0.18518518518519397
2019-03-15,0.32142857142855885
2019-03-18,0.5882352941176329
2019-03-19,0.8799999999999776
2019-03-20,0.6538461538461198
2019-03-21,0.6799999999999854
2019-03-22,0.5000000000000029
2019-03-25,0.3243243243243159
2019-03-26,0.0
2019-03-27,0.05882352941176901
2019-03-28,0.05882352941176875
2019-03-29,0.10000000000000252
2019-04-01,0.37500000000000977
2019-04-02,0.692307692307729
2019-04-03,0.6666666666666976
2019-04-04,0.8888888888889133
2019-04-08,0.833333333333342
2019-04-09,0.7857142857142873
2019-04-10,0.9523809523809358
2019-04-11,0.9722222222222133
2019-04-12,0.9663478479738129
2019-04-15,0.8741376562464366
2019-04-16,0.8584853510226648
2019-04-17,0.5673701104271104
2019-04-18,0.05629447852761534
2019-04-19,0.23560396748096404
2019-04-22,0.48977314986984516
2019-04-23,0.48261646282809073
2019-04-24,0.6294121663139175
2019-04-25,0.800000000000006
2019-04-26,0.6551724137931152
2019-04-29,0.1666666666666691
2019-04-30,0.1481481481481533
2019-05-06,0.4888888888888984
2019-05-07,0.5641025641025723
2019-05-08,0.44897959183674135
2019-05-09,0.6530612244898023
2019-05-10,0.6666666666666679
2019-05-13,0.2499999999999921
2019-05-14,0.3023255813953434
2019-05-15,0.6730769230769175
2019-05-16,0.510204081632654
2019-05-17,0.6379310344827578
2019-05-20,0.740000000000003
2019-05-21,0.7592592592592617
2019-05-22,0.5757575757575762
2019-05-23,0.8157894736842053
2019-05-24,0.6129032258064465
2019-05-27,0.8571428571428554
2019-05-28,0.8333333333333304
2019-05-29,0.5263157894736825
2019-05-30,0.4375000000000028
2019-05-31,0.4565217391304363
2019-06-03,0.10810810810810946
2019-06-04,0.0789473684210594
2019-06-05,0.27777777777778856
2019-06-06,0.12499999999999833
2019-06-10,0.42105263157895045
2019-06-11,0.9285714285714227
2019-06-12,0.9838709677419315
2019-06-13,0.9852941176470552
2019-06-14,0.8170731707317065
2019-06-17,0.8026315789473669
2019-06-18,0.374999999999999
2019-06-19,0.10126582278481121
2019-06-20,0.053333333333333934
2019-06-21,0.06153846153846265
2019-06-24,0.05633802816901489
2019-06-25,0.08510638297872584
2019-06-26,0.43589743589743907
2019-06-27,0.28260869565217206
2019-06-28,0.47169811320754285
2019-07-01,0.5999999999999976
2019-07-02,0.7999999999999942
2019-07-03,0.7380952380952311
2019-07-04,1.0
2019-07-05,0.9500000000000026
2019-07-08,0.4583333333333355
2019-07-09,0.23529411764706434
2019-07-10,0.31578947368423455
2019-07-11,0.25000000000002
2019-07-12,0.16666666666667998
2019-07-15,0.5263157894736904
2019-07-16,0.43243243243243834
2019-07-17,0.24561403508771693
2019-07-18,0.3968253968253951
2019-07-19,0.5762711864406768
2019-07-22,0.4347826086956546
2019-07-23,0.408163265306127
2019-07-24,0.7812500000000098
2019-07-25,0.6086956521739318
2019-07-26,0.29411764705883897
2019-07-29,0.42105263157895284
2019-07-30,0.6153846153846192
2019-07-31,0.2999999999999716
2019-08-01,0.19999999999997473
2019-08-02,0.23076923076919706
2019-08-05,0.16666666666666177
2019-08-06,0.13333333333333167
2019-08-07,0.47619047619047183
2019-08-08,0.7647058823529348
2019-08-09,0.7222222222222217
2019-08-12,0.8326319353746378
2019-08-13,0.9447527044828513
2019-08-14,0.8258255522659869
2019-08-15,0.8473514031375877
2019-08-16,0.9104620013944369
2019-08-19,0.4114369184159267
2019-08-20,0.24516309673806155
2019-08-21,0.2573931448056896
2019-08-22,0.10086398559085892
2019-08-23,0.1886792452830194
2019-08-26,0.5952380952380918
2019-08-27,0.75
2019-08-28,0.790697674418602
2019-08-29,1.0
2019-08-30,0.8333333333333346
2019-09-02,0.535714285714296
2019-09-03,0.37037037037037934
2019-09-04,0.5000000000000044
2019-09-05,0.33333333333333026
2019-09-06,0.3142857142857114
2019-09-09,0.4333333333333284
2019-09-10,0.4814814814814787
2019-09-11,0.054054054054054765
2019-09-12,0.6052631578947401
2019-09-16,0.7027027027027072
2019-09-17,0.6849315068493153
2019-09-18,0.7179487179487158
2019-09-19,0.9846153846153778
2019-09-20,0.34482758620688975
2019-09-23,0.2641509433962188
2019-09-24,0.512820512820513
2019-09-25,0.4533333333333357
2019-09-26,0.47435897435897795
2019-09-27,0.9090909090909146
2019-09-30,0.9411764705882378
2019-10-08,0.4
2019-10-09,0.4444444444444408
2019-10-10,0.34782608695651984
2019-10-11,0.2600000000000003
2019-10-14,0.09803921568627313
2019-10-15,0.20833333333333262
2019-10-16,0.3214285714285875
2019-10-17,0.15789473684211436
2019-10-18,0.6913580246913618
2019-10-21,0.816091954022991
2019-10-22,0.863157894736843
2019-10-23,0.8602150537634409
2019-10-24,0.9090909090909081
2019-10-25,0.4109589041095852
2019-10-28,0.19999999999999526
2019-10-29,0.06060606060605633
2019-10-30,0.0
2019-10-31,0.0571428571428573
2019-11-01,0.10000000000000059
2019-11-04,0.24000000000000418
2019-11-05,0.15789473684210895
2019-11-06,0.3548387096774168
2019-11-07,0.21212121212120347
2019-11-08,0.16279069767441112
2019-11-11,0.35714285714285554
2019-11-12,0.5333333333333284
2019-11-13,0.6440677966101697
2019-11-14,0.7457627118644099
2019-11-15,0.9777777777777816
2019-11-18,0.6744186046511688
2019-11-19,0.6410256410256424
2019-11-20,0.12499999999999994
2019-11-21,0.32258064516129037
2019-11-22,0.3787878787878737
2019-11-25,0.4629629629629521
2019-11-26,0.4166666666666592
2019-11-27,0.862745098039208
2019-11-28,0.3934426229508168
2019-11-29,0.32758620689655604
2019-12-02,0.2835820895522461
2019-12-03,0.3225806451613033
2019-12-04,0.016949152542380483
2019-12-05,0.33333333333334536
2019-12-06,0.35000000000000986
2019-12-09,0.6862745098039202
2019-12-10,0.7588449153422604
2019-12-11,0.9647276328821379
2019-12-12,0.8304752271926136
2019-12-13,0.8348388252683693
2019-12-16,0.417511732466925
2019-12-17,0.030590155789767502
2019-12-18,0.38577288147614186
2019-12-19,0.3772424634732785
2019-12-20,0.3465315456706035
2019-12-23,0.4888888888888937
2019-12-24,0.7222222222222282
2019-12-25,0.1428571428571404
2019-12-26,0.2068965517241389
2019-12-27,0.44444444444444436
2019-12-30,0.384615384615387
2019-12-31,0.42857142857143254
2020-01-02,0.8571428571428589
2020-01-03,0.8974358974358965
2020-01-06,0.6944444444444381
2020-01-07,0.7352941176470522
2020-01-08,0.44999999999999185
2020-01-09,0.2727272727272628
2020-01-10,0.0
2020-01-13,0.05128205128205191
2020-01-14,0.05405405405405475
2020-01-15,0.4883720930232575
2020-01-16,0.6923076923076964
2020-01-17,0.870967741935475
2020-01-20,0.8620689655172334
2020-01-21,0.8857142857142788
2020-01-22,0.47999999999999765
2020-01-23,0.5517241379310308
2020-02-03,0.8593749999999997
2020-02-04,0.8799999999999988
2020-02-05,0.8928571428571419
2020-02-06,1.0
2020-02-07,0.8938053097345138
2020-02-10,0.5904761904761896
2020-02-11,0.5099999999999999
2020-02-12,0.35999999999999893
2020-02-13,0.0
2020-02-14,0.0
2020-02-17,0.14035087719298206
2020-02-18,0.13333333333333267
2020-02-19,0.1956521739130401
2020-02-20,0.321428571428566
2020-02-21,0.5312499999999953
2020-02-24,0.37500000000000155
2020-02-25,0.785714285714288
2020-02-26,0.7500000000000079
2020-02-27,0.636363636363647
2020-02-28,0.6571428571428671
2020-03-02,0.800000000000003
2020-03-03,0.7857142857142876
2020-03-04,0.8070175438596493
2020-03-05,0.958333333333333
2020-03-06,0.7659574468085054
2020-03-09,0.28947368421052433
2020-03-10,0.050000000000000155
2020-03-11,0.0
2020-03-12,0.1590909090909079
2020-03-13,0.47169811320755084
2020-03-16,0.5952380952380961
2020-03-17,0.7142857142857132
2020-03-18,0.7906976744186006
2020-03-19,0.867647058823527
2020-03-20,0.6406249999999969
2020-03-23,0.7391304347826075
2020-03-24,0.8028169014084495
2020-03-25,0.794117647058822
2020-03-26,0.3606557377049175
2020-03-27,0.4074074074074086
2020-03-30,0.23999999999999957
2020-03-31,0.11538461538461488
2020-04-01,0.0
2020-04-02,0.45284255090384506
2020-04-03,0.7908821408541052
2020-04-07,0.8531344958160024
2020-04-08,0.9506762132060507
2020-04-09,0.9191732181348187
2020-04-10,0.7014062355444508
2020-04-13,0.2464180846923884
2020-04-14,0.4493175120210904
2020-04-15,0.5540540540540535
2020-04-16,0.6867469879518076
2020-04-17,0.9080459770114931
2020-04-20,0.7669902912621357
2020-04-21,0.5922330097087389
2020-04-22,0.38000000000000017
2020-04-23,0.2705882352941184
2020-04-24,0.010869565217391812
2020-04-27,0.01265822784810192
2020-04-28,0.013513513513514212
2020-04-29,0.08620689655171652
2020-04-30,0.05555555555554836
2020-05-06,0.2641509433962209
2020-05-07,0.37777777777776855
2020-05-08,0.5588235294117512
2020-05-11,0.5714285714285705
2020-05-12,0.8333333333333375
2020-05-13,0.826086956521743
2020-05-14,0.8181818181818243
2020-05-15,0.8709677419354885
2020-05-18,0.6666666666666683
2020-05-19,0.8249999999999985
2020-05-20,0.43636363636363446
2020-05-21,0.3793103448275834
2020-05-22,0.2500000000000023
2020-05-25,0.6184210526315798
2020-05-26,0.4931506849315105
2020-05-27,0.7200000000000003
2020-05-28,0.7659574468085082
2020-05-29,0.6481481481481437
2020-06-01,0.0
2020-06-02,0.15384615384615094
2020-06-03,0.16923076923077152
2020-06-04,0.17460317460317717
2020-06-05,0.18965517241379565
2020-06-08,0.7333333333333283
2020-06-09,0.4285714285714288
2020-06-10,0.2857142857142434
2020-06-11,0.7826086956521529
2020-06-12,0.9259259259259118
2020-06-15,0.9615384615384488
2020-06-16,0.5348837209302342
2020-06-17,0.5581395348837304
2020-06-18,0.1702127659574605
2020-06-19,0.018867924528314005
2020-06-22,0.016949152542378672
2020-06-23,0.023809523809531698
2020-06-24,0.28070175438596245
2020-06-29,0.4210526315789371
2020-06-30,0.6538461538461343
2020-07-01,0.8799999999999852
2020-07-02,0.9687499999999896
2020-07-03,0.44117647058823317
2020-07-06,0.5714285714285744
2020-07-07,0.6785714285714292
2020-07-08,0.62264150943396
2020-07-09,0.574468085106383
2020-07-10,0.8999999999999961
2020-07-13,0.9516129032258042
2020-07-14,0.9387755102040791
2020-07-15,0.9803921568627444
2020-07-16,0.87037037037037
2020-07-17,0.9387755102040818
2020-07-20,0.5151515151515174
2020-07-21,0.5966386554621856
2020-07-22,0.6923076923076916
2020-07-23,0.8046511627906973
2020-07-24,0.6701570680628268
2020-07-27,0.8800000000000004
2020-07-28,0.7292817679558016
2020-07-29,0.623287671232878
2020-07-30,0.18181818181818293
2020-07-31,0.2047244094488196
2020-08-03,0.047397462881846805
2020-08-04,0.3886060091733846
2020-08-05,0.36668255481410833
2020-08-06,0.7993943274900588
2020-08-07,0.8606127306698064
2020-08-10,0.8154601861427102
2020-08-11,0.5776756507254789
2020-08-12,0.8812173119449591
2020-08-13,0.8718812705864517
2020-08-14,0.7448979591836705
2020-08-17,0.7765957446808475
2020-08-18,0.6952380952380939
2020-08-19,0.14876033057851268
2020-08-20,0.0
2020-08-21,0.39267015706806335
2020-08-24,0.4285714285714289
2020-08-25,0.5424528301886801
2020-08-26,0.830065359477126
2020-08-27,1.0
2020-08-28,0.8043478260869564
2020-08-31,0.7209302325581413
2020-09-01,0.44155844155844226
2020-09-02,0.3333333333333304
2020-09-03,0.26666666666666533
2020-09-04,0.24242424242424182
2020-09-07,0.26229508196721085
2020-09-08,0.25396825396825246
2020-09-09,0.5
2020-09-10,0.3529411764705891
2020-09-11,0.35294117647058887
2020-09-14,0.4065934065934106
2020-09-15,0.7079646017699135
2020-09-16,0.43103448275862344
2020-09-17,0.3649635036496377
2020-09-18,0.5116279069767466
2020-09-21,0.5
2020-09-22,0.21505376344085736
2020-09-23,0.5121951219512169
2020-09-24,0.8214285714285634
2020-09-25,0.49999999999999056
2020-09-28,0.33333333333332943
2020-09-29,0.2574257425742562
2020-09-30,0.05063291139240131
2020-10-09,0.0
2020-10-12,0.27380952380952456
2020-10-13,0.4347826086956507
2020-10-14,0.8604651162790665
2020-10-15,0.5692307692307661
2020-10-16,0.6065573770491798
2020-10-19,0.2799999999999981
2020-10-20,0.14000000000000185
2020-10-21,0.0
2020-10-22,0.17857142857142805
2020-10-23,0.19230769230769076
2020-10-26,0.18518518518518606
2020-10-27,0.2173913043478251
2020-10-28,0.27272727272727143
2020-10-29,0.035714285714283686
2020-10-30,0.49056603773585505
2020-11-02,0.6888888888888918
2020-11-03,0.7045454545454563
2020-11-04,0.5660377358490601
2020-11-05,0.6382978723404236
2020-11-06,0.34615384615383415
2020-11-09,0.11428571428570582
2020-11-10,0.10810810810810056
2020-11-11,0.539999999999994
2020-11-12,0.6603773584905648
2020-11-13,0.3647058823529433
2020-11-16,0.5294117647058836
2020-11-17,0.5294117647058835
2020-11-18,0.3333333333333362
2020-11-19,0.4698795180722894
2020-11-20,0.854545454545459
2020-11-23,0.8620689655172465
2020-11-24,0.9090909090909155
2020-11-25,0.8771929824561402
2020-11-26,0.43103448275862416
2020-11-27,0.36538461538461475
2020-11-30,0.03703703703703408
2020-12-01,0.034482758620686754
2020-12-02,0.20634920634920373
2020-12-03,0.32499999999999557
2020-12-04,0.4999999999999947
2020-12-07,0.8933333333333302
2020-12-08,0.966666666666666
2020-12-09,0.9702970297029696
2020-12-10,1.0
2020-12-11,1.0
2020-12-14,1.0
2020-12-15,1.0
2020-12-16,0.8983079749180386
2020-12-17,0.7890282911900016
2020-12-18,0.677847162757678
2020-12-21,0.19778084460392525
2020-12-22,0.12049724024402168
2020-12-23,0.13190846572764928
2020-12-24,0.4716981132075505
2020-12-25,0.3787878787878758
2020-12-28,0.6491228070175363
2020-12-29,0.4776119402985043
2020-12-30,0.31999999999999984
2020-12-31,0.12499999999999967
2021-01-04,0.2947368421052668
2021-01-05,0.13445378151260842
2021-01-06,0.20720720720721092
2021-01-07,0.36585365853658874
2021-01-08,0.5135135135135158
2021-01-11,0.45454545454545536
2021-01-12,0.7894736842105216
2021-01-13,0.7499999999999932
2021-01-14,0.8222222222222193
2021-01-15,0.5370370370370374
2021-01-18,0.4468085106382957
2021-01-19,0.39622641509433915
2021-01-20,0.2666666666666686
2021-01-21,0.0
2021-01-22,0.08510638297872528
2021-01-25,0.08695652173913204
2021-01-26,0.5254237288135609
2021-01-27,0.8648648648648594
2021-01-28,0.666666666666663
2021-01-29,0.49122807017543474
2021-02-01,0.4590163934426232
2021-02-02,0.029411764705878283
2021-02-03,0.029411764705878283
2021-02-04,0.6458333333333299
2021-02-05,0.9130434782608677
2021-02-08,0.6086956521739082
2021-02-09,0.47191011235954905
2021-02-10,0.5052631578947363
2021-02-18,0.23684210526315583
2021-02-19,0.13432835820895583
2021-02-22,0.6309523809523819
2021-02-23,0.8450704225352105
2021-02-24,0.845070422535211
2021-02-25,1.0
2021-02-26,1.0
2021-03-01,1.0
2021-03-02,1.0
2021-03-03,1.0
2021-03-04,0.619834710743802
2021-03-05,0.6488549618320597
2021-03-08,0.6319999999999981
2021-03-09,0.6617647058823508
2021-03-10,0.45384615384614974
2021-03-11,0.8447204968944076
2021-03-12,0.6184971098265893
2021-03-15,0.5755813953488381
2021-03-16,0.4812500000000014
2021-03-17,0.6898395721925166
2021-03-18,0.26262626262626465
2021-03-19,0.3786982248520718
2021-03-22,0.3516483516483515
2021-03-23,0.3184079601990048
2021-03-24,0.06976744186046338
2021-03-25,0.1428571428571394
2021-03-26,0.40495867768595156
2021-03-29,0.38281250000000205
2021-03-30,0.532710280373833
2021-03-31,0.46721311475409993
2021-04-01,0.5220588235294132
2021-04-02,0.14765100671140877
2021-04-06,0.4047619047619035
2021-04-07,0.34913001803323895
2021-04-08,0.4649757965562331
2021-04-09,0.515397627000652
2021-04-12,0.8898929526822338
2021-04-13,0.4910176619779058
2021-04-14,0.5321202602424504
2021-04-15,0.5640842787682355
2021-04-16,0.24773278627135348
2021-04-19,0.10222889906677354
2021-04-20,0.14864864864864982
2021-04-21,0.31395348837209225
2021-04-22,0.2804878048780435
2021-04-23,0.5853658536585233
2021-04-26,0.8461538461538453
2021-04-27,1.0
2021-04-28,0.8500000000000036
2021-04-29,0.7941176470588283
2021-04-30,0.883333333333338
2021-05-06,0.9263157894736871
2021-05-07,0.9113924050632952
2021-05-10,0.9947916666666667
2021-05-11,1.0
2021-05-12,1.0
2021-05-13,1.0
2021-05-14,1.0
2021-05-17,1.0
2021-05-18,0.70754716981132
2021-05-19,0.6868686868686861
2021-05-20,0.5384615384615383
2021-05-21,0.17721518987341803
2021-05-24,0.15384615384615463
2021-05-25,0.23645320197044506
2021-05-26,0.0
2021-05-27,0.0
2021-05-28,0.109374999999999
2021-05-31,0.09459459459459335
2021-06-01,0.09999999999999865
2021-06-02,0.42105263157894535
2021-06-03,0.4590163934426223
2021-06-04,0.2966101694915265
2021-06-07,0.3645833333333369
2021-06-08,0.46788990825688337
2021-06-09,0.12903225806451518
2021-06-10,0.2330097087378618
2021-06-11,0.22429906542055875
2021-06-15,0.19672131147540833
2021-06-16,0.0695652173913038
2021-06-17,0.28750000000000503
2021-06-18,0.17241379310345242
2021-06-21,0.17441860465116704
2021-06-22,0.2666666666666709
2021-06-23,0.21052631578947642
2021-06-24,0.3684210526315745
2021-06-25,0.47058823529411803
2021-06-28,0.6428571428571408
2021-06-29,0.39639639639639745
2021-06-30,0.5116279069767504
2021-07-01,0.1612903225806603
2021-07-02,0.07692307692308485
2021-07-05,8.46289637196538e-15
2021-07-06,0.45454545454546136
2021-07-07,0.571428571428567
2021-07-08,0.37209302325580973
2021-07-09,0.3404255319148896
2021-07-12,0.5130434782608695
2021-07-13,0.43434343434343425
2021-07-14,0.48623853211009693
2021-07-15,0.8415841584158434
2021-07-16,1.0
2021-07-19,1.0
2021-07-20,0.9669421487603301
2021-07-21,0.8482142857142851
2021-07-22,0.7078651685393238
2021-07-23,0.605633802816894
2021-07-26,0.3917732865813693
2021-07-27,0.8224689293656399
2021-07-28,0.837432877403115
2021-07-29,0.792551570322517
2021-07-30,0.7952798093905968
2021-08-02,0.5411462966600066
2021-08-03,0.0
2021-08-04,0.16176685132977614
2021-08-05,0.3746688747238592
2021-08-06,0.3737373737373767
2021-08-09,0.4654088050314472
2021-08-10,0.8968253968253913
2021-08-11,0.6564885496183133
2021-08-12,0.6399999999999922
2021-08-13,0.6504065040650346
2021-08-16,0.7079646017699062
2021-08-17,0.2971014492753611
2021-08-18,0.5422535211267608
2021-08-19,0.2647058823529419
2021-08-20,0.25352112676056415
2021-08-23,0.4101123595505654
2021-08-24,0.6583333333333363
2021-08-25,0.4574468085106421
2021-08-26,0.7894736842105263
2021-08-27,0.810810810810808
2021-08-30,0.30666666666666226
2021-08-31,0.4747474747474703
2021-09-01,0.43119266055045646
2021-09-02,0.2
2021-09-03,0.5303643724696356
2021-09-06,0.6502242152466386
2021-09-07,0.5180180180180203
2021-09-08,0.688172043010754
2021-09-09,0.8867187500000009
2021-09-10,0.484615384615387
2021-09-13,0.5825545171339566
2021-09-14,0.6718749999999998
2021-09-15,0.4662162162162159
2021-09-16,0.36013986013985866
2021-09-17,0.7272727272727278
2021-09-22,0.549586776859507
2021-09-23,0.6064981949458516
2021-09-24,0.7812500000000036
2021-09-27,0.8949152542372906
2021-09-28,0.6680672268907583
2021-09-29,0.6235294117647048
2021-09-30,0.36923076923076786
2021-10-08,0.34661354581673226
2021-10-11,0.10176991150442527
2021-10-12,0.17989417989417722
2021-10-13,0.6491803278688507
2021-10-14,0.8381742738589193
2021-10-15,0.6580882352941145
2021-10-18,0.7813765182186212
2021-10-19,0.8258064516129022
2021-10-20,0.30065359477124304
2021-10-21,0.45547073791348625
2021-10-22,0.6029776674937972
2021-10-25,0.576826196473553
2021-10-26,0.37439613526570087
2021-10-27,0.6489361702127663
2021-10-28,0.34716981132075436
2021-10-29,0.12389380530973332
2021-11-01,0.11290322580645025
2021-11-02,0.4215246636771288
2021-11-03,0.3857142857142855
2021-11-04,0.5159235668789811
2021-11-05,0.4764705882352947
2021-11-08,0.5785714285714298
2021-11-09,0.0847457627118648
2021-11-10,0.0
2021-11-11,0.22999999999999932
2021-11-12,0.2839506172839497
2021-11-15,0.38947368421052486
2021-11-16,0.8586956521739134
2021-11-17,0.7669902912621347
2021-11-18,0.22000000000000097
2021-11-19,0.2062500000000007
2021-11-22,0.02659574468085324
2021-11-23,0.0
2021-11-24,0.05813953488372081
2021-11-25,0.1785714285714261
2021-11-26,0.1612903225806437
2021-11-29,0.7283950617283942
2021-11-30,0.7764705882352961
2021-12-01,0.6511627906976767
2021-12-02,0.7222222222222253
2021-12-03,0.8910891089108921
2021-12-06,0.5287356321839055
2021-12-07,0.5393258426966273
2021-12-08,0.558139534883717
2021-12-09,0.25609756097560626
2021-12-10,0.4257539883580257
2021-12-13,0.6882589751660854
2021-12-14,0.44911126232283494
2021-12-15,0.4065648029206973
2021-12-16,0.49122107467892545
2021-12-17,0.17326888843822671
2021-12-20,0.14897902379056233
2021-12-21,0.4202223727282991
2021-12-22,0.4323177610405116
2021-12-23,0.3767123287671235
2021-12-24,0.7322834645669287
2021-12-27,0.43786982248520706
2021-12-28,0.23456790123456792
2021-12-29,0.228915662650603
2021-12-30,0.3086419753086422
2021-12-31,0.0799999999999994
2022-01-04,0.10714285714285625
2022-01-05,0.13483146067415586
2022-01-06,0.5416666666666651
2022-01-07,0.4954128440366973
2022-01-10,0.6506024096385539
2022-01-11,0.9405940594059403
2022-01-12,1.0
2022-01-13,0.9672131147540994
2022-01-14,0.9847328244274813
2022-01-17,0.9852941176470591
2022-01-18,0.853211009174311
2022-01-19,0.8415841584158407
2022-01-20,0.6799999999999972
2022-01-21,0.17499999999999505
2022-01-24,0.25
2022-01-25,0.46938775510204045
2022-01-26,0.3557692307692307
2022-01-27,0.646551724137932
2022-01-28,0.6818181818181812
2022-02-07,0.7368421052631574
2022-02-08,0.5034013605442177
2022-02-09,0.6723163841807901
2022-02-10,0.7363636363636361
2022-02-11,0.8964577656675752
2022-02-14,0.8978494623655917
2022-02-15,1.0
2022-02-16,0.9120000000000007
2022-02-17,0.7190082644628105
2022-02-18,0.25336927223719696
2022-02-21,0.13216957605985052
2022-02-22,0.0
2022-02-23,0.0
2022-02-24,0.0
2022-02-25,0.39837398373983673
2022-02-28,0.49494949494949453
2022-03-01,0.5816326530612244
2022-03-02,0.7216981132075474
2022-03-03,0.8360655737704918
2022-03-04,0.30219780219780346
2022-03-07,0.4438502673796804
2022-03-08,0.5418502202643185
2022-03-09,0.4307692307692318
2022-03-10,0.6204379562043807
2022-03-11,0.9615384615384617
2022-03-14,0.9637305699481865
2022-03-15,0.5531914893617009
2022-03-16,0.5913771096298387
2022-03-17,0.2228649015614375
2022-03-18,0.1930499935408852
2022-03-21,0.04296585462272103
2022-03-22,0.06228956228956281
2022-03-23,0.0
2022-03-24,0.0
2022-03-25,0.4022741481713037
2022-03-28,0.4871066950555931
2022-03-29,0.5694444444444418
2022-03-30,0.8597560975609743
2022-03-31,0.8900523560209407
2022-04-01,0.5561797752808982
2022-04-06,0.7100000000000011
2022-04-07,0.7010309278350527
2022-04-08,0.386934673366835
2022-04-11,0.24742268041237267
2022-04-12,0.3972602739726044
2022-04-13,0.10948905109489074
2022-04-14,0.06666666666666685
2022-04-15,0.2400000000000005
2022-04-18,0.42222222222222033
2022-04-19,0.291666666666665
2022-04-20,0.4444444444444429
2022-04-21,0.5957446808510652
2022-04-22,0.4117647058823524
2022-04-25,0.8130841121495342
2022-04-26,0.9639639639639654
2022-04-27,0.8294573643410886
2022-04-28,0.8750000000000023
2022-04-29,0.884848484848487
2022-05-05,0.35119047619047583
2022-05-06,0.22285714285714298
2022-05-09,0.2909090909090884
2022-05-10,0.295180722891566
2022-05-11,0.2514619883040935
2022-05-12,0.4942528735632203
2022-05-13,0.5443037974683576
2022-05-16,0.5200000000000081
2022-05-17,0.045045045045047624
2022-05-18,0.04672897196261953
2022-05-19,0.11926605504587252
2022-05-20,0.22222222222222315
2022-05-23,0.20618556701030666
2022-05-24,0.7500000000000031
2022-05-25,0.6176470588235314
2022-05-26,0.2549019607843161
2022-05-27,0.06779661016949251
2022-05-30,0.1666666666666695
2022-05-31,0.14492753623188398
2022-06-01,0.3698630136986283
2022-06-02,0.4736842105263149
2022-06-06,0.7868852459016408
2022-06-07,0.493506493506494
2022-06-08,0.5625000000000036
2022-06-09,0.6195652173913058
2022-06-10,0.7045454545454547
2022-06-13,0.43157894736842295
2022-06-14,0.7606837606837631
2022-06-15,0.7008547008546993
2022-06-16,0.3897058823529424
2022-06-17,0.41134751773049677
2022-06-20,0.5599999999999993
2022-06-21,0.27499999999999736
2022-06-22,0.45161290322580555
2022-06-23,0.9589041095890392
2022-06-24,0.7999999999999978
2022-06-27,0.7058823529411735
2022-06-28,0.44036697247706175
2022-06-29,0.32222222222222163
2022-06-30,0.012500000000002804
2022-07-01,0.08219178082192134
2022-07-04,0.3033707865168543
2022-07-05,0.40909090909090784
2022-07-06,0.3421052631578918
2022-07-07,0.44827586206896103
2022-07-08,0.4666666666666613
2022-07-11,0.15909090909090678
2022-07-12,0.6279069767441883
2022-07-13,0.8611111111111113
2022-07-14,0.8888888888888886
2022-07-15,0.8048780487804853
2022-07-18,0.7499999999999996
2022-07-19,0.7843137254901943
2022-07-20,0.6315789473684222
2022-07-21,0.6865671641791072
2022-07-22,0.6301369863013775
2022-07-25,0.7323943661971907
2022-07-26,0.2906976744186075
2022-07-27,0.28735632183908183
2022-07-28,0.05999999999999995
2022-07-29,0.34615384615384404
2022-08-01,0.3703703703703686
2022-08-02,0.6293103448275857
2022-08-03,0.7355371900826457
2022-08-04,0.898989898989896
2022-08-05,0.5813953488372078
2022-08-08,0.506493506493506
2022-08-09,0.20347846757259905
2022-08-10,0.2648188101071405
2022-08-11,0.57070257908779
2022-08-12,0.7237923366955618
2022-08-15,0.7489313194642325
2022-08-16,0.9369355094279826
2022-08-17,0.7648210290827728
2022-08-18,0.07768508863398887
2022-08-19,0.06456505254034915
2022-08-22,0.0
2022-08-23,0.11940298507462846
2022-08-24,0.08888888888889035
2022-08-25,0.11940298507462949
2022-08-26,0.11940298507462949
2022-08-29,0.10526315789473879
2022-08-30,0.18072289156626542
2022-08-31,0.590361445783134
2022-09-01,0.6202531645569609
2022-09-02,0.7435897435897423
2022-09-05,0.9701492537313422
2022-09-06,0.7352941176470634
2022-09-07,0.23529411764706534
2022-09-08,0.22222222222222868
2022-09-09,0.10606060606061093
2022-09-13,0.0
2022-09-14,0.10344827586206458
2022-09-15,0.5135135135135103
2022-09-16,0.5588235294117593
2022-09-19,0.575757575757571
2022-09-20,0.7037037037036915
2022-09-21,0.3421052631578927
2022-09-22,0.193548387096772
2022-09-23,0.19354838709677363
2022-09-26,0.20689655172414592
2022-09-27,0.31034482758621224
2022-09-28,0.7500000000000114
2022-09-29,0.8000000000000074
2022-09-30,1.0
2022-10-10,1.0
2022-10-11,1.0
2022-10-12,1.0
2022-10-13,0.8709677419354699
2022-10-14,0.8857142857142728
2022-10-17,0.8181818181817981
2022-10-18,0.4827586206896447
2022-10-19,0.5454545454545384
2022-10-20,0.3214285714285759
2022-10-21,0.2068965517241406
2022-10-24,0.16666666666667157
2022-10-25,0.3389830508474628
2022-10-26,0.15384615384615374
2022-10-27,0.4285714285714251
2022-10-28,0.44680851063829524
2022-10-31,0.6615384615384585
2022-11-01,0.5322580645161283
2022-11-02,0.7868852459016414
2022-11-03,0.6379310344827588
2022-11-04,0.823529411764707
2022-11-07,0.5853658536585393
2022-11-08,0.6447368421052634
2022-11-09,0.49275362318840754
2022-11-10,0.6351351351351386
2022-11-11,0.23728813559321976
2022-11-14,0.31111111111110995
2022-11-15,0.340425531914902
2022-11-16,0.34042553191489994
2022-11-17,0.4464285714285743
2022-11-18,0.6097560975609801
2022-11-21,0.48076923076923533
2022-11-22,0.39285714285714246
2022-11-23,0.5593220338983057
2022-11-24,0.15942028985507198
2022-11-25,0.3604651162790636
2022-11-28,0.5617977528089829
2022-11-29,0.5813953488372042
2022-11-30,0.5324675324675271
2022-12-01,0.9130434782608704
2022-12-02,0.39285714285714757
2022-12-05,0.05454545454546234
2022-12-06,0.1578947368421086
2022-12-07,0.17241379310345262
2022-12-08,0.17241379310344443
2022-12-09,0.6326530612244917
2022-12-12,1.0
2022-12-13,1.0
2022-12-14,0.7786161314850564
2022-12-15,0.8470336243129658
2022-12-16,0.8642688087212226
2022-12-19,0.6858161801759918
2022-12-20,0.6639416881443305
2022-12-21,0.7927932021629472
2022-12-22,0.45301742557333075
2022-12-23,0.04166666666666235
2022-12-26,0.04705882352940675
2022-12-27,0.31623931623931484
2022-12-28,0.3893129770992379
2022-12-29,0.4903846153846165
2022-12-30,0.7968749999999967
2023-01-03,0.9220779220779195
2023-01-04,0.5066666666666638
2023-01-05,0.3030303030303004
2023-01-06,0.3230769230769229
2023-01-09,0.3442622950819677
2023-01-10,0.01960784313725882
2023-01-11,0.13636363636364973
2023-01-12,0.13043478260870905
2023-01-13,0.4871794871794924
2023-01-16,0.58333333333334
2023-01-17,0.47457627118644613
2023-01-18,0.5753424657534273
2023-01-19,0.7307692307692308
2023-01-20,0.4819277108433699
2023-01-30,0.737804878048779
2023-01-31,0.8650306748466235
2023-02-01,0.8169934640522858
2023-02-02,0.8055555555555545
2023-02-03,0.9548872180451135
2023-02-06,0.2624113475177335
2023-02-07,0.1680000000000031
2023-02-08,0.14893617021276898
2023-02-09,0.09090909090909206
2023-02-10,0.050632911392403446
2023-02-13,0.12121212121211701
2023-02-14,0.057142857142855025
2023-02-15,0.10204081632651918
2023-02-16,0.4999999999999894
2023-02-17,0.25641025641025206
2023-02-20,0.3030303030303002
2023-02-21,0.2702702702702685
2023-02-22,0.289473684210534
2023-02-23,0.05714285714285963
2023-02-24,0.24999999999999975
2023-02-27,0.18749999999999917
2023-02-28,0.16216216216215976
2023-03-01,0.13888888888888934
2023-03-02,0.15624999999999964
2023-03-03,0.02325581395349244
2023-03-06,0.42372881355932124
2023-03-07,0.6730769230769224
2023-03-08,0.6964285714285681
2023-03-09,0.7761194029850729
2023-03-10,1.0
2023-03-13,1.0
2023-03-14,1.0
2023-03-15,0.8275862068965604
2023-03-16,0.8969072164948505
2023-03-17,0.8684210526315848
2023-03-20,0.75308641975309
2023-03-21,0.6543209876543236
2023-03-22,0.7599999999999978
2023-03-23,0.07352941176470189
2023-03-24,0.05797101449275138
2023-03-27,0.06060606060605822
2023-03-28,0.30769230769230693
2023-03-29,0.32499999999999973
2023-03-30,0.577777777777779
2023-03-31,0.6730769230769243
2023-04-03,0.7826086956521787
2023-04-04,0.5333333333333345
2023-04-06,0.5003943217665621
2023-04-07,0.5840300682672356
2023-04-10,0.29571660943430866
2023-04-11,0.6853765663351009
2023-04-12,0.6514112067774724
2023-04-13,0.5126330072127379
2023-04-14,0.7698815886385494
2023-04-17,0.8454903335597425
2023-04-18,0.5905142138922718
2023-04-19,0.6705882352941167
2023-04-20,0.8551724137931023
2023-04-21,0.8813559322033885
2023-04-24,0.8882978723404241
2023-04-25,1.0
2023-04-26,1.0
2023-04-27,0.7961783439490434
2023-04-28,0.45774647887323994
2023-05-04,0.2323943661971845
2023-05-05,0.09090909090909216
2023-05-08,0.197080291970802
2023-05-09,0.24545454545454534
2023-05-10,0.27272727272727243
2023-05-11,0.35064935064934966
2023-05-12,0.2842105263157893
2023-05-15,0.2272727272727286
2023-05-16,0.19607843137254968
2023-05-17,0.4146341463414637
2023-05-18,0.4415584415584441
2023-05-19,0.7446808510638313
2023-05-22,0.724137931034484
2023-05-23,0.9479166666666686
2023-05-24,0.9438202247191034
2023-05-25,0.9333333333333327
2023-05-26,0.8135593220338927
2023-05-29,0.30701754385964963
2023-05-30,0.11235955056179561
2023-05-31,0.029411764705879816
2023-06-01,0.10576923076922663
2023-06-02,0.3931034482758602
2023-06-05,0.8437499999999973
2023-06-06,0.6907894736842095
2023-06-07,0.8057553956834542
2023-06-08,0.7222222222222238
2023-06-09,0.32584269662921445
2023-06-12,0.03932584269663
2023-06-13,0.13772455089820285
2023-06-14,0.26903553299492317
2023-06-15,0.36097560975609716
2023-06-16,0.6812499999999997
2023-06-19,1.0
2023-06-20,0.8306878306878311
2023-06-21,0.6486486486486495
2023-06-26,0.5322580645161296
2023-06-27,0.39024390243902457
2023-06-28,0.0
2023-06-29,0.0
2023-06-30,0.07627118644068154
2023-07-03,0.08108108108108492
2023-07-04,0.07964601769911904
2023-07-05,0.3404255319149002
2023-07-06,0.3404255319148957
2023-07-07,0.2619047619047479
2023-07-10,0.5999999999999909
2023-07-11,0.9807692307692243
2023-07-12,0.9565217391304275
2023-07-13,0.9859154929577464
2023-07-14,0.9871794871794872
2023-07-17,0.9879518072289156
2023-07-18,0.6043956043956044
2023-07-19,0.6153846153846155
2023-07-20,0.623655913978495
2023-07-21,0.4999999999999985
2023-07-24,0.5523809523809529
2023-07-25,0.8709677419354825
2023-07-26,0.9136690647482004
2023-07-27,0.8181818181818162
2023-07-28,0.9218749999999991
2023-07-31,0.794642857142857
2023-08-01,0.8283582089552234
2023-08-02,0.4885496183206093
2023-08-03,0.47058823529411714
2023-08-04,0.30405405405405295
2023-08-07,0.34782608695651895
2023-08-08,0.021611823759060945
2023-08-09,0.04721415085496789
2023-08-10,0.05246321177223082
2023-08-11,0.4273874498252922
2023-08-14,0.40816905191840297
2023-08-15,0.8204643628509753
2023-08-16,0.8745467122225267
2023-08-17,0.9612012368164676
2023-08-18,0.9202646239554307
2023-08-21,0.9793814432989686
2023-08-22,1.0
2023-08-23,0.9642857142857129
2023-08-24,0.9655172413793088
2023-08-25,0.7857142857142845
2023-08-28,0.37623762376237374
2023-08-29,0.08247422680411927
2023-08-30,0.5142857142857135
2023-08-31,0.538043478260871
2023-09-01,0.7366071428571435
2023-09-04,0.8659793814432992
2023-09-05,1.0
2023-09-06,0.5890410958904118
2023-09-07,0.5149253731343272
2023-09-08,0.03296703296703187
2023-09-11,0.0
2023-09-12,0.0
2023-09-13,0.3484848484848488
2023-09-14,0.2555555555555563
2023-09-15,0.30263157894736936
2023-09-18,0.20535714285714354
2023-09-19,0.22522522522522256
2023-09-20,0.016393442622947254
2023-09-21,0.12499999999999753
2023-09-22,0.12999999999999798
2023-09-25,0.5357142857142858
2023-09-26,0.4673913043478302
2023-09-27,0.5443037974683614
2023-09-28,0.5200000000000063
2023-10-09,0.39393939393939587
2023-10-10,0.4174757281553425
2023-10-11,0.5283018867924538
2023-10-12,0.6086956521739113
2023-10-13,0.5697674418604647
2023-10-16,0.8823529411764702
2023-10-17,0.22857142857142748
2023-10-18,0.1111111111111098
2023-10-19,0.3305785123966925
2023-10-20,0.3252032520325171
2023-10-23,0.31967213114753895
2023-10-24,0.5909090909090864
2023-10-25,0.6
2023-10-26,0.16129032258064752
2023-10-27,0.11764705882353184
2023-10-30,0.0
2023-10-31,0.11111111111111313
2023-11-01,0.16455696202532005
2023-11-02,0.24528301886792897
2023-11-03,0.6216216216216224
2023-11-06,0.7419354838709676
2023-11-07,0.8095238095238088
2023-11-08,0.6666666666666614
2023-11-09,0.7619047619047576
2023-11-10,0.8404255319148901
2023-11-13,0.9401709401709379
2023-11-14,0.8823529411764661
2023-11-15,0.8571428571428538
2023-11-16,0.6666666666666643
2023-11-17,0.2792792792792792
2023-11-20,0.0
2023-11-21,0.17431192660550707
2023-11-22,0.4666666666666704
2023-11-23,0.5693430656934334
2023-11-24,0.8706896551724158
2023-11-27,0.99019607843137
2023-11-28,0.9886363636363606
2023-11-29,0.8780487804878003
2023-11-30,0.8913043478260834
2023-12-01,0.9509803921568611
2023-12-04,0.9792746113989643
2023-12-05,0.9801980198019808
2023-12-06,1.0
2023-12-07,1.0
2023-12-08,0.8384619088895315
2023-12-11,0.4670629884443261
2023-12-12,0.35579101293284254
2023-12-13,0.3590177815410668
2023-12-14,0.023634085745227074
2023-12-15,0.023464676491050083
2023-12-18,0.0296527194980612
2023-12-19,0.03389830508474502
2023-12-20,0.0
2023-12-21,0.4205128205128213
2023-12-22,0.5398773006134978
2023-12-25,0.5751633986928126
2023-12-26,0.6602564102564136
2023-12-27,0.9298245614035107
2023-12-28,0.26666666666666705
2023-12-29,0.16071428571428464
2024-01-02,0.15652173913043327
2024-01-03,0.40490797546012225
2024-01-04,0.5076142131979697
2024-01-05,0.767857142857142
2024-01-08,0.9424083769633501
2024-01-09,1.0
2024-01-10,1.0
2024-01-11,0.7786885245901601
2024-01-12,0.6874999999999941
2024-01-15,0.15624999999999645
2024-01-16,0.07608695652173372
2024-01-17,0.0
2024-01-18,0.008130081300813973
2024-01-19,0.006060606060606793
2024-01-22,0.30246913580247003
2024-01-23,0.28160919540230006
2024-01-24,0.4958677685950442
2024-01-25,0.4370370370370396
2024-01-26,0.6868686868686873
2024-01-29,0.33898305084745417
2024-01-30,0.6101694915254214
2024-01-31,0.30120481927710263
2024-02-01,0.5943396226415055
2024-02-02,0.5294117647058818
2024-02-05,0.40298507462686567
2024-02-06,0.40298507462686567
2024-02-07,0.5909090909090927
2024-02-08,0.2596153846153856
2024-02-19,0.4285714285714292
2024-02-20,0.6981132075471697
2024-02-21,0.6105263157894759
2024-02-22,0.5053763440860222
2024-02-23,0.5802469135802494
2024-02-26,0.2702702702702732
2024-02-27,0.0
2024-02-28,0.24468085106383
2024-02-29,0.2613636363636378
2024-03-01,0.42307692307692574
2024-03-04,0.6212121212121198
2024-03-05,0.9361702127659605
2024-03-06,0.2876712328767105
2024-03-07,0.4999999999999987
2024-03-08,0.4148936170212741
2024-03-11,0.4859813084112146
2024-03-12,0.449541284403669
2024-03-13,0.8281249999999974
2024-03-14,0.4999999999999971
2024-03-15,0.6833333333333322
2024-03-18,0.6481481481481477
2024-03-19,0.7307692307692311
2024-03-20,0.745454545454546
2024-03-21,1.0
2024-03-22,1.0
2024-03-25,0.3653846153846185
2024-03-26,0.2807017543859656
2024-03-27,0.3050847457627117
2024-03-28,0.25352112676056365
2024-03-29,0.1323529411764687
2024-04-01,0.19999999999999618
2024-04-02,0.28244709229948683
2024-04-03,0.03725921567624782
2024-04-08,0.2350410998667411
2024-04-09,0.3804506179041541
2024-04-10,0.4286482432681074
2024-04-11,0.4630085247296958
2024-04-12,0.8982946603298867
2024-04-15,0.9009816552049519
2024-04-16,0.4572908209707956
2024-04-17,0.44642857142856895
2024-04-18,0.5507246376811612
2024-04-19,0.48333333333333356
2024-04-22,0.3461538461538496
2024-04-23,0.771428571428573
2024-04-24,0.9444444444444443
2024-04-25,0.7857142857142795
2024-04-26,0.8125000000000002
2024-04-29,0.7959183673469303
2024-04-30,0.8387096774193472
2024-05-06,0.830508474576264
2024-05-07,0.7424242424242422
2024-05-08,0.6142857142857128
2024-05-09,0.5243902439024408
2024-05-10,0.2916666666666679
2024-05-13,0.0
2024-05-14,0.12244897959183486
2024-05-15,0.13333333333333136
2024-05-16,0.22499999999999742
2024-05-17,0.35064935064935165
2024-05-20,0.9310344827586209
2024-05-21,0.8947368421052648
2024-05-22,1.0
2024-05-23,1.0
2024-05-24,1.0
2024-05-27,1.0
2024-05-28,0.803278688524593
2024-05-29,0.8834951456310695
2024-05-30,0.8888888888888902
2024-05-31,0.6260162601626019
2024-06-03,0.6827586206896549
2024-06-04,0.7733333333333323
2024-06-05,0.44827586206896336
2024-06-06,0.3150684931506826
2024-06-07,0.40707964601769697
2024-06-11,0.18279569892473047
2024-06-12,0.0
2024-06-13,0.227848101265825
2024-06-14,0.23684210526316105
2024-06-17,0.40625000000000167
2024-06-18,0.3786407766990304
2024-06-19,0.5769230769230794
2024-06-20,0.3333333333333345
2024-06-21,0.5
2024-06-24,0.36206896551724177
2024-06-25,0.36842105263157776
2024-06-26,0.2941176470588212
2024-06-27,0.4999999999999914
2024-06-28,0.3749999999999959
2024-07-01,0.09090909090909066
2024-07-02,0.4047619047619011
2024-07-03,0.4565217391304316
2024-07-04,0.3684210526315791
2024-07-05,0.42857142857143216
2024-07-08,0.784313725490199
2024-07-09,0.5744680851063892
2024-07-10,0.6666666666666711
2024-07-11,0.8235294117647092
2024-07-12,0.3999999999999974
2024-07-15,0.22619047619047455
2024-07-16,0.24999999999999753
2024-07-17,0.02564102564102563
2024-07-18,0.012987012987012981
2024-07-19,0.22916666666666777
2024-07-22,0.4444444444444515
2024-07-23,0.5000000000000066
2024-07-24,0.8260869565217408
2024-07-25,0.8518518518518531
2024-07-26,0.8620689655172424
2024-07-29,0.9047619047619041
2024-07-30,0.6603773584905644
2024-07-31,0.818181818181817
2024-08-01,0.8352941176470573
2024-08-02,0.813333333333332
2024-08-05,0.5308641975308643
2024-08-06,0.7241379310344832
2024-08-07,0.42168674698795244
2024-08-08,0.23913043478261065
2024-08-09,0.210526315789472
2024-08-12,0.33766233766233533
2024-08-13,0.26086956521739146
2024-08-14,0.5499999999999979
2024-08-15,0.8809523809523705
2024-08-16,0.8223924898184631
2024-08-19,0.644707098107606
2024-08-20,0.35683872849227544
2024-08-21,0.07232704402515776
2024-08-22,0.43525229044168096
2024-08-23,0.44603258013662683
2024-08-26,0.5364107361300994
2024-08-27,0.6870108880571606
2024-08-28,0.8964426438759079
2024-08-29,0.20754716981131752
2024-08-30,0.40983606557376695
2024-09-02,0.6603773584905651
2024-09-03,0.6697247706422007
2024-09-04,0.7049180327868846
2024-09-05,1.0
2024-09-06,0.9176470588235314
2024-09-09,0.3058823529411783
2024-09-10,0.22093023255814115
2024-09-11,0.0749999999999993
2024-09-12,0.22916666666666655
2024-09-13,0.3619047619047615
2024-09-18,0.6909090909090853
2024-09-19,0.8656716417910397
2024-09-20,0.9672131147540981
2024-09-23,0.740000000000001
2024-09-24,0.7592592592592595
2024-09-25,0.8777777777777782
2024-09-26,0.8428571428571442
2024-09-27,0.8842105263157902
2024-09-30,1.0
2024-10-08,1.0
2024-10-09,0.8542713567839203
2024-10-10,0.8619047619047623
2024-10-11,0.727699530516432
2024-10-14,0.615384615384616
2024-10-15,0.0791366906474812
2024-10-16,0.15384615384615163
2024-10-17,0.47894736842105196
2024-10-18,0.6428571428571428
2024-10-21,0.536170212765957
2024-10-22,0.5271966527196653
2024-10-23,0.5170940170940176
2024-10-24,0.18226600985221764
2024-10-25,0.010204081632653177
2024-10-28,0.322274881516587
2024-10-29,0.542372881355931
2024-10-30,0.6124401913875587
2024-10-31,0.6037735849056582
2024-11-01,0.6701570680628263
2024-11-04,0.45255474452554756
2024-11-05,0.29310344827586227
2024-11-06,0.0
2024-11-07,0.02739726027396991
2024-11-08,0.35353535353535503
2024-11-11,0.3846153846153846
2024-11-12,0.31531531531531587
2024-11-13,0.5373134328358198
2024-11-14,0.6125000000000014
2024-11-15,0.2352941176470586
2024-11-18,0.1599999999999996
2024-11-19,0.1904761904761893
2024-11-20,0.1388888888888899
2024-11-21,0.0
2024-11-22,0.062499999999997946
2024-11-25,0.0799999999999975
2024-11-26,0.13432835820895303
2024-11-27,0.2499999999999972
2024-11-28,0.24444444444444455
2024-11-29,0.08196721311475551
2024-12-02,0.4057971014492778
2024-12-03,0.3205128205128215
2024-12-04,0.4175824175824178
2024-12-05,0.6909090909090897
2024-12-06,0.7916666666666644
2024-12-09,0.5145631067961141
2024-12-10,0.6752136752136745
2024-12-11,0.5333333333333337
2024-12-12,0.22033898305084942
2024-12-13,0.23214285714285932
2024-12-16,0.4390657895695405
2024-12-17,0.19514543790537636
2024-12-18,0.30788398285657537
2024-12-19,0.6896006280957347
2024-12-20,0.7439363395225428
2024-12-23,0.49659641670750515
2024-12-24,0.661679340570035
2024-12-25,0.6634279444460456
2024-12-26,0.3262923307979227
2024-12-27,0.1403508771929793
2024-12-30,0.1951219512195082
2024-12-31,0.18181818181817702
